,fs,t,y
0,57.24329404504512,222.4797841,2.6318359375
1,,222.5057472,2.5732421875
2,,222.5067063,2.5
3,,222.5220906,2.4169921875
4,,222.5682729,2.32421875
5,,222.5688308,2.2412109375
6,,222.5984608,2.1533203125
7,,222.6037416,2.0849609375
8,,222.6436945,2.0263671875
9,,222.6439974,1.9580078125
10,,222.6656104,1.8994140625
11,,222.7007803,1.8408203125
12,,222.7058596,1.7822265625
13,,222.7231371,1.71875
14,,222.7676852,1.6650390625
15,,222.768328,1.6162109375
16,,222.7829365,1.5625
17,,222.817149,1.513671875
18,,222.8376226,1.4794921875
19,,222.8447492,1.435546875
20,,222.8808541,1.40625
21,,222.9070424,1.455078125
22,,222.9077934,1.6259765625
23,,222.92359,1.8603515625
24,,222.9593827,2.1533203125
25,,222.9823594,2.4365234375
26,,222.9852603,2.7197265625
27,,223.0287835,2.978515625
28,,223.0290857,3.1494140625
29,,223.0510289,3.2568359375
30,,223.0635362,3.2861328125
31,,223.0842348,3.2568359375
32,,223.1199119,3.173828125
33,,223.1246413,3.0615234375
34,,223.1589935,2.9345703125
35,,223.1800313,2.802734375
36,,223.1848439,2.67578125
37,,223.2201364,2.5537109375
38,,223.2400401,2.431640625
39,,223.243056,2.314453125
40,,223.278502,2.20703125
41,,223.2989086,2.1142578125
42,,223.3035921,2.0361328125
43,,223.3376847,1.9580078125
44,,223.3592313,1.8798828125
45,,223.3666771,1.787109375
46,,223.3865938,1.69921875
47,,223.4305743,1.6064453125
48,,223.4309287,1.513671875
49,,223.4436498,1.4306640625
50,,223.4647475,1.3720703125
51,,223.5062806,1.337890625
52,,223.5066814,1.3916015625
53,,223.5266049,1.54296875
54,,223.5614803,1.8017578125
55,,223.5668733,2.0751953125
56,,223.6032718,2.3779296875
57,,223.6037662,2.6318359375
58,,223.6377466,2.8662109375
59,,223.6581332,3.0224609375
60,,223.6656746,3.076171875
61,,223.7063203,3.0615234375
62,,223.7066265,2.96875
63,,223.7412165,2.83203125
64,,223.7605392,2.6611328125
65,,223.7669086,2.4755859375
66,,223.785241,2.2998046875
67,,223.8198709,2.138671875
68,,223.8240299,2.001953125
69,,223.8603854,1.884765625
70,,223.8650548,1.77734375
71,,223.9003736,1.6748046875
72,,223.9054122,1.58203125
73,,223.9395796,1.484375
74,,223.968497,1.3916015625
75,,223.969185,1.3037109375
76,,223.9828012,1.2158203125
77,,224.0176755,1.1328125
78,,224.0385731,1.0693359375
79,,224.0444407,1.015625
80,,224.0897934,0.966796875
81,,224.0905372,0.9423828125
82,,224.1069638,0.95703125
83,,224.149475,1.0498046875
84,,224.1499371,1.26953125
85,,224.1701336,1.552734375
86,,224.1849697,1.884765625
87,,224.2206943,2.1923828125
88,,224.2256875,2.48046875
89,,224.2628064,2.6953125
90,,224.2898139,2.8662109375
91,,224.290292,2.9638671875
92,,224.3087157,2.978515625
93,,224.3541345,2.9345703125
94,,224.3548609,2.8466796875
95,,224.3638489,2.744140625
96,,224.4010491,2.6318359375
97,,224.4285573,2.5146484375
98,,224.4290983,2.4072265625
99,,224.4468936,2.3046875
100,,224.4815522,2.20703125
101,,224.5024299,2.119140625
102,,224.5056705,2.0361328125
103,,224.5510939,1.962890625
104,,224.5514179,1.884765625
105,,224.5661802,1.8115234375
106,,224.6044278,1.7333984375
107,,224.605227,1.66015625
108,,224.6388988,1.591796875
109,,224.6600791,1.5185546875
110,,224.66876,1.4404296875
111,,224.6837403,1.3623046875
112,,224.7190165,1.3037109375
113,,224.7400295,1.2890625
114,,224.7449769,1.396484375
115,,224.7817725,1.6015625
116,,224.8170748,1.8994140625
117,,224.8176009,2.2021484375
118,,224.8284178,2.51953125
119,,224.8619528,2.7880859375
120,,224.8825112,3.0224609375
121,,224.8849968,3.173828125
122,,224.9201053,3.2568359375
123,,224.9412175,3.2666015625
124,,224.9474083,3.1982421875
125,,224.9850308,3.0908203125
126,,224.9869771,2.9541015625
127,,225.0245491,2.8125
128,,225.029354,2.6611328125
129,,225.0650737,2.5244140625
130,,225.0655248,2.40234375
131,,225.0922019,2.294921875
132,,225.1073681,2.1875
133,,225.1437491,2.099609375
134,,225.1480712,2.01171875
135,,225.1855838,1.9189453125
136,,225.1908015,1.8310546875
137,,225.2332666,1.73828125
138,,225.2337296,1.6455078125
139,,225.2454453,1.5576171875
140,,225.2936474,1.455078125
141,,225.2940102,1.3427734375
142,,225.3147707,1.240234375
143,,225.3279487,1.162109375
144,,225.3633679,1.1376953125
145,,225.3680945,1.2255859375
146,,225.4035476,1.4453125
147,,225.4041525,1.71875
148,,225.4250171,2.0361328125
149,,225.4464465,2.314453125
150,,225.4821221,2.5634765625
151,,225.486766,2.744140625
152,,225.5216227,2.8662109375
153,,225.5437494,2.900390625
154,,225.5500948,2.8564453125
155,,225.5871326,2.75390625
156,,225.5876313,2.6171875
157,,225.6339608,2.4609375
158,,225.6345515,2.32421875
159,,225.6561168,2.197265625
160,,225.6667937,2.08984375
161,,225.7019341,1.9873046875
162,,225.7227297,1.8994140625
163,,225.7276546,1.8115234375
164,,225.7647315,1.7236328125
165,,225.7691557,1.640625
166,,225.8187493,1.5478515625
167,,225.8192767,1.4599609375
168,,225.8276679,1.3720703125
169,,225.8621908,1.279296875
170,,225.8694569,1.19140625
171,,225.9115103,1.1181640625
172,,225.9120811,1.044921875
173,,225.9300848,0.966796875
174,,225.967074,0.9033203125
175,,225.9676516,0.888671875
176,,225.9868315,0.99609375
177,,226.0216185,1.201171875
178,,226.0492809,1.484375
179,,226.0498718,1.7578125
180,,226.0955424,2.021484375
181,,226.0958958,2.216796875
182,,226.1112945,2.36328125
183,,226.1260903,2.4365234375
184,,226.2797741,2.4658203125
185,,226.2806996,2.4267578125
186,,226.2809394,2.3388671875
187,,226.2848351,2.2265625
188,,226.2851247,2.1142578125
189,,226.2853003,1.9970703125
190,,226.2854704,1.8994140625
191,,226.2896418,1.806640625
192,,226.3285814,1.71875
193,,226.3494034,1.650390625
194,,226.3498467,1.572265625
195,,226.3968276,1.5087890625
196,,226.3973959,1.435546875
197,,226.4093395,1.3671875
198,,226.4594271,1.2890625
199,,226.4598923,1.220703125
200,,226.4698115,1.15234375
201,,226.52022,1.0791015625
202,,226.5208192,1.005859375
203,,226.5286214,0.9326171875
204,,226.5640056,0.8544921875
205,,226.5693531,0.7861328125
206,,226.6161509,0.791015625
207,,226.616589,0.9033203125
208,,226.6316161,1.15234375
209,,226.6504078,1.4453125
210,,226.6860407,1.7626953125
211,,226.6864001,2.01171875
212,,226.718507,2.2314453125
213,,226.755792,2.36328125
214,,226.7561247,2.4365234375
215,,226.7698168,2.4365234375
216,,226.8052278,2.3876953125
217,,226.8099206,2.2998046875
218,,226.8457897,2.197265625
219,,226.8676117,2.099609375
220,,226.8681578,2.001953125
221,,226.9022086,1.9140625
222,,226.9219365,1.8359375
223,,226.9279285,1.7626953125
224,,226.961744,1.6845703125
225,,226.9852856,1.5966796875
226,,226.9916301,1.5087890625
227,,227.0300974,1.416015625
228,,227.030769,1.318359375
229,,227.0782227,1.220703125
230,,227.0787968,1.1083984375
231,,227.0966686,1.005859375
232,,227.1086483,0.9033203125
233,,227.1426274,0.7958984375
234,,227.1633276,0.7080078125
235,,227.1714859,0.6396484375
236,,227.1916838,0.5908203125
237,,227.2281216,0.6005859375
238,,227.2326821,0.732421875
239,,227.2477408,0.947265625
240,,227.2920327,1.25
241,,227.2932931,1.5185546875
242,,227.312855,1.7724609375
243,,227.3295822,1.943359375
244,,227.3653919,2.0703125
245,,227.3859929,2.1240234375
246,,227.390259,2.12890625
247,,227.4314354,2.080078125
248,,227.432079,2.0068359375
249,,227.4490651,1.9091796875
250,,227.4852757,1.8115234375
251,,227.5090439,1.708984375
252,,227.5096211,1.6064453125
253,,227.5432506,1.494140625
254,,227.5633473,1.376953125
255,,227.5715214,1.259765625
256,,227.6046169,1.1328125
257,,227.6086574,0.986328125
258,,227.6439312,0.849609375
259,,227.664012,0.6982421875
260,,227.669778,0.556640625
261,,227.7034925,0.41015625
262,,227.7234826,0.2734375
263,,227.7315459,0.17578125
264,,227.7646413,0.0537109375
265,,227.7687623,0.0048828125
266,,227.8018186,0.0048828125
267,,227.8236279,0.0048828125
268,,227.8300537,0.0048828125
269,,227.8635134,0.029296875
270,,227.8855032,0.37109375
271,,227.8917291,0.78125
272,,227.9290171,1.2353515625
273,,227.9316194,1.6162109375
274,,227.9675853,1.9482421875
275,,227.9884446,2.1728515625
276,,227.9891408,2.333984375
277,,228.0327,2.4072265625
278,,228.0332869,2.412109375
279,,228.079236,2.3681640625
280,,228.0800248,2.294921875
281,,228.0911571,2.20703125
282,,228.1284544,2.1240234375
283,,228.1328687,2.05078125
284,,228.1495052,1.9873046875
285,,228.1851473,1.93359375
286,,228.2056265,1.8896484375
287,,228.2110816,1.8408203125
288,,228.2464181,1.796875
289,,228.2666566,1.7529296875
290,,228.2724079,1.7138671875
291,,228.3079947,1.669921875
292,,228.3089078,1.611328125
293,,228.3401135,1.5576171875
294,,228.3616973,1.4892578125
295,,228.3709929,1.4111328125
296,,228.4069682,1.3330078125
297,,228.4119733,1.2451171875
298,,228.4523359,1.171875
299,,228.4528005,1.162109375
300,,228.4888227,1.2841796875
301,,228.4942906,1.5087890625
302,,228.5311759,1.8115234375
303,,228.531578,2.099609375
304,,228.5522139,2.3974609375
305,,228.5918518,2.6416015625
306,,228.5921929,2.8662109375
307,,228.6251427,3.017578125
308,,228.6468557,3.1103515625
309,,228.6535163,3.125
310,,228.6882037,3.0712890625
311,,228.7087688,2.9638671875
312,,228.7091321,2.8369140625
313,,228.7436718,2.6953125
314,,228.7650329,2.55859375
315,,228.7719379,2.431640625
316,,228.8066544,2.314453125
317,,228.8258665,2.2021484375
318,,228.8321603,2.1142578125
319,,228.8661924,2.0361328125
320,,228.8865375,1.962890625
321,,228.8892069,1.8994140625
322,,228.9246964,1.8310546875
323,,228.946067,1.7626953125
324,,228.9535904,1.689453125
325,,228.99061,1.611328125
326,,228.9926449,1.5234375
327,,229.026664,1.42578125
328,,229.0473136,1.328125
329,,229.049801,1.25
330,,229.0865697,1.220703125
331,,229.1071214,1.3330078125
332,,229.1119365,1.5673828125
333,,229.1475318,1.8408203125
334,,229.1542655,2.1484375
335,,229.1720168,2.431640625
336,,229.20971,2.6904296875
337,,229.2293848,2.880859375
338,,229.2344438,3.0126953125
339,,229.2521034,3.056640625
340,,229.2861065,3.0322265625
341,,229.3083976,2.94921875
342,,229.3140035,2.822265625
343,,229.3343892,2.6904296875
344,,229.3691508,2.5537109375
345,,229.3737849,2.421875
346,,229.4072352,2.294921875
347,,229.4270545,2.1826171875
348,,229.431407,2.080078125
349,,229.4667166,1.9921875
350,,229.4719661,1.904296875
351,,229.506482,1.8115234375
352,,229.5276236,1.7138671875
353,,229.5327969,1.6162109375
354,,229.5663419,1.513671875
355,,229.5865395,1.396484375
356,,229.5916362,1.279296875
357,,229.6370384,1.1572265625
358,,229.6377364,1.0400390625
359,,229.6577479,0.927734375
360,,229.6731211,0.8154296875
361,,229.7081912,0.76171875
362,,229.7308182,0.810546875
363,,229.7362194,1.025390625
364,,229.7760897,1.328125
365,,229.7765142,1.62109375
366,,229.7924581,1.9189453125
367,,229.8272207,2.1533203125
368,,229.8489215,2.3486328125
369,,229.8535583,2.4658203125
370,,229.8981335,2.5244140625
371,,229.8988256,2.5146484375
372,,229.9154528,2.4560546875
373,,229.9524636,2.3583984375
374,,229.9578599,2.24609375
375,,229.9724714,2.1484375
376,,230.0069524,2.0654296875
377,,230.0123194,1.9921875
378,,230.0468209,1.9189453125
379,,230.0697782,1.8408203125
380,,230.0749577,1.7626953125
381,,230.1096936,1.6796875
382,,230.1300329,1.591796875
383,,230.1348782,1.4990234375
384,,230.1530343,1.4013671875
385,,230.1878592,1.3037109375
386,,230.1934941,1.1962890625
387,,230.2294844,1.083984375
388,,230.2533767,0.9765625
389,,230.253771,0.87890625
390,,230.2898244,0.78125
391,,230.3156983,0.703125
392,,230.3167505,0.673828125
393,,230.3326307,0.78125
394,,230.3667085,1.0107421875
395,,230.3875038,1.3427734375
396,,230.3945559,1.6796875
397,,230.4402707,1.9677734375
398,,230.4407396,2.2216796875
399,,230.45399,2.412109375
400,,230.4920951,2.548828125
401,,230.4924474,2.6220703125
402,,230.5125577,2.646484375
403,,230.5475048,2.6220703125
404,,230.5681552,2.5537109375
405,,230.5729978,2.48046875
406,,230.6085647,2.392578125
407,,230.6290483,2.3095703125
408,,230.6368025,2.2314453125
409,,230.6739552,2.1533203125
410,,230.6744215,2.0849609375
411,,230.7211464,2.021484375
412,,230.7215017,1.953125
413,,230.7402257,1.8994140625
414,,230.7552,1.8310546875
415,,230.7896276,1.7626953125
416,,230.8107624,1.6748046875
417,,230.8155752,1.58203125
418,,230.8590738,1.4794921875
419,,230.8596229,1.376953125
420,,230.879661,1.2646484375
421,,230.892674,1.162109375
422,,230.9271333,1.083984375
423,,230.9472965,1.1083984375
424,,230.9554541,1.279296875
425,,231.0003223,1.5673828125
426,,231.0008723,1.8701171875
427,,231.0301709,2.197265625
428,,231.0358465,2.5048828125
429,,231.05478,2.763671875
430,,231.0896477,2.998046875
431,,231.0952547,3.154296875
432,,231.1151419,3.2470703125
433,,231.1543729,3.2568359375
434,,231.1547249,3.2080078125
435,,231.175227,3.1201171875
436,,231.2160146,3.0029296875
437,,231.2163732,2.8857421875
438,,231.236728,2.7783203125
439,,231.2531549,2.6708984375
440,,231.287083,2.568359375
441,,231.3075355,2.4658203125
442,,231.3146369,2.36328125
443,,231.3539951,2.265625
444,,231.3585752,2.1630859375
445,,231.3932999,2.0654296875
446,,231.3986593,1.97265625
447,,231.4334648,1.8701171875
448,,231.43383,1.767578125
449,,231.4673362,1.6748046875
450,,231.4878528,1.5771484375
451,,231.496566,1.4794921875
452,,231.5310267,1.3818359375
453,,231.5508086,1.328125
454,,231.555098,1.3818359375
455,,231.6012916,1.58203125
456,,231.6018632,1.8408203125
457,,231.6307577,2.138671875
458,,231.6339661,2.412109375
459,,231.6694914,2.67578125
460,,231.6907227,2.919921875
461,,231.6972936,3.0908203125
462,,231.7326556,3.2177734375
463,,231.7379294,3.271484375
464,,231.7726784,3.2763671875
465,,231.7731415,3.212890625
466,,231.8182252,3.125
467,,231.8185938,3.017578125
468,,231.8498575,2.9052734375
469,,231.8568198,2.79296875
470,,231.8915972,2.6953125
471,,231.9119228,2.59765625
472,,231.9177688,2.5048828125
473,,231.9346854,2.4072265625
474,,231.9748364,2.3046875
475,,231.9753773,2.2021484375
476,,232.0111798,2.1142578125
477,,232.0160765,2.03125
478,,232.0512741,1.9482421875
479,,232.0722665,1.8603515625
480,,232.0763134,1.7724609375
481,,232.1097734,1.6748046875
482,,232.1309062,1.58203125
483,,232.1402218,1.484375
484,,232.1552655,1.4306640625
485,,232.1918732,1.4990234375
486,,232.1963233,1.6796875
487,,232.2315005,1.953125
488,,232.2365354,2.236328125
489,,232.2713226,2.5341796875
490,,232.2922798,2.7978515625
491,,232.2995966,3.037109375
492,,232.3370612,3.2080078125
493,,232.3375843,3.291015625
494,,232.3563191,3.3154296875
495,,232.3757612,3.271484375
496,,232.410398,3.1640625
497,,232.4324118,3.0322265625
498,,232.4389298,2.8955078125
499,,232.4834328,2.7587890625
500,,232.4840977,2.6220703125
501,,232.4967991,2.4951171875
502,,232.5465607,2.3779296875
503,,232.5471219,2.265625
504,,232.556758,2.1484375
505,,232.5922415,2.0361328125
506,,232.597189,1.923828125
507,,232.6306451,1.81640625
508,,232.650935,1.708984375
509,,232.6574449,1.6015625
510,,232.6749118,1.494140625
511,,232.7142102,1.38671875
512,,232.7444044,1.2744140625
513,,232.7450041,1.1376953125
514,,232.7584857,1.0302734375
515,,232.793701,0.9326171875
516,,232.7992179,0.927734375
517,,232.8348119,1.0791015625
518,,232.8392143,1.30859375
519,,232.8732556,1.5966796875
520,,232.8938401,1.8701171875
521,,232.8974073,2.12890625
522,,232.9454325,2.333984375
523,,232.9457337,2.490234375
524,,232.9668022,2.5830078125
525,,232.9775964,2.607421875
526,,233.0118748,2.568359375
527,,233.0322537,2.490234375
528,,233.041396,2.392578125
529,,233.0564257,2.2900390625
530,,233.098007,2.2021484375
531,,233.0982979,2.1240234375
532,,233.1284698,2.05078125
533,,233.1394458,1.97265625
534,,233.1895543,1.89453125
535,,233.1902413,1.8017578125
536,,233.2001444,1.71875
537,,233.2154312,1.6357421875
538,,233.2503715,1.552734375
539,,233.271144,1.474609375
540,,233.2770836,1.3916015625
541,,233.3140345,1.3037109375
542,,233.3434338,1.220703125
543,,233.3437291,1.1279296875
544,,233.3586917,1.0400390625
545,,233.3963563,0.9619140625
546,,233.3970494,0.8984375
547,,233.4371586,0.888671875
548,,233.4375696,0.986328125
549,,233.4753306,1.2158203125
550,,233.4757428,1.4892578125
551,,233.5113635,1.77734375
552,,233.5308003,2.0263671875
553,,233.5386186,2.236328125
554,,233.574848,2.3828125
555,,233.5959978,2.5
556,,233.6011632,2.5634765625
557,,233.6168919,2.568359375
558,,233.6524092,2.529296875
559,,233.6722206,2.4462890625
560,,233.6779062,2.353515625
561,,233.7135664,2.2509765625
562,,233.733296,2.1533203125
563,,233.7412353,2.0654296875
564,,233.7785457,1.982421875
565,,233.7791521,1.904296875
566,,233.8153184,1.8310546875
567,,233.8162151,1.7529296875
568,,233.8521197,1.669921875
569,,233.8722934,1.5771484375
570,,233.8799668,1.4794921875
571,,233.9148829,1.376953125
572,,233.9364148,1.2744140625
573,,233.9407322,1.171875
574,,233.9572476,1.064453125
575,,233.9943675,0.9619140625
576,,233.9988966,0.8544921875
577,,234.0367446,0.751953125
578,,234.0373737,0.673828125
579,,234.0851429,0.6591796875
580,,234.0854656,0.78125
581,,234.1137288,1.0546875
582,,234.1158618,1.357421875
583,,234.150097,1.6748046875
584,,234.171404,1.93359375
585,,234.1784728,2.158203125
586,,234.2125854,2.3095703125
587,,234.2336028,2.421875
588,,234.2405083,2.4609375
589,,234.2601499,2.44140625
590,,234.2978222,2.373046875
591,,234.3284551,2.275390625
592,,234.3290647,2.1630859375
593,,234.3380613,2.060546875
594,,234.3751739,1.9580078125
595,,234.3973595,1.865234375
596,,234.397756,1.787109375
597,,234.4327434,1.708984375
598,,234.4669054,1.62109375
599,,234.4676867,1.533203125
600,,234.4824749,1.4501953125
601,,234.4990578,1.3623046875
602,,234.5344687,1.26953125
603,,234.5389338,1.181640625
604,,234.5761488,1.0791015625
605,,234.596437,0.9765625
606,,234.5990509,0.8740234375
607,,234.6338842,0.78125
608,,234.654802,0.6884765625
609,,234.6625106,0.6005859375
610,,234.6784743,0.5419921875
611,,234.6980383,0.6005859375
612,,234.7330919,0.810546875
613,,234.7535095,1.162109375
614,,234.7589638,1.5185546875
615,,234.7945455,1.875
616,,234.8169244,2.1630859375
617,,234.8225241,2.431640625
618,,234.8385895,2.626953125
619,,234.8822709,2.802734375
620,,234.8826329,2.9052734375
621,,234.9032617,2.9296875
622,,234.9216031,2.890625
623,,234.956478,2.8076171875
624,,234.9614363,2.6904296875
625,,234.9961898,2.578125
626,,235.0165061,2.4658203125
627,,235.0213517,2.36328125
628,,235.055558,2.2509765625
629,,235.0760217,2.1533203125
630,,235.0782398,2.0654296875
631,,235.1156692,1.9775390625
632,,235.1337902,1.89453125
633,,235.1408656,1.806640625
634,,235.17429,1.708984375
635,,235.1956799,1.6162109375
636,,235.201816,1.5087890625
637,,235.2357901,1.396484375
638,,235.2680513,1.2841796875
639,,235.268638,1.1767578125
640,,235.2797397,1.064453125
641,,235.3152688,0.9716796875
642,,235.337984,0.927734375
643,,235.3434336,1.0400390625
644,,235.3634109,1.2939453125
645,,235.4045861,1.6259765625
646,,235.4054573,1.943359375
647,,235.4202111,2.265625
648,,235.4552231,2.529296875
649,,235.475783,2.7880859375
650,,235.481866,2.9833984375
651,,235.5251416,3.134765625
652,,235.525497,3.2080078125
653,,235.5434255,3.2080078125
654,,235.5771414,3.1494140625
655,,235.5981078,3.0419921875
656,,235.5984673,2.919921875
657,,235.6360594,2.783203125
658,,235.6667775,2.646484375
659,,235.667131,2.509765625
660,,235.6835933,2.373046875
661,,235.7181025,2.24609375
662,,235.7226902,2.109375
663,,235.7585668,1.982421875
664,,235.7639061,1.8505859375
665,,235.7804472,1.7138671875
666,,235.8153942,1.5869140625
667,,235.8217277,1.4697265625
668,,235.8583542,1.3623046875
669,,235.8604918,1.279296875
670,,235.8971378,1.201171875
671,,235.902128,1.142578125
672,,235.9434276,1.0888671875
673,,235.9439806,1.0498046875
674,,235.9598271,1.0693359375
675,,235.992972,1.220703125
676,,236.0152986,1.4599609375
677,,236.023379,1.7626953125
678,,236.0422694,2.0361328125
679,,236.0779993,2.3095703125
680,,236.0986342,2.5390625
681,,236.1028476,2.7392578125
682,,236.1204466,2.8759765625
683,,236.1554398,2.98828125
684,,236.1764486,3.0224609375
685,,236.1811136,2.9931640625
686,,236.2195791,2.919921875
687,,236.2241028,2.822265625
688,,236.2429766,2.7099609375
689,,236.2790186,2.59765625
690,,236.2841636,2.4951171875
691,,236.2989234,2.3828125
692,,236.3359967,2.275390625
693,,236.341247,2.1630859375
694,,236.3797014,2.0556640625
695,,236.3828891,1.953125
696,,236.4210314,1.85546875
697,,236.4256912,1.7529296875
698,,236.4597746,1.6552734375
699,,236.4657656,1.5673828125
700,,236.4998487,1.4697265625
701,,236.5050583,1.3623046875
702,,236.5211855,1.259765625
703,,236.5593282,1.162109375
704,,236.5911667,1.064453125
705,,236.5916271,0.99609375
706,,236.6048677,0.966796875
707,,236.6239428,1.0595703125
708,,236.6672537,1.2548828125
709,,236.6677028,1.533203125
710,,236.6803604,1.7919921875
711,,236.7153334,2.0458984375
712,,236.7371077,2.24609375
713,,236.7426898,2.412109375
714,,236.7907257,2.5
715,,236.7911847,2.5537109375
716,,236.8058326,2.5341796875
717,,236.8402213,2.4609375
718,,236.8449857,2.353515625
719,,236.8615128,2.2412109375
720,,236.8960999,2.12890625
721,,236.928648,2.0361328125
722,,236.9292297,1.943359375
723,,236.9449555,1.8505859375
724,,236.9635964,1.767578125
725,,237.0078249,1.6796875
726,,237.0081887,1.5869140625
727,,237.0201546,1.4990234375
728,,237.055079,1.416015625
729,,237.0761544,1.3232421875
730,,237.0807166,1.23046875
731,,237.1172375,1.142578125
732,,237.1380857,1.0595703125
733,,237.1434212,0.9765625
734,,237.1782739,0.888671875
735,,237.199778,0.78125
736,,237.204441,0.6689453125
737,,237.2427592,0.546875
738,,237.2434072,0.458984375
739,,237.2638875,0.458984375
740,,237.3021985,0.60546875
741,,237.3026572,0.8935546875
742,,237.3371068,1.1962890625
743,,237.3582874,1.494140625
744,,237.3664019,1.7333984375
745,,237.4018882,1.923828125
746,,237.4024586,2.0458984375
747,,237.4376106,2.12890625
748,,237.4435765,2.1533203125
749,,237.4795323,2.1240234375
750,,237.4843166,2.0654296875
751,,237.5199953,1.9873046875
752,,237.5234279,1.8994140625
753,,237.5609196,1.8115234375
754,,237.5655897,1.73828125
755,,237.5824676,1.66015625
756,,237.6187971,1.5966796875
757,,237.6232911,1.5283203125
758,,237.6593761,1.455078125
759,,237.6892709,1.376953125
760,,237.6896314,1.318359375
761,,237.7056613,1.2548828125
762,,237.7407432,1.1865234375
763,,237.7619089,1.11328125
764,,237.7623347,1.0302734375
765,,237.7992231,0.947265625
766,,237.8019868,0.8642578125
767,,237.8381955,0.771484375
768,,237.843723,0.68359375
769,,237.8647804,0.5859375
770,,237.9001767,0.498046875
771,,237.9045082,0.458984375
772,,237.9394948,0.5419921875
773,,237.9607969,0.80078125
774,,237.9613143,1.11328125
775,,237.996503,1.4453125
776,,238.0185874,1.7138671875
777,,238.025726,1.9287109375
778,,238.0602405,2.0654296875
779,,238.0660369,2.1533203125
780,,238.1023418,2.177734375
781,,238.1356003,2.1484375
782,,238.1359663,2.099609375
783,,238.1432443,2.0263671875
784,,238.1798655,1.9482421875
785,,238.2113038,1.875
786,,238.2118161,1.806640625
787,,238.225685,1.7431640625
788,,238.262058,1.6748046875
789,,238.2662013,1.6162109375
790,,238.2878767,1.5478515625
791,,238.3036507,1.4697265625
792,,238.338331,1.4013671875
793,,238.3432752,1.318359375
794,,238.3768121,1.240234375
795,,238.3979851,1.1669921875
796,,238.4051348,1.0888671875
797,,238.4409339,1.015625
798,,238.4460574,0.9423828125
799,,238.4795695,0.859375
800,,238.5001458,0.771484375
801,,238.5057711,0.6982421875
802,,238.5243159,0.6396484375
803,,238.5692103,0.615234375
804,,238.5703418,0.68359375
805,,238.5865346,0.9423828125
806,,238.6322692,1.2744140625
807,,238.6327281,1.640625
808,,238.6473674,1.943359375
809,,238.6924993,2.2021484375
810,,238.6928655,2.3828125
811,,238.7129776,2.5341796875
812,,238.726411,2.6220703125
813,,238.7616044,2.6318359375
814,,238.7643357,2.5927734375
815,,238.8006934,2.5146484375
816,,238.8207623,2.40234375
817,,238.8250927,2.28515625
818,,238.8608152,2.1728515625
819,,238.8802375,2.08984375
820,,238.8849699,2.0263671875
821,,238.9045004,1.9677734375
822,,238.9392286,1.923828125
823,,238.9600751,1.8798828125
824,,238.965741,1.8408203125
825,,239.0018108,1.806640625
826,,239.0098953,1.77734375
827,,239.0289664,1.73828125
828,,239.0434393,1.689453125
829,,239.0791165,1.640625
830,,239.0989407,1.5771484375
831,,239.104864,1.513671875
832,,239.1401503,1.4306640625
833,,239.1607301,1.34765625
834,,239.1690853,1.25
835,,239.1886475,1.171875
836,,239.2025134,1.181640625
837,,239.238562,1.376953125
838,,239.2679563,1.6455078125
839,,239.2685439,1.953125
840,,239.2870242,2.2216796875
841,,239.3284439,2.48046875
842,,239.3288099,2.6953125
843,,239.3490228,2.8857421875
844,,239.3904874,3.0078125
845,,239.3909968,3.0615234375
846,,239.4083334,3.0615234375
847,,239.4236792,3.0078125
848,,239.4574905,2.919921875
849,,239.4791033,2.8173828125
850,,239.4869108,2.7001953125
851,,239.5305733,2.5732421875
852,,239.5309242,2.4560546875
853,,239.5493276,2.3388671875
854,,239.5919421,2.2265625
855,,239.5923702,2.12890625
856,,239.6061873,2.0556640625
857,,239.6534975,1.9775390625
858,,239.6538485,1.904296875
859,,239.6670216,1.8359375
860,,239.7022755,1.767578125
861,,239.7068351,1.69921875
862,,239.7483539,1.6259765625
863,,239.748798,1.5478515625
864,,239.7653661,1.455078125
865,,239.8110787,1.3671875
866,,239.811539,1.279296875
867,,239.8407948,1.2060546875
868,,239.8472906,1.201171875
869,,239.887688,1.3427734375
870,,239.8880769,1.5673828125
871,,239.9340529,1.845703125
872,,239.9343479,2.0947265625
873,,239.9449502,2.3486328125
874,,239.9807427,2.5439453125
875,,240.0008808,2.7197265625
876,,240.0057278,2.8466796875
877,,240.0443405,2.900390625
878,,240.0473854,2.9052734375
879,,240.0815168,2.861328125
880,,240.1029134,2.783203125
881,,240.1097092,2.685546875
882,,240.148303,2.5927734375
883,,240.1486784,2.4951171875
884,,240.1836167,2.3974609375
885,,240.1864456,2.2998046875
886,,240.2231446,2.1875
887,,240.227761,2.08984375
888,,240.2623957,1.9873046875
889,,240.2827452,1.884765625
890,,240.2900822,1.7822265625
891,,240.3102315,1.6845703125
892,,240.3274236,1.58203125
893,,240.3646328,1.474609375
894,,240.365156,1.357421875
895,,240.4000443,1.2353515625
896,,240.4213006,1.11328125
897,,240.4283324,1.005859375
898,,240.4743191,0.908203125
899,,240.4751229,0.830078125
900,,240.4932775,0.80078125
901,,240.5091941,0.9326171875
902,,240.5275177,1.181640625
903,,240.5627238,1.5185546875
904,,240.5685227,1.8212890625
905,,240.6048687,2.109375
906,,240.6090331,2.32421875
907,,240.643526,2.5048828125
908,,240.6640054,2.6220703125
909,,240.6644812,2.6513671875
910,,240.7009497,2.6220703125
911,,240.7218529,2.5390625
912,,240.7292478,2.421875
913,,240.7639018,2.3095703125
914,,240.769251,2.20703125
915,,240.8055179,2.12890625
916,,240.8100031,2.060546875
917,,240.8436044,2.001953125
918,,240.863919,1.9482421875
919,,240.866146,1.8896484375
920,,240.9019585,1.8505859375
921,,240.9068222,1.8115234375
922,,240.9423689,1.77734375
923,,240.9687866,1.7431640625
924,,240.9691569,1.708984375
925,,241.0043857,1.669921875
926,,241.0091551,1.6357421875
927,,241.0444074,1.5966796875
928,,241.0639982,1.54296875
929,,241.0673198,1.4892578125
930,,241.1044523,1.4306640625
931,,241.1069584,1.357421875
932,,241.1424897,1.298828125
933,,241.1631089,1.328125
934,,241.1710478,1.474609375
935,,241.2077237,1.7041015625
936,,241.2084555,1.93359375
937,,241.2463444,2.1533203125
938,,241.246648,2.32421875
939,,241.2912663,2.4609375
940,,241.2916244,2.5390625
941,,241.3115169,2.55859375
942,,241.3303213,2.5390625
943,,241.3653964,2.470703125
944,,241.385227,2.3779296875
945,,241.3855862,2.275390625
946,,241.4219344,2.1875
947,,241.4431676,2.1142578125
948,,241.4482359,2.0556640625
949,,241.4835482,1.9970703125
950,,241.5038793,1.9189453125
951,,241.5098906,1.8310546875
952,,241.5459007,1.7431640625
953,,241.5510897,1.6455078125
954,,241.587377,1.5625
955,,241.5902425,1.494140625
956,,241.6359345,1.4306640625
957,,241.6362916,1.3623046875
958,,241.6476787,1.2890625
959,,241.6836917,1.201171875
960,,241.7127649,1.0986328125
961,,241.7131189,0.9814453125
962,,241.7313289,0.8642578125
963,,241.7662107,0.751953125
964,,241.7668001,0.6640625
965,,241.805583,0.68359375
966,,241.8263284,0.849609375
967,,241.8269122,1.162109375
968,,241.8680747,1.484375
969,,241.8999632,1.7919921875
970,,241.9005494,2.0166015625
971,,241.9114084,2.2021484375
972,,241.9612623,2.3193359375
973,,241.9618074,2.373046875
974,,241.9912291,2.3876953125
975,,241.9915917,2.34375
976,,242.0091504,2.2705078125
977,,242.0454206,2.197265625
978,,242.0705854,2.1484375
979,,242.0711062,2.119140625
980,,242.1073742,2.1044921875
981,,242.1079556,2.080078125
982,,242.1431952,2.05078125
983,,242.1642586,1.9921875
984,,242.1699046,1.9287109375
985,,242.2101304,1.85546875
986,,242.210583,1.77734375
987,,242.2562778,1.6943359375
988,,242.2566655,1.6064453125
989,,242.2773135,1.5234375
990,,242.2932658,1.4501953125
991,,242.3123493,1.3720703125
992,,242.3288766,1.2939453125
993,,242.3630013,1.2060546875
994,,242.3839386,1.11328125
995,,242.3920734,1.0107421875
996,,242.4121199,0.9130859375
997,,242.4479511,0.8642578125
998,,242.4508499,0.9326171875
999,,242.4848432,1.142578125
1000,,242.5054103,1.416015625
1001,,242.509844,1.708984375
1002,,242.5520837,1.953125
1003,,242.5524796,2.16796875
1004,,242.58774,2.3291015625
1005,,242.5910203,2.412109375
1006,,242.6122216,2.4560546875
1007,,242.6465824,2.4365234375
1008,,242.6683117,2.3876953125
1009,,242.6689481,2.314453125
1010,,242.7075715,2.2412109375
1011,,242.7110727,2.16796875
1012,,242.7313392,2.0947265625
1013,,242.7705877,2.021484375
1014,,242.7709532,1.943359375
1015,,242.8058389,1.865234375
1016,,242.8254282,1.7919921875
1017,,242.8278826,1.7041015625
1018,,242.84795,1.62109375
1019,,242.8837332,1.5283203125
1020,,242.9053778,1.4404296875
1021,,242.9123807,1.3427734375
1022,,242.9318468,1.2548828125
1023,,242.9679649,1.162109375
1024,,242.9730079,1.07421875
1025,,243.0105891,0.9765625
1026,,243.0110582,0.87890625
1027,,243.0475576,0.7763671875
1028,,243.0678663,0.6689453125
1029,,243.0701871,0.6201171875
1030,,243.1065476,0.693359375
1031,,243.111834,0.9423828125
1032,,243.1488063,1.26953125
1033,,243.1517937,1.62109375
1034,,243.1891802,1.9091796875
1035,,243.1921575,2.1484375
1036,,243.2341454,2.32421875
1037,,243.2345329,2.421875
1038,,243.2502991,2.470703125
1039,,243.2859088,2.4560546875
1040,,243.3107998,2.4072265625
1041,,243.3111656,2.3291015625
1042,,243.3462722,2.236328125
1043,,243.3734637,2.138671875
1044,,243.3738341,2.0458984375
1045,,243.3895579,1.962890625
1046,,243.4375739,1.8896484375
1047,,243.4379493,1.8212890625
1048,,243.4567246,1.7529296875
1049,,243.4747075,1.689453125
1050,,243.4935621,1.630859375
1051,,243.5140032,1.572265625
1052,,243.5500043,1.513671875
1053,,243.5529591,1.4697265625
1054,,243.5706965,1.42578125
1055,,243.6062599,1.3916015625
1056,,243.6115792,1.34765625
1057,,243.6470583,1.30859375
1058,,243.6521851,1.259765625
1059,,243.6884908,1.2060546875
1060,,243.6925248,1.1474609375
1061,,243.728182,1.1328125
1062,,243.7338308,1.2060546875
1063,,243.7677946,1.435546875
1064,,243.7882557,1.7041015625
1065,,243.7886808,2.01171875
1066,,243.8233279,2.255859375
1067,,243.8566343,2.4853515625
1068,,243.8572101,2.6708984375
1069,,243.8749017,2.802734375
1070,,243.9175755,2.890625
1071,,243.918147,2.9248046875
1072,,243.9350145,2.9150390625
1073,,243.9518216,2.8662109375
1074,,243.9949111,2.8076171875
1075,,243.9952076,2.7392578125
1076,,244.0134454,2.666015625
1077,,244.0561968,2.5830078125
1078,,244.0565484,2.5
1079,,244.0748854,2.4169921875
1080,,244.1086112,2.333984375
1081,,244.1119358,2.24609375
1082,,244.1491177,2.16796875
1083,,244.1528298,2.0947265625
1084,,244.1887335,2.01171875
1085,,244.1912702,1.93359375
1086,,244.2279127,1.8505859375
1087,,244.2474796,1.767578125
1088,,244.2560843,1.6748046875
1089,,244.2762809,1.5673828125
1090,,244.2919668,1.4453125
1091,,244.3260412,1.328125
1092,,244.3310196,1.2255859375
1093,,244.367916,1.19140625
1094,,244.3964495,1.2890625
1095,,244.397052,1.54296875
1096,,244.4135956,1.8359375
1097,,244.448507,2.1533203125
1098,,244.4695526,2.4267578125
1099,,244.475141,2.705078125
1100,,244.5083716,2.9443359375
1101,,244.5293083,3.115234375
1102,,244.5333865,3.2470703125
1103,,244.5706076,3.30078125
1104,,244.5752336,3.30078125
1105,,244.5950969,3.2421875
1106,,244.6302511,3.14453125
1107,,244.6353241,3.0322265625
1108,,244.6776597,2.900390625
1109,,244.6780705,2.7734375
1110,,244.7097591,2.6513671875
1111,,244.7103389,2.529296875
1112,,244.7550615,2.4072265625
1113,,244.7554444,2.2802734375
1114,,244.7862634,2.1533203125
1115,,244.7959791,2.041015625
1116,,244.8311489,1.9287109375
1117,,244.834313,1.8212890625
1118,,244.8536354,1.71875
1119,,244.8945571,1.6357421875
1120,,244.8949141,1.5380859375
1121,,244.9142199,1.435546875
1122,,244.9483753,1.328125
1123,,244.9532256,1.2255859375
1124,,244.9887672,1.1279296875
1125,,245.009606,1.0986328125
1126,,245.0133306,1.19140625
1127,,245.0347272,1.4453125
1128,,245.0531514,1.7333984375
1129,,245.0894099,2.0458984375
1130,,245.0919859,2.3193359375
1131,,245.1268422,2.5732421875
1132,,245.1467171,2.79296875
1133,,245.1543124,2.939453125
1134,,245.1897687,3.0322265625
1135,,245.2086659,3.056640625
1136,,245.2177128,3.017578125
1137,,245.2325134,2.9296875
1138,,245.2678949,2.822265625
1139,,245.2879454,2.7001953125
1140,,245.2934354,2.5732421875
1141,,245.3337969,2.451171875
1142,,245.3341587,2.3291015625
1143,,245.3707543,2.216796875
1144,,245.3915736,2.109375
1145,,245.3922284,2.0068359375
1146,,245.4422625,1.9140625
1147,,245.4426903,1.8212890625
1148,,245.4717462,1.7236328125
1149,,245.4745033,1.630859375
1150,,245.51198,1.5283203125
1151,,245.5176428,1.416015625
1152,,245.5362407,1.30859375
1153,,245.5717731,1.1865234375
1154,,245.5721242,1.064453125
1155,,245.5930008,0.9521484375
1156,,245.6289673,0.83984375
1157,,245.6496812,0.771484375
1158,,245.655214,0.8251953125
1159,,245.6914769,1.0595703125
1160,,245.6958397,1.3671875
1161,,245.7312849,1.708984375
1162,,245.7318573,2.0068359375
1163,,245.7689673,2.2900390625
1164,,245.7968088,2.5146484375
1165,,245.7971681,2.67578125
1166,,245.8138131,2.79296875
1167,,245.8498579,2.83203125
1168,,245.8771822,2.822265625
1169,,245.8775532,2.763671875
1170,,245.9128056,2.67578125
1171,,245.9160692,2.578125
1172,,245.9535983,2.4609375
1173,,245.9541714,2.3486328125
1174,,245.983916,2.2314453125
1175,,245.9946658,2.12890625
1176,,246.0291755,2.0361328125
1177,,246.0342731,1.9482421875
1178,,246.0680548,1.875
1179,,246.08911,1.8017578125
1180,,246.0989379,1.728515625
1181,,246.1183498,1.6552734375
1182,,246.1356327,1.58203125
1183,,246.1708128,1.5234375
1184,,246.1753313,1.4599609375
1185,,246.1969411,1.4013671875
1186,,246.2164503,1.3525390625
1187,,246.265291,1.318359375
1188,,246.2656463,1.30859375
1189,,246.2782234,1.3671875
1190,,246.2940236,1.5234375
1191,,246.3281163,1.787109375
1192,,246.3490624,2.0751953125
1193,,246.3549435,2.3974609375
1194,,246.3934821,2.7001953125
1195,,246.3960373,3.0224609375
1196,,246.4181287,3.2861328125
1197,,246.4679208,3.4765625
1198,,246.468557,3.61328125
1199,,246.473447,3.671875
1200,,246.5123867,3.671875
1201,,246.5333061,3.6181640625
1202,,246.5359144,3.5205078125
1203,,246.5713074,3.4033203125
1204,,246.5767286,3.26171875
1205,,246.6115329,3.1103515625
1206,,246.6166268,2.94921875
1207,,246.6519801,2.7880859375
1208,,246.6726548,2.6220703125
1209,,246.675806,2.4560546875
1210,,246.6955,2.2900390625
1211,,246.7310841,2.1240234375
1212,,246.7612491,1.9775390625
1213,,246.7617088,1.8310546875
1214,,246.7761524,1.689453125
1215,,246.8097979,1.552734375
1216,,246.831536,1.40625
1217,,246.8396546,1.2548828125
1218,,246.8559762,1.103515625
1219,,246.8905771,0.9716796875
1220,,246.8960737,0.849609375
1221,,246.9465404,0.791015625
1222,,246.9471821,0.849609375
1223,,246.9587876,1.064453125
1224,,246.9952312,1.3427734375
1225,,246.9981724,1.640625
1226,,247.0153675,1.8994140625
1227,,247.0540219,2.138671875
1228,,247.0545325,2.32421875
1229,,247.1009639,2.44140625
1230,,247.1012632,2.509765625
1231,,247.117696,2.5244140625
1232,,247.1619622,2.4853515625
1233,,247.1625348,2.40234375
1234,,247.1781902,2.2998046875
1235,,247.19519,2.1923828125
1236,,247.2302497,2.1044921875
1237,,247.2347701,2.01171875
1238,,247.2715436,1.9287109375
1239,,247.2756934,1.8408203125
1240,,247.3183118,1.7626953125
1241,,247.3186655,1.669921875
1242,,247.3372299,1.5771484375
1243,,247.3735952,1.484375
1244,,247.379379,1.38671875
1245,,247.3994772,1.2890625
1246,,247.4160356,1.1962890625
1247,,247.4513967,1.1083984375
1248,,247.457728,1.015625
1249,,247.4941513,0.9130859375
1250,,247.497097,0.810546875
1251,,247.5352223,0.7080078125
1252,,247.5404411,0.625
1253,,247.5804685,0.5859375
1254,,247.5810358,0.654296875
1255,,247.5970363,0.8935546875
1256,,247.633396,1.201171875
1257,,247.6387739,1.5380859375
1258,,247.6751229,1.826171875
1259,,247.6791275,2.08984375
1260,,247.699551,2.2998046875
1261,,247.7355706,2.4365234375
1262,,247.7385527,2.51953125
1263,,247.7548176,2.548828125
1264,,247.7990516,2.5244140625
1265,,247.7994052,2.4560546875
1266,,247.8293122,2.3681640625
1267,,247.8385023,2.265625
1268,,247.8560809,2.158203125
1269,,247.9074226,2.0703125
1270,,247.907772,1.9873046875
1271,,247.9371356,1.904296875
1272,,247.9376261,1.826171875
1273,,247.9584634,1.73828125
1274,,247.9931318,1.6455078125
1275,,247.9975661,1.552734375
1276,,248.0345425,1.455078125
1277,,248.0399129,1.357421875
1278,,248.0750837,1.2646484375
1279,,248.080586,1.1669921875
1280,,248.1165434,1.064453125
1281,,248.1191926,0.9619140625
1282,,248.1362516,0.8544921875
1283,,248.1737475,0.76171875
1284,,248.1792294,0.6640625
1285,,248.2147179,0.6103515625
1286,,248.2186681,0.6689453125
1287,,248.2517919,0.9033203125
1288,,248.2733007,1.2109375
1289,,248.2804308,1.5576171875
1290,,248.2961353,1.8505859375
1291,,248.3301891,2.119140625
1292,,248.3508603,2.3291015625
1293,,248.3595135,2.4658203125
1294,,248.393672,2.548828125
1295,,248.3988402,2.568359375
1296,,248.4369046,2.5341796875
1297,,248.4398991,2.4658203125
1298,,248.4759434,2.3779296875
1299,,248.4765311,2.2802734375
1300,,248.5124733,2.1826171875
1301,,248.518436,2.1044921875
1302,,248.5669251,2.0263671875
1303,,248.5678297,1.9482421875
1304,,248.5812822,1.8701171875
1305,,248.6279689,1.787109375
1306,,248.628432,1.6943359375
1307,,248.6406737,1.6015625
1308,,248.6572371,1.50390625
1309,,248.7054807,1.4111328125
1310,,248.705857,1.3134765625
1311,,248.718737,1.2158203125
1312,,248.7542718,1.11328125
1313,,248.7831126,1.0107421875
1314,,248.7836814,0.9033203125
1315,,248.8001324,0.8056640625
1316,,248.8361552,0.703125
1317,,248.8410245,0.634765625
1318,,248.8563282,0.6494140625
1319,,248.8922417,0.83984375
1320,,248.9213394,1.1279296875
1321,,248.9219055,1.484375
1322,,248.9545518,1.796875
1323,,248.9837468,2.0849609375
1324,,248.9841075,2.314453125
1325,,249.0004667,2.470703125
1326,,249.0479442,2.5830078125
1327,,249.0484041,2.6318359375
1328,,249.0602223,2.6318359375
1329,,249.0945529,2.5830078125
1330,,249.1003659,2.5
1331,,249.1396531,2.40234375
1332,,249.1401387,2.294921875
1333,,249.1761948,2.197265625
1334,,249.1807262,2.1142578125
1335,,249.1964612,2.041015625
1336,,249.2325957,1.97265625
1337,,249.2538498,1.89453125
1338,,249.2590019,1.81640625
1339,,249.2802991,1.728515625
1340,,249.2995557,1.6357421875
1341,,249.3354239,1.5478515625
1342,,249.3564349,1.455078125
1343,,249.3613156,1.3720703125
1344,,249.3778192,1.2744140625
1345,,249.3993211,1.1865234375
1346,,249.4337457,1.0888671875
1347,,249.4386937,1.0009765625
1348,,249.4741312,0.9033203125
1349,,249.4962775,0.8251953125
1350,,249.5022415,0.80078125
1351,,249.5220215,0.927734375
1352,,249.5429678,1.181640625
1353,,249.5786958,1.513671875
1354,,249.5796883,1.81640625
1355,,249.5987461,2.109375
1356,,249.6339631,2.3486328125
1357,,249.6673876,2.5146484375
1358,,249.6679027,2.6513671875
1359,,249.6820664,2.7197265625
1360,,249.719361,2.7294921875
1361,,249.7222505,2.6953125
1362,,249.7420689,2.626953125
1363,,249.7582984,2.5341796875
1364,,249.7932735,2.4365234375
1365,,249.8137172,2.3388671875
1366,,249.8193827,2.24609375
1367,,249.8560351,2.158203125
1368,,249.8613633,2.0849609375
1369,,249.8967855,2.0068359375
1370,,249.9026165,1.9287109375
1371,,249.9379758,1.845703125
1372,,249.9383294,1.7529296875
1373,,249.9810875,1.6650390625
1374,,249.9815948,1.572265625
1375,,250.0030371,1.4697265625
1376,,250.0208583,1.3623046875
1377,,250.0571713,1.2353515625
1378,,250.061964,1.1083984375
1379,,250.1026672,0.9765625
1380,,250.1032409,0.849609375
1381,,250.1204931,0.7373046875
1382,,250.1405348,0.6884765625
1383,,250.180496,0.7861328125
1384,,250.1808887,1.0302734375
1385,,250.2166827,1.3818359375
1386,,250.2360232,1.7138671875
1387,,250.2410627,2.0361328125
1388,,250.2795824,2.3046875
1389,,250.2825978,2.4951171875
1390,,250.3177636,2.65625
1391,,250.3402894,2.7490234375
1392,,250.340859,2.7978515625
1393,,250.3746958,2.7783203125
1394,,250.3964206,2.7099609375
1395,,250.4036622,2.607421875
1396,,250.4382314,2.4951171875
1397,,250.4432773,2.3876953125
1398,,250.4783384,2.2705078125
1399,,250.4787984,2.16796875
1400,,250.5213905,2.0849609375
1401,,250.5218521,2.001953125
1402,,250.5524948,1.9091796875
1403,,250.5616892,1.81640625
1404,,250.6121081,1.71875
1405,,250.6127306,1.611328125
1406,,250.6227455,1.5087890625
1407,,250.674146,1.396484375
1408,,250.6747123,1.279296875
1409,,250.6803724,1.1669921875
1410,,250.7204218,1.0546875
1411,,250.7207892,0.9423828125
1412,,250.7558398,0.8349609375
1413,,250.7827896,0.7421875
1414,,250.7831529,0.6787109375
1415,,250.8195488,0.72265625
1416,,250.8200735,0.91796875
1417,,250.8407506,1.2548828125
1418,,250.8758294,1.6064453125
1419,,250.8800908,1.9482421875
1420,,250.9155308,2.236328125
1421,,250.9362155,2.451171875
1422,,250.9419258,2.63671875
1423,,250.9766985,2.7490234375
1424,,250.9968125,2.802734375
1425,,251.0018047,2.7880859375
1426,,251.0367781,2.7294921875
1427,,251.0579576,2.63671875
1428,,251.0586722,2.5341796875
1429,,251.0984704,2.421875
1430,,251.117669,2.314453125
1431,,251.1231372,2.216796875
1432,,251.1597652,2.1240234375
1433,,251.1623811,2.0361328125
1434,,251.1975685,1.9482421875
1435,,251.2184533,1.865234375
1436,,251.2188494,1.7724609375
1437,,251.2617782,1.6845703125
1438,,251.2621268,1.5966796875
1439,,251.2823123,1.5087890625
1440,,251.3233998,1.4111328125
1441,,251.3238345,1.3134765625
1442,,251.3429452,1.2109375
1443,,251.3800683,1.1083984375
1444,,251.3806513,1.0107421875
1445,,251.4002353,0.927734375
1446,,251.422597,0.8447265625
1447,,251.457811,0.80078125
1448,,251.4628803,0.859375
1449,,251.496145,1.0791015625
1450,,251.5169789,1.376953125
1451,,251.5249754,1.7138671875
1452,,251.5598813,2.01171875
1453,,251.5602299,2.2412109375
1454,,251.6036414,2.4365234375
1455,,251.6042124,2.5634765625
1456,,251.6240014,2.6416015625
1457,,251.6418261,2.6513671875
1458,,251.6776825,2.6171875
1459,,251.698025,2.5439453125
1460,,251.7028393,2.451171875
1461,,251.7399201,2.353515625
1462,,251.7601818,2.2607421875
1463,,251.7605507,2.16796875
1464,,251.795323,2.099609375
1465,,251.815681,2.0263671875
1466,,251.8243918,1.953125
1467,,251.8679651,1.875
1468,,251.8685362,1.7919921875
1469,,251.8836505,1.7041015625
1470,,251.9166104,1.62109375
1471,,251.9375962,1.533203125
1472,,251.9425955,1.4404296875
1473,,251.993414,1.34765625
1474,,251.9940136,1.2451171875
1475,,252.0031354,1.1376953125
1476,,252.0400338,1.0302734375
1477,,252.0444382,0.9130859375
1478,,252.0654255,0.8056640625
1479,,252.0864061,0.7080078125
1480,,252.1009611,0.6787109375
1481,,252.1511891,0.7958984375
1482,,252.1517585,1.044921875
1483,,252.1817517,1.3818359375
1484,,252.1823253,1.7138671875
1485,,252.2180919,1.97265625
1486,,252.2390819,2.1923828125
1487,,252.2445915,2.333984375
1488,,252.2900525,2.4267578125
1489,,252.2906252,2.451171875
1490,,252.3037254,2.4365234375
1491,,252.3397359,2.3681640625
1492,,252.3444113,2.2802734375
1493,,252.3646518,2.177734375
1494,,252.4138343,2.0849609375
1495,,252.4141858,2.001953125
1496,,252.4265788,1.923828125
1497,,252.475737,1.8505859375
1498,,252.4761043,1.77734375
1499,,252.4871451,1.708984375
1500,,252.503235,1.6357421875
1501,,252.5390893,1.5576171875
1502,,252.570105,1.4697265625
1503,,252.5706746,1.38671875
1504,,252.6024542,1.2939453125
1505,,252.6075925,1.1962890625
1506,,252.625986,1.0986328125
1507,,252.6624615,1.0009765625
1508,,252.6630748,0.8984375
1509,,252.7023268,0.80078125
1510,,252.7026936,0.703125
1511,,252.7395614,0.6103515625
1512,,252.7445554,0.537109375
1513,,252.7656515,0.5517578125
1514,,252.7996514,0.72265625
1515,,252.8205714,1.044921875
1516,,252.8273596,1.42578125
1517,,252.8444531,1.7578125
1518,,252.878143,2.05078125
1519,,252.885343,2.265625
1520,,252.9260955,2.421875
1521,,252.9264523,2.509765625
1522,,252.94611,2.548828125
1523,,252.9669936,2.5244140625
1524,,253.002644,2.470703125
1525,,253.0033418,2.392578125
1526,,253.0372326,2.314453125
1527,,253.0579636,2.2314453125
1528,,253.0636591,2.158203125
1529,,253.0849168,2.0947265625
1530,,253.1055061,2.03125
1531,,253.1249086,1.97265625
1532,,253.1598275,1.904296875
1533,,253.1796636,1.8310546875
1534,,253.1870531,1.7529296875
1535,,253.2209596,1.669921875
1536,,253.2418094,1.58203125
1537,,253.2457797,1.494140625
1538,,253.2836954,1.40625
1539,,253.284423,1.30859375
1540,,253.3299364,1.2109375
1541,,253.3302992,1.11328125
1542,,253.347697,1.0107421875
1543,,253.3665846,0.9033203125
1544,,253.3996428,0.8203125
1545,,253.4023661,0.7958984375
1546,,253.4390114,0.908203125
1547,,253.4588095,1.1865234375
1548,,253.4656465,1.54296875
1549,,253.5015969,1.8798828125
1550,,253.5065832,2.197265625
1551,,253.5491185,2.451171875
1552,,253.5494749,2.666015625
1553,,253.5646389,2.8173828125
1554,,253.5993947,2.9345703125
1555,,253.6047892,2.9736328125
1556,,253.6408639,2.94921875
1557,,253.6720036,2.890625
1558,,253.6723939,2.7978515625
1559,,253.688541,2.6953125
1560,,253.7351156,2.5927734375
1561,,253.7355776,2.4951171875
1562,,253.7445674,2.40234375
1563,,253.7789782,2.3095703125
1564,,253.7840685,2.20703125
1565,,253.8194402,2.1044921875
1566,,253.839973,2.001953125
1567,,253.847749,1.89453125
1568,,253.8808781,1.7822265625
1569,,253.8884852,1.6748046875
1570,,253.9225285,1.5673828125
1571,,253.9281995,1.455078125
1572,,253.9450978,1.337890625
1573,,253.9792535,1.2255859375
1574,,253.9998609,1.1181640625
1575,,254.0048392,1.015625
1576,,254.0391586,0.927734375
1577,,254.0589617,0.869140625
1578,,254.06807450000002,0.9033203125
1579,,254.0881066,1.1083984375
1580,,254.12378159999997,1.4306640625
1581,,254.1242444,1.7626953125
1582,,254.1440824,2.1044921875
1583,,254.1850147,2.3828125
1584,,254.18734009999997,2.626953125
1585,,254.20654560000003,2.8125
1586,,254.24716339999998,2.9541015625
1587,,254.2477257,3.0224609375
1588,,254.29345740000002,3.0322265625
1589,,254.29403309999998,2.98828125
1590,,254.30586490000002,2.91015625
1591,,254.3563264,2.8125
1592,,254.3567193,2.7001953125
1593,,254.3677288,2.6025390625
1594,,254.40341310000002,2.5
1595,,254.4060058,2.4072265625
1596,,254.4419117,2.314453125
1597,,254.4621191,2.2216796875
1598,,254.46424109999998,2.12890625
1599,,254.50025929999998,2.0458984375
1600,,254.52072529999998,1.9580078125
1601,,254.5274723,1.865234375
1602,,254.574837,1.77734375
1603,,254.57523629999997,1.6943359375
1604,,254.5866332,1.611328125
1605,,254.62230140000003,1.533203125
1606,,254.6293582,1.4501953125
1607,,254.6657063,1.3623046875
1608,,254.66685439999998,1.279296875
1609,,254.70366769999998,1.2109375
1610,,254.7313681,1.15234375
1611,,254.73193700000002,1.1865234375
1612,,254.7474777,1.3623046875
1613,,254.78162229999998,1.6162109375
1614,,254.8023453,1.9140625
1615,,254.80855780000002,2.1826171875
1616,,254.82881809999998,2.4267578125
1617,,254.8454135,2.6171875
1618,,254.88307079999998,2.7880859375
1619,,254.88597950000002,2.8857421875
1620,,254.9220234,2.9248046875
1621,,254.9429755,2.900390625
1622,,254.947904,2.8271484375
1623,,254.98213019999997,2.724609375
1624,,255.003042,2.6220703125
1625,,255.00594410000002,2.51953125
1626,,255.03949269999998,2.421875
1627,,255.0602586,2.3291015625
1628,,255.06863909999998,2.2412109375
1629,,255.104919,2.1484375
1630,,255.10965829999998,2.0654296875
1631,,255.1452081,1.97265625
1632,,255.1485477,1.875
1633,,255.18406499999998,1.77734375
1634,,255.18463889999998,1.6748046875
1635,,255.2289526,1.58203125
1636,,255.22950100000003,1.484375
1637,,255.24669870000002,1.38671875
1638,,255.28378959999998,1.2841796875
1639,,255.28855700000003,1.1865234375
1640,,255.32660959999998,1.0888671875
1641,,255.3271792,1.0009765625
1642,,255.36802740000002,0.91796875
1643,,255.36848629999997,0.888671875
1644,,255.404024,0.966796875
1645,,255.4250449,1.171875
1646,,255.42561819999997,1.484375
1647,,255.4621917,1.787109375
1648,,255.49263910000002,2.0751953125
1649,,255.49305959999998,2.294921875
1650,,255.51081950000003,2.4755859375
1651,,255.55486380000002,2.5830078125
1652,,255.55546629999998,2.646484375
1653,,255.56671169999998,2.6416015625
1654,,255.6028076,2.587890625
1655,,255.60575790000001,2.5
1656,,255.64159990000002,2.392578125
1657,,255.6623295,2.2802734375
1658,,255.6699236,2.16796875
1659,,255.6889046,2.0751953125
1660,,255.7235194,1.9873046875
1661,,255.74487420000003,1.8994140625
1662,,255.7471039,1.8115234375
1663,,255.7840084,1.728515625
1664,,255.78622940000002,1.6455078125
1665,,255.82252469999997,1.552734375
1666,,255.84330060000002,1.4599609375
1667,,255.84808579999998,1.3623046875
1668,,255.881533,1.2744140625
1669,,255.9024505,1.1767578125
1670,,255.90536459999998,1.0791015625
1671,,255.9421886,0.9765625
1672,,255.94801339999998,0.8837890625
1673,,255.98422599999998,0.7861328125
1674,,255.9876744,0.703125
1675,,256.0347629,0.6396484375
1676,,256.0351127,0.6640625
1677,,256.050164,0.8251953125
1678,,256.0862554,1.1181640625
1679,,256.0890101,1.4453125
1680,,256.1243814,1.7822265625
1681,,256.1571905,2.041015625
1682,,256.1576189,2.2705078125
1683,,256.1678365,2.421875
1684,,256.20256,2.5244140625
1685,,256.223037,2.568359375
1686,,256.2283208,2.5537109375
1687,,256.2626171,2.490234375
1688,,256.2831842,2.40234375
1689,,256.2880072,2.2998046875
1690,,256.33887,2.197265625
1691,,256.3392334,2.109375
1692,,256.3495378,2.03125
1693,,256.3861083,1.9482421875
1694,,256.3906858,1.875
1695,,256.4269908,1.806640625
1696,,256.4296101,1.7333984375
1697,,256.4655024,1.66015625
1698,,256.4686238,1.58203125
1699,,256.5059326,1.5087890625
1700,,256.5087978,1.4306640625
1701,,256.5567099,1.34765625
1702,,256.5570729,1.259765625
1703,,256.5700903,1.171875
1704,,256.6063671,1.0791015625
1705,,256.6115757,0.9814453125
1706,,256.6269066,0.888671875
1707,,256.661003,0.830078125
1708,,256.6822452,0.8154296875
1709,,256.6872395,0.91796875
1710,,256.7239024,1.181640625
1711,,256.744529,1.4990234375
1712,,256.750665,1.85546875
1713,,256.7871773,2.158203125
1714,,256.7903521,2.4365234375
1715,,256.8280005,2.65625
1716,,256.8327865,2.8369140625
1717,,256.848433,2.9541015625
1718,,256.8842264,3.017578125
1719,,256.889733,3.017578125
1720,,256.9403393,2.9736328125
1721,,256.9406934,2.890625
1722,,256.9525473,2.79296875
1723,,256.9872995,2.6953125
1724,,256.9904055,2.5927734375
1725,,257.028828,2.4853515625
1726,,257.0293961,2.3876953125
1727,,257.0647766,2.2900390625
1728,,257.0695233,2.1875
1729,,257.0907139,2.08984375
1730,,257.1248164,1.9921875
1731,,257.1456608,1.8896484375
1732,,257.1504487,1.796875
1733,,257.1856691,1.69921875
1734,,257.2062028,1.6015625
1735,,257.2091425,1.50390625
1736,,257.244931,1.40625
1737,,257.2497774,1.298828125
1738,,257.2866391,1.201171875
1739,,257.2916647,1.1083984375
1740,,257.3269248,1.044921875
1741,,257.3329693,1.0693359375
1742,,257.369604,1.25
1743,,257.3702914,1.5185546875
1744,,257.3902031,1.845703125
1745,,257.437421,2.1435546875
1746,,257.4377799,2.431640625
1747,,257.4581563,2.6611328125
1748,,257.4709206,2.8662109375
1749,,257.5067161,3.0029296875
1750,,257.527984,3.0908203125
1751,,257.5308016,3.1103515625
1752,,257.5689973,3.076171875
1753,,257.5696358,2.9931640625
1754,,257.6053147,2.890625
1755,,257.6108264,2.7783203125
1756,,257.6448611,2.6611328125
1757,,257.6711587,2.548828125
1758,,257.6717285,2.4365234375
1759,,257.7078735,2.3291015625
1760,,257.7122922,2.2119140625
1761,,257.7496008,2.1044921875
1762,,257.7501287,2.001953125
1763,,257.7945342,1.9091796875
1764,,257.7951306,1.8115234375
1765,,257.8107179,1.7138671875
1766,,257.8486588,1.6162109375
1767,,257.8517294,1.513671875
1768,,257.887097,1.416015625
1769,,257.9075781,1.3037109375
1770,,257.9079419,1.19140625
1771,,257.9443034,1.0986328125
1772,,257.966356,1.005859375
1773,,257.9709718,0.947265625
1774,,258.006695,1.005859375
1775,,258.012354,1.19140625
1776,,258.0476172,1.4892578125
1777,,258.052848,1.7822265625
1778,,258.1038584,2.0751953125
1779,,258.1042104,2.314453125
1780,,258.1093705,2.529296875
1781,,258.1528856,2.685546875
1782,,258.1532433,2.802734375
1783,,258.1836551,2.8515625
1784,,258.1932527,2.841796875
1785,,258.213653,2.7880859375
1786,,258.2499265,2.705078125
1787,,258.2546944,2.607421875
1788,,258.2919593,2.5
1789,,258.2923437,2.392578125
1790,,258.3119039,2.2802734375
1791,,258.3481258,2.1875
1792,,258.3527731,2.099609375
1793,,258.3874887,2.01171875
1794,,258.3929354,1.9189453125
1795,,258.4285332,1.826171875
1796,,258.4341943,1.728515625
1797,,258.4718908,1.6455078125
1798,,258.4724928,1.5478515625
1799,,258.5089549,1.46484375
1800,,258.5095426,1.3720703125
1801,,258.5457079,1.26953125
1802,,258.5658227,1.171875
1803,,258.5713955,1.083984375
1804,,258.6073302,0.9814453125
1805,,258.6278057,0.8935546875
1806,,258.6357381,0.859375
1807,,258.6522309,0.9423828125
1808,,258.6959734,1.1669921875
1809,,258.6963297,1.455078125
1810,,258.7136571,1.7724609375
1811,,258.7326615,2.041015625
1812,,258.7728727,2.275390625
1813,,258.7733978,2.4462890625
1814,,258.794309,2.5732421875
1815,,258.8121185,2.63671875
1816,,258.8307474,2.65625
1817,,258.8667096,2.6171875
1818,,258.8870739,2.5341796875
1819,,258.8912719,2.4365234375
1820,,258.9291345,2.3291015625
1821,,258.9335265,2.2216796875
1822,,258.976565,2.1337890625
1823,,258.9771512,2.0556640625
1824,,258.9950494,1.97265625
1825,,259.0297985,1.8896484375
1826,,259.0500739,1.8017578125
1827,,259.0531914,1.7236328125
1828,,259.0727158,1.630859375
1829,,259.1142216,1.54296875
1830,,259.1146793,1.4501953125
1831,,259.1482403,1.3623046875
1832,,259.1685766,1.26953125
1833,,259.1738919,1.1767578125
1834,,259.1938443,1.083984375
1835,,259.236944,1.005859375
1836,,259.2372985,0.927734375
1837,,259.2531659,0.859375
1838,,259.2988971,0.8056640625
1839,,259.2992916,0.8203125
1840,,259.3133314,0.9619140625
1841,,259.3623735,1.2158203125
1842,,259.3629423,1.552734375
1843,,259.3917818,1.8701171875
1844,,259.3921327,2.1728515625
1845,,259.4278002,2.4072265625
1846,,259.4329452,2.6123046875
1847,,259.4535792,2.75390625
1848,,259.4881236,2.841796875
1849,,259.5084736,2.8564453125
1850,,259.5158354,2.8173828125
1851,,259.5535353,2.75390625
1852,,259.5541066,2.666015625
1853,,259.5887279,2.578125
1854,,259.5914944,2.48046875
1855,,259.6295355,2.392578125
1856,,259.6336045,2.294921875
1857,,259.6676286,2.1923828125
1858,,259.6883086,2.099609375
1859,,259.695769,2.0068359375
1860,,259.7306253,1.9091796875
1861,,259.7341601,1.81640625
1862,,259.7527322,1.7138671875
1863,,259.7972043,1.6162109375
1864,,259.7976673,1.513671875
1865,,259.82884,1.4013671875
1866,,259.8331428,1.2890625
1867,,259.8686669,1.181640625
1868,,259.889525,1.0693359375
1869,,259.8946643,0.9619140625
1870,,259.9365921,0.8642578125
1871,,259.9370018,0.80078125
1872,,259.9572186,0.849609375
1873,,259.973185,1.044921875
1874,,260.0109587,1.3623046875
1875,,260.0160431,1.6943359375
1876,,260.0359438,2.01171875
1877,,260.0708226,2.2705078125
1878,,260.0755811,2.490234375
1879,,260.0935309,2.6611328125
1880,,260.1275728,2.802734375
1881,,260.1332242,2.8662109375
1882,,260.167433,2.8759765625
1883,,260.1884712,2.8369140625
1884,,260.1967478,2.7587890625
1885,,260.2324891,2.666015625
1886,,260.2355434,2.578125
1887,,260.2702984,2.4853515625
1888,,260.2917509,2.392578125
1889,,260.2922115,2.2998046875
1890,,260.3306163,2.2021484375
1891,,260.3338358,2.1142578125
1892,,260.3693133,2.021484375
1893,,260.3761303,1.9287109375
1894,,260.3953964,1.8310546875
1895,,260.4313441,1.73828125
1896,,260.4373545,1.640625
1897,,260.4568409,1.5380859375
1898,,260.472441,1.42578125
1899,,260.5087886,1.30859375
1900,,260.5370646,1.181640625
1901,,260.5374925,1.0546875
1902,,260.5568768,0.927734375
1903,,260.5912255,0.830078125
1904,,260.5969122,0.8544921875
1905,,260.6438816,1.025390625
1906,,260.6442435,1.328125
1907,,260.6544548,1.6455078125
1908,,260.6894532,1.962890625
1909,,260.6950829,2.216796875
1910,,260.7304901,2.44140625
1911,,260.7500795,2.6123046875
1912,,260.756225,2.75390625
1913,,260.7987763,2.8271484375
1914,,260.799176,2.8466796875
1915,,260.8149413,2.8173828125
1916,,260.8605152,2.7490234375
1917,,260.8610623,2.666015625
1918,,260.8754125,2.578125
1919,,260.9126384,2.4951171875
1920,,260.9163293,2.4072265625
1921,,260.9539158,2.3193359375
1922,,260.9544734,2.2265625
1923,,260.9909865,2.1337890625
1924,,261.011471,2.041015625
1925,,261.0143148,1.9580078125
1926,,261.0498199,1.865234375
1927,,261.0802604,1.77734375
1928,,261.0806588,1.69921875
1929,,261.0948568,1.611328125
1930,,261.1276268,1.5283203125
1931,,261.1498585,1.4453125
1932,,261.1569075,1.3525390625
1933,,261.2039602,1.259765625
1934,,261.2046146,1.171875
1935,,261.214079,1.1181640625
1936,,261.251325,1.162109375
1937,,261.2554041,1.3232421875
1938,,261.294335,1.591796875
1939,,261.2948879,1.875
1940,,261.3319924,2.158203125
1941,,261.3370252,2.3974609375
1942,,261.3730573,2.6171875
1943,,261.373416,2.7880859375
1944,,261.3941748,2.9248046875
1945,,261.4299392,2.9833984375
1946,,261.4500766,2.9931640625
1947,,261.4552613,2.9443359375
1948,,261.4927161,2.8662109375
1949,,261.4971043,2.7734375
1950,,261.543347,2.67578125
1951,,261.5439247,2.5732421875
1952,,261.5547977,2.4755859375
1953,,261.5926001,2.3779296875
1954,,261.5953295,2.28515625
1955,,261.6308847,2.1923828125
1956,,261.6368082,2.1044921875
1957,,261.6570781,2.0068359375
1958,,261.6900184,1.9091796875
1959,,261.7122303,1.796875
1960,,261.7126156,1.689453125
1961,,261.7474369,1.5771484375
1962,,261.7683825,1.46484375
1963,,261.776585,1.34765625
1964,,261.8203939,1.240234375
1965,,261.8207551,1.1279296875
1966,,261.8379031,1.0302734375
1967,,261.8728587,0.9716796875
1968,,261.8778117,1.005859375
1969,,261.9152368,1.162109375
1970,,261.9199023,1.4306640625
1971,,261.9360345,1.7138671875
1972,,261.974992,1.9970703125
1973,,261.9755389,2.2314453125
1974,,262.013131,2.4365234375
1975,,262.0171443,2.578125
1976,,262.0504752,2.6806640625
1977,,262.0715444,2.705078125
1978,,262.0794026,2.65625
1979,,262.1152497,2.5537109375
1980,,262.1155379,2.421875
1981,,262.1362563,2.28515625
1982,,262.1771649,2.1484375
1983,,262.17746,2.03125
1984,,262.2239976,1.93359375
1985,,262.2246448,1.8408203125
1986,,262.2379885,1.7578125
1987,,262.2737326,1.6845703125
1988,,262.2741708,1.611328125
1989,,262.2958463,1.54296875
1990,,262.3456279,1.455078125
1991,,262.3461307,1.357421875
1992,,262.3772519,1.25
1993,,262.3778389,1.1279296875
1994,,262.4147272,1.0009765625
1995,,262.4189696,0.8740234375
1996,,262.4529141,0.7421875
1997,,262.4733329,0.6201171875
1998,,262.4760026,0.52734375
1999,,262.4967048,0.48828125
2000,,262.5328085,0.5908203125
2001,,262.5383819,0.8349609375
2002,,262.5605079,1.2158203125
2003,,262.5809163,1.591796875
2004,,262.6004947,1.953125
2005,,262.6360531,2.2412109375
2006,,262.6396729,2.490234375
2007,,262.6568572,2.67578125
2008,,262.6897452,2.8125
2009,,262.7112102,2.87109375
2010,,262.7182929,2.8662109375
2011,,262.7585912,2.8125
2012,,262.7592313,2.71484375
2013,,262.8044557,2.6123046875
2014,,262.805328,2.5146484375
2015,,262.8210312,2.421875
2016,,262.8363906,2.3291015625
2017,,262.8710853,2.24609375
2018,,262.8913343,2.1630859375
2019,,262.8987597,2.08984375
2020,,262.933971,2.01171875
2021,,262.9392648,1.9287109375
2022,,262.9735401,1.8505859375
2023,,262.9932533,1.767578125
2024,,262.9967546,1.6845703125
2025,,263.0359195,1.6064453125
2026,,263.0363309,1.513671875
2027,,263.0562542,1.42578125
2028,,263.0915823,1.328125
2029,,263.1123377,1.25
2030,,263.1193152,1.1865234375
2031,,263.1555406,1.1865234375
2032,,263.1777749,1.30859375
2033,,263.1782364,1.5234375
2034,,263.1976395,1.8017578125
2035,,263.2409757,2.0556640625
2036,,263.2415521,2.294921875
2037,,263.2589105,2.48046875
2038,,263.2944906,2.6318359375
2039,,263.2994084,2.7197265625
2040,,263.3373275,2.763671875
2041,,263.3420714,2.734375
2042,,263.3816104,2.6611328125
2043,,263.3820729,2.5634765625
2044,,263.3975755,2.4560546875
2045,,263.4323915,2.34375
2046,,263.452899,2.24609375
2047,,263.4586204,2.1533203125
2048,,263.4945406,2.0703125
2049,,263.5000656,1.9873046875
2050,,263.5371003,1.8994140625
2051,,263.5400647,1.81640625
2052,,263.5562951,1.728515625
2053,,263.5960051,1.650390625
2054,,263.5964382,1.572265625
2055,,263.6322716,1.484375
2056,,263.6534297,1.396484375
2057,,263.661135,1.3037109375
2058,,263.7039442,1.2060546875
2059,,263.704497,1.1181640625
2060,,263.719703,1.0400390625
2061,,263.736705,0.9619140625
2062,,263.7723415,0.9423828125
2063,,263.7934881,1.044921875
2064,,263.7985984,1.279296875
2065,,263.8349588,1.572265625
2066,,263.8407358,1.8994140625
2067,,263.8765525,2.1875
2068,,263.8797156,2.4560546875
2069,,263.8986038,2.67578125
2070,,263.9344909,2.880859375
2071,,263.9368486,3.0126953125
2072,,263.9741039,3.0859375
2073,,263.9798907,3.0810546875
2074,,264.0149383,3.0224609375
2075,,264.0444058,2.9296875
2076,,264.0450041,2.8076171875
2077,,264.0607994,2.685546875
2078,,264.1082905,2.5634765625
2079,,264.1086452,2.451171875
2080,,264.1293587,2.3388671875
2081,,264.1386061,2.2314453125
2082,,264.1744669,2.12890625
2083,,264.1792383,2.03125
2084,,264.2160439,1.93359375
2085,,264.2221511,1.8359375
2086,,264.2405548,1.728515625
2087,,264.2769632,1.630859375
2088,,264.2775372,1.5234375
2089,,264.297942,1.4111328125
2090,,264.3323048,1.3037109375
2091,,264.3531727,1.1962890625
2092,,264.360863,1.0888671875
2093,,264.3804697,1.0009765625
2094,,264.4162332,0.9912109375
2095,,264.4357346,1.1083984375
2096,,264.4408863,1.3623046875
2097,,264.4790938,1.650390625
2098,,264.4794143,1.9580078125
2099,,264.513962,2.2216796875
2100,,264.5207152,2.4609375
2101,,264.5574596,2.6416015625
2102,,264.5603067,2.79296875
2103,,264.5955489,2.87109375
2104,,264.6009778,2.890625
2105,,264.61959,2.841796875
2106,,264.6659193,2.763671875
2107,,264.6663527,2.65625
2108,,264.6815693,2.5341796875
2109,,264.7001853,2.412109375
2110,,264.7448627,2.294921875
2111,,264.7453239,2.177734375
2112,,264.7635774,2.080078125
2113,,264.7995813,1.97265625
2114,,264.8032537,1.875
2115,,264.8375509,1.7724609375
2116,,264.8384464,1.6748046875
2117,,264.8716595,1.58203125
2118,,264.8962882,1.4892578125
2119,,264.8988399,1.3916015625
2120,,264.9354023,1.298828125
2121,,264.9613943,1.19140625
2122,,264.961758,1.0888671875
2123,,264.9974164,0.9912109375
2124,,265.0243265,0.8984375
2125,,265.0246901,0.8154296875
2126,,265.0400169,0.80078125
2127,,265.0870286,0.9033203125
2128,,265.0876136,1.142578125
2129,,265.1010327,1.4306640625
2130,,265.1473159,1.73828125
2131,,265.1476666,2.001953125
2132,,265.1622313,2.2314453125
2133,,265.1793101,2.40234375
2134,,265.2156542,2.5244140625
2135,,265.2210538,2.587890625
2136,,265.2718763,2.59765625
2137,,265.2724679,2.548828125
2138,,265.2818509,2.4609375
2139,,265.3350996,2.353515625
2140,,265.3355528,2.24609375
2141,,265.3439026,2.1337890625
2142,,265.3594494,2.041015625
2143,,265.396882,1.9580078125
2144,,265.3998855,1.875
2145,,265.4359665,1.7822265625
2146,,265.4418655,1.689453125
2147,,265.4902328,1.591796875
2148,,265.4905889,1.4892578125
2149,,265.5034543,1.3818359375
2150,,265.5382619,1.279296875
2151,,265.5436337,1.181640625
2152,,265.5600452,1.0791015625
2153,,265.5982671,0.9716796875
2154,,265.6034507,0.8642578125
2155,,265.6230203,0.7568359375
2156,,265.6572133,0.64453125
2157,,265.6628349,0.5419921875
2158,,265.6995529,0.4736328125
2159,,265.7043384,0.5224609375
2160,,265.7403355,0.732421875
2161,,265.740686,1.0205078125
2162,,265.7771536,1.3720703125
2163,,265.7796715,1.669921875
2164,,265.8167462,1.9287109375
2165,,265.8376132,2.1142578125
2166,,265.8434032,2.24609375
2167,,265.8780698,2.3095703125
2168,,265.89842,2.32421875
2169,,265.9013163,2.28515625
2170,,265.9366639,2.216796875
2171,,265.9417029,2.1337890625
2172,,265.9788819,2.05078125
2173,,265.9795262,1.9677734375
2174,,266.0179633,1.8896484375
2175,,266.0223759,1.8212890625
2176,,266.0637582,1.748046875
2177,,266.0643265,1.6796875
2178,,266.0837495,1.6064453125
2179,,266.1021969,1.5380859375
2180,,266.1400933,1.46484375
2181,,266.140553,1.3818359375
2182,,266.1766183,1.2939453125
2183,,266.197153,1.201171875
2184,,266.2054097,1.11328125
2185,,266.2245126,1.0205078125
2186,,266.259308,0.9326171875
2187,,266.264534,0.8447265625
2188,,266.3030165,0.7568359375
2189,,266.3035133,0.6689453125
2190,,266.3235379,0.60546875
2191,,266.3732647,0.6103515625
2192,,266.3737909,0.78125
2193,,266.3815087,1.0595703125
2194,,266.4193191,1.4111328125
2195,,266.4393274,1.728515625
2196,,266.4462354,2.0263671875
2197,,266.462519,2.236328125
2198,,266.498112,2.4072265625
2199,,266.5034647,2.4951171875
2200,,266.5239792,2.51953125
2201,,266.5603148,2.4853515625
2202,,266.5636215,2.4072265625
2203,,266.5857938,2.2900390625
2204,,266.6328041,2.1630859375
2205,,266.6333723,2.0458984375
2206,,266.6413117,1.943359375
2207,,266.6769198,1.8603515625
2208,,266.6843786,1.787109375
2209,,266.7289872,1.7236328125
2210,,266.7293821,1.669921875
2211,,266.7449648,1.6259765625
2212,,266.791723,1.572265625
2213,,266.7920715,1.5283203125
2214,,266.8011813,1.474609375
2215,,266.8372726,1.4306640625
2216,,266.8426834,1.38671875
2217,,266.8627295,1.337890625
2218,,266.9005161,1.279296875
2219,,266.9327241,1.240234375
2220,,266.9330926,1.1865234375
2221,,266.9461125,1.123046875
2222,,266.9813305,1.0693359375
2223,,266.9859988,1.064453125
2224,,267.0254398,1.1767578125
2225,,267.0258588,1.4013671875
2226,,267.0435295,1.7236328125
2227,,267.0632869,2.021484375
2228,,267.0973981,2.314453125
2229,,267.1201147,2.55859375
2230,,267.1243753,2.783203125
2231,,267.1599201,2.939453125
2232,,267.1660306,3.0517578125
2233,,267.180719,3.0859375
2234,,267.2207329,3.0810546875
2235,,267.223365,3.0322265625
2236,,267.2591893,2.9443359375
2237,,267.2641386,2.841796875
2238,,267.3002576,2.7392578125
2239,,267.3039214,2.63671875
2240,,267.3521442,2.529296875
2241,,267.3524967,2.4267578125
2242,,267.3736226,2.3193359375
2243,,267.3854082,2.216796875
2244,,267.4025781,2.119140625
2245,,267.4376854,2.0361328125
2246,,267.459127,1.9482421875
2247,,267.4661024,1.85546875
2248,,267.4865073,1.7724609375
2249,,267.5205034,1.6796875
2250,,267.5209385,1.5869140625
2251,,267.5581708,1.4990234375
2252,,267.5866325,1.40625
2253,,267.587173,1.30859375
2254,,267.6042144,1.2109375
2255,,267.6249449,1.1376953125
2256,,267.6617786,1.1376953125
2257,,267.6645546,1.2646484375
2258,,267.7109548,1.5087890625
2259,,267.7114839,1.7822265625
2260,,267.7311694,2.0703125
2261,,267.7443521,2.314453125
2262,,267.7800542,2.5341796875
2263,,267.7853112,2.7001953125
2264,,267.819759,2.822265625
2265,,267.8253438,2.87109375
2266,,267.8625813,2.8662109375
2267,,267.8673408,2.8125
2268,,267.9028621,2.7197265625
2269,,267.9286816,2.607421875
2270,,267.9292512,2.5
2271,,267.9458026,2.4072265625
2272,,267.9640986,2.3046875
2273,,267.9986775,2.2119140625
2274,,268.0200726,2.1240234375
2275,,268.0277058,2.03125
2276,,268.0699381,1.943359375
2277,,268.0705183,1.8603515625
2278,,268.0830938,1.77734375
2279,,268.1182635,1.7041015625
2280,,268.1390545,1.6259765625
2281,,268.1443327,1.54296875
2282,,268.1954068,1.455078125
2283,,268.196063,1.376953125
2284,,268.2083611,1.279296875
2285,,268.2260339,1.19140625
2286,,268.2614195,1.09375
2287,,268.2823541,1.005859375
2288,,268.28273,0.9521484375
2289,,268.3173287,0.99609375
2290,,268.3375371,1.1767578125
2291,,268.3449165,1.4306640625
2292,,268.3813785,1.7333984375
2293,,268.3853457,1.9970703125
2294,,268.4203154,2.2314453125
2295,,268.4404193,2.40234375
2296,,268.4484984,2.5341796875
2297,,268.4662806,2.6025390625
2298,,268.4850973,2.6318359375
2299,,268.5284596,2.6025390625
2300,,268.5288845,2.5341796875
2301,,268.5597334,2.4462890625
2302,,268.5675049,2.3486328125
2303,,268.6040163,2.255859375
2304,,268.6070137,2.16796875
2305,,268.6433444,2.0947265625
2306,,268.6439398,2.0263671875
2307,,268.666054,1.9580078125
2308,,268.6862185,1.8896484375
2309,,268.7202221,1.81640625
2310,,268.7270856,1.73828125
2311,,268.7625464,1.6552734375
2312,,268.7668235,1.5771484375
2313,,268.8021868,1.494140625
2314,,268.8025357,1.40625
2315,,268.8225884,1.328125
2316,,268.8588533,1.240234375
2317,,268.8788369,1.1572265625
2318,,268.8873793,1.0693359375
2319,,268.934909,0.986328125
2320,,268.93527,0.9130859375
2321,,268.9471384,0.87890625
2322,,268.9830386,0.9619140625
2323,,269.0122442,1.162109375
2324,,269.0128636,1.4453125
2325,,269.0249726,1.7333984375
2326,,269.0601981,2.0068359375
2327,,269.0808523,2.216796875
2328,,269.088375,2.3876953125
2329,,269.1256043,2.490234375
2330,,269.128989,2.5439453125
2331,,269.1651668,2.5537109375
2332,,269.1678609,2.5048828125
2333,,269.2029185,2.421875
2334,,269.2236006,2.32421875
2335,,269.2263867,2.236328125
2336,,269.2469466,2.1484375
2337,,269.2845929,2.0703125
2338,,269.2851898,1.9970703125
2339,,269.3212889,1.923828125
2340,,269.3409557,1.85546875
2341,,269.3481425,1.787109375
2342,,269.3649622,1.7041015625
2343,,269.3859276,1.630859375
2344,,269.4315605,1.552734375
2345,,269.4321549,1.46484375
2346,,269.4471161,1.376953125
2347,,269.4684503,1.2890625
2348,,269.5029758,1.201171875
2349,,269.5231905,1.1083984375
2350,,269.5280034,1.015625
2351,,269.5454206,0.91796875
2352,,269.5641764,0.8349609375
2353,,269.6039008,0.7568359375
2354,,269.635344,0.7275390625
2355,,269.6357034,0.8056640625
2356,,269.6459203,1.03515625
2357,,269.6801754,1.3134765625
2358,,269.7004998,1.62109375
2359,,269.7059719,1.8798828125
2360,,269.7419701,2.1044921875
2361,,269.7450333,2.2509765625
2362,,269.7864369,2.3486328125
2363,,269.786793,2.3876953125
2364,,269.8068496,2.3681640625
2365,,269.8421729,2.314453125
2366,,269.8649596,2.236328125
2367,,269.869674,2.1533203125
2368,,269.9042544,2.0751953125
2369,,269.9095188,2.001953125
2370,,269.9274117,1.9384765625
2371,,269.9487029,1.884765625
2372,,269.9671598,1.8359375
2373,,270.004557,1.787109375
2374,,270.0093198,1.73828125
2375,,270.0494592,1.6845703125
2376,,270.0498048,1.6357421875
2377,,270.0877121,1.5771484375
2378,,270.0882242,1.513671875
2379,,270.107315,1.46484375
2380,,270.1440932,1.40625
2381,,270.1494167,1.337890625
2382,,270.1683391,1.26953125
2383,,270.2055207,1.1865234375
2384,,270.207804,1.1083984375
2385,,270.2444356,1.03515625
2386,,270.266398,0.986328125
2387,,270.2667577,0.9912109375
2388,,270.3008693,1.1328125
2389,,270.3211642,1.3623046875
2390,,270.3278839,1.6552734375
2391,,270.3634332,1.923828125
2392,,270.3688449,2.177734375
2393,,270.4087023,2.3681640625
2394,,270.4090275,2.509765625
2395,,270.4546557,2.6025390625
2396,,270.4550305,2.63671875
2397,,270.4668659,2.626953125
2398,,270.5012289,2.568359375
2399,,270.5217411,2.490234375
2400,,270.5297573,2.3974609375
2401,,270.5786976,2.2998046875
2402,,270.5790499,2.2119140625
2403,,270.5892658,2.1240234375
2404,,270.6235971,2.0458984375
2405,,270.6447117,1.97265625
2406,,270.6450719,1.904296875
2407,,270.6802327,1.8408203125
2408,,270.7010551,1.767578125
2409,,270.7082292,1.6943359375
2410,,270.7448972,1.6162109375
2411,,270.7500073,1.552734375
2412,,270.7843323,1.484375
2413,,270.8058032,1.4111328125
2414,,270.8109046,1.328125
2415,,270.8279925,1.25
2416,,270.8777938,1.19140625
2417,,270.8782797,1.1181640625
2418,,270.9082702,1.0546875
2419,,270.9091619,1.0009765625
2420,,270.9446245,1.0400390625
2421,,270.9507594,1.1962890625
2422,,270.9869079,1.46484375
2423,,270.9872561,1.7578125
2424,,271.0218308,2.0654296875
2425,,271.0421001,2.3095703125
2426,,271.0475398,2.5244140625
2427,,271.0823342,2.685546875
2428,,271.1036696,2.7783203125
2429,,271.1109129,2.8125
2430,,271.1481061,2.79296875
2431,,271.1527372,2.7294921875
2432,,271.168573,2.6416015625
2433,,271.2181111,2.5439453125
2434,,271.2186906,2.4462890625
2435,,271.2276156,2.34375
2436,,271.265953,2.2509765625
2437,,271.2704077,2.1630859375
2438,,271.3068928,2.08984375
2439,,271.3116374,2.0166015625
2440,,271.357944,1.943359375
2441,,271.35834,1.865234375
2442,,271.3670702,1.787109375
2443,,271.4027347,1.71875
2444,,271.4224371,1.640625
2445,,271.4294239,1.5625
2446,,271.4655378,1.4794921875
2447,,271.4980728,1.396484375
2448,,271.4985194,1.30859375
2449,,271.511046,1.220703125
2450,,271.5459508,1.142578125
2451,,271.5762798,1.0693359375
2452,,271.5766464,1.0205078125
2453,,271.5897133,1.044921875
2454,,271.6369784,1.2109375
2455,,271.6373533,1.46484375
2456,,271.6517579,1.77734375
2457,,271.6881794,2.060546875
2458,,271.6916506,2.32421875
2459,,271.7128508,2.5341796875
2460,,271.7281922,2.6904296875
2461,,271.7776113,2.8125
2462,,271.7780566,2.861328125
2463,,271.7959755,2.8662109375
2464,,271.8118443,2.8173828125
2465,,271.8531006,2.7392578125
2466,,271.8537033,2.646484375
2467,,271.8720214,2.548828125
2468,,271.8886124,2.451171875
2469,,271.92252,2.36328125
2470,,271.9433326,2.275390625
2471,,271.9506005,2.1826171875
2472,,271.9882657,2.099609375
2473,,271.9886235,2.0166015625
2474,,272.026103,1.923828125
2475,,272.0470839,1.845703125
2476,,272.0520107,1.7578125
2477,,272.0874399,1.6650390625
2478,,272.1085996,1.5771484375
2479,,272.1092441,1.484375
2480,,272.1458514,1.396484375
2481,,272.1758927,1.30859375
2482,,272.1764686,1.2158203125
2483,,272.1917879,1.123046875
2484,,272.2282154,1.03515625
2485,,272.2312176,0.9619140625
2486,,272.2685075,0.9521484375
2487,,272.2688658,1.0693359375
2488,,272.3042316,1.3134765625
2489,,272.3319716,1.5966796875
2490,,272.3323206,1.89453125
2491,,272.3761493,2.1533203125
2492,,272.3764992,2.3486328125
2493,,272.3912782,2.5048828125
2494,,272.4145054,2.59765625
2495,,272.4505049,2.646484375
2496,,272.4509683,2.63671875
2497,,272.486512,2.5927734375
2498,,272.4915989,2.51953125
2499,,272.511792,2.4267578125
2500,,272.5473822,2.333984375
2501,,272.5527419,2.24609375
2502,,272.5885977,2.158203125
2503,,272.5948748,2.0849609375
2504,,272.6095242,2.0166015625
2505,,272.6457685,1.9482421875
2506,,272.6727665,1.8701171875
2507,,272.6731253,1.7919921875
2508,,272.706408,1.708984375
2509,,272.7110963,1.6259765625
2510,,272.7467435,1.5478515625
2511,,272.768261,1.474609375
2512,,272.7727021,1.396484375
2513,,272.8076389,1.328125
2514,,272.828013,1.259765625
2515,,272.8311433,1.1865234375
2516,,272.8662723,1.1181640625
2517,,272.8718452,1.044921875
2518,,272.8925741,0.9765625
2519,,272.9349596,0.9521484375
2520,,272.9356014,1.044921875
2521,,272.9526589,1.25
2522,,272.9890431,1.54296875
2523,,272.9944521,1.845703125
2524,,273.0117332,2.0947265625
2525,,273.0474441,2.3193359375
2526,,273.0535039,2.48046875
2527,,273.0929058,2.59765625
2528,,273.0932602,2.646484375
2529,,273.1131081,2.646484375
2530,,273.1474978,2.5927734375
2531,,273.1676316,2.509765625
2532,,273.1705857,2.412109375
2533,,273.2058996,2.32421875
2534,,273.2350301,2.236328125
2535,,273.2353787,2.158203125
2536,,273.2518623,2.08984375
2537,,273.2866566,2.021484375
2538,,273.2919814,1.943359375
2539,,273.3277421,1.875
2540,,273.3485443,1.7919921875
2541,,273.3502549,1.7138671875
2542,,273.3864564,1.6357421875
2543,,273.3912517,1.5673828125
2544,,273.4251943,1.4892578125
2545,,273.4460058,1.416015625
2546,,273.4521298,1.337890625
2547,,273.4968627,1.2548828125
2548,,273.4973984,1.1669921875
2549,,273.5444327,1.083984375
2550,,273.5447821,0.9912109375
2551,,273.5511229,0.91796875
2552,,273.589032,0.888671875
2553,,273.5912537,0.9619140625
2554,,273.6263229,1.1767578125
2555,,273.633168,1.484375
2556,,273.6689271,1.787109375
2557,,273.6744547,2.080078125
2558,,273.6949362,2.3095703125
2559,,273.7307275,2.5048828125
2560,,273.7310927,2.63671875
2561,,273.7774429,2.7294921875
2562,,273.7778866,2.75390625
2563,,273.8069473,2.734375
2564,,273.811784,2.6708984375
2565,,273.847607,2.59765625
2566,,273.8685417,2.509765625
2567,,273.8764226,2.421875
2568,,273.8905476,2.333984375
2569,,273.9311626,2.255859375
2570,,273.9315216,2.177734375
2571,,273.9515534,2.1142578125
2572,,273.9883521,2.0458984375
2573,,273.99485,1.9677734375
2574,,274.0149633,1.884765625
2575,,274.0499393,1.8017578125
2576,,274.0543448,1.7138671875
2577,,274.0710393,1.6357421875
2578,,274.1174681,1.5625
2579,,274.1180258,1.4794921875
2580,,274.1370411,1.38671875
2581,,274.1530145,1.298828125
2582,,274.1883043,1.201171875
2583,,274.2095063,1.1083984375
2584,,274.2145801,1.0205078125
2585,,274.2576139,0.9765625
2586,,274.2579731,1.0595703125
2587,,274.2775217,1.2841796875
2588,,274.2924402,1.5625
2589,,274.3275273,1.8896484375
2590,,274.3487773,2.1728515625
2591,,274.3536539,2.4267578125
2592,,274.3970043,2.6220703125
2593,,274.3973722,2.783203125
2594,,274.443949,2.880859375
2595,,274.4442975,2.9248046875
2596,,274.452857,2.900390625
2597,,274.48927,2.8466796875
2598,,274.4917542,2.7587890625
2599,,274.5271275,2.6611328125
2600,,274.5479913,2.55859375
2601,,274.5533269,2.4462890625
2602,,274.5888629,2.34375
2603,,274.6105031,2.2509765625
2604,,274.6152052,2.1533203125
2605,,274.6341232,2.060546875
2606,,274.6686427,1.97265625
2607,,274.6735822,1.8798828125
2608,,274.7085217,1.7822265625
2609,,274.7137495,1.6845703125
2610,,274.7546669,1.591796875
2611,,274.7550205,1.4990234375
2612,,274.7755405,1.40625
2613,,274.7937622,1.30859375
2614,,274.8286984,1.2158203125
2615,,274.8319233,1.123046875
2616,,274.8676018,1.03515625
2617,,274.8879772,0.9521484375
2618,,274.8932643,0.9130859375
2619,,274.9305712,1.0009765625
2620,,274.9357902,1.2060546875
2621,,274.9724633,1.50390625
2622,,274.9779799,1.8017578125
2623,,275.012479,2.0947265625
2624,,275.0131244,2.32421875
2625,,275.0531518,2.529296875
2626,,275.0537238,2.67578125
2627,,275.0899373,2.7783203125
2628,,275.1095012,2.8125
2629,,275.1144588,2.8125
2630,,275.1595873,2.75390625
2631,,275.1599074,2.6806640625
2632,,275.1910019,2.587890625
2633,,275.1915595,2.4951171875
2634,,275.2250154,2.40234375
2635,,275.2456615,2.314453125
2636,,275.2559366,2.2265625
2637,,275.2954886,2.1337890625
2638,,275.2958583,2.0556640625
2639,,275.3308718,1.97265625
2640,,275.3513982,1.884765625
2641,,275.3546025,1.8017578125
2642,,275.3752104,1.7236328125
2643,,275.4210275,1.650390625
2644,,275.4216628,1.5771484375
2645,,275.4348086,1.4990234375
2646,,275.4699756,1.416015625
2647,,275.4908996,1.3330078125
2648,,275.4980678,1.2548828125
2649,,275.5125349,1.181640625
2650,,275.547273,1.11328125
2651,,275.5674011,1.0888671875
2652,,275.5747388,1.1474609375
2653,,275.6229573,1.3330078125
2654,,275.6234116,1.5869140625
2655,,275.6356666,1.884765625
2656,,275.68575,2.138671875
2657,,275.6863371,2.3681640625
2658,,275.6976353,2.5390625
2659,,275.7466909,2.6708984375
2660,,275.7470389,2.7392578125
2661,,275.756048,2.7685546875
2662,,275.7747001,2.734375
2663,,275.8083444,2.666015625
2664,,275.8284362,2.5732421875
2665,,275.8376281,2.4755859375
2666,,275.888626,2.3828125
2667,,275.8892052,2.2998046875
2668,,275.8980186,2.2314453125
2669,,275.9140277,2.1630859375
2670,,275.9506116,2.119140625
2671,,275.9712477,2.060546875
2672,,275.9757924,2.001953125
2673,,275.9963068,1.943359375
2674,,276.0439742,1.8798828125
2675,,276.044539,1.8017578125
2676,,276.0562283,1.728515625
2677,,276.0738104,1.650390625
2678,,276.1100218,1.5771484375
2679,,276.1159135,1.494140625
2680,,276.1515519,1.4111328125
2681,,276.1559463,1.318359375
2682,,276.1920095,1.2353515625
2683,,276.1972377,1.15234375
2684,,276.2328059,1.1181640625
2685,,276.2380775,1.181640625
2686,,276.2546783,1.3525390625
2687,,276.2915911,1.6259765625
2688,,276.2944424,1.8896484375
2689,,276.331616,2.1533203125
2690,,276.336808,2.36328125
2691,,276.3733176,2.5537109375
2692,,276.376339,2.685546875
2693,,276.4135055,2.7783203125
2694,,276.4460532,2.8076171875
2695,,276.4464096,2.7880859375
2696,,276.454828,2.7294921875
2697,,276.4939143,2.6416015625
2698,,276.5157313,2.5439453125
2699,,276.5163701,2.4560546875
2700,,276.5555031,2.36328125
2701,,276.586134,2.275390625
2702,,276.586488,2.1923828125
2703,,276.5975062,2.1142578125
2704,,276.6348784,2.041015625
2705,,276.6634564,1.962890625
2706,,276.6639059,1.8896484375
2707,,276.6767759,1.81640625
2708,,276.7137623,1.7431640625
2709,,276.7158489,1.6650390625
2710,,276.7518238,1.5771484375
2711,,276.7719127,1.494140625
2712,,276.7774587,1.40625
2713,,276.7951755,1.3134765625
2714,,276.8323379,1.23046875
2715,,276.8353461,1.15234375
2716,,276.8566546,1.0791015625
2717,,276.8974402,1.0595703125
2718,,276.897926,1.142578125
2719,,276.9344904,1.3525390625
2720,,276.9374675,1.611328125
2721,,276.9589498,1.89453125
2722,,276.9743674,2.138671875
2723,,277.0068799,2.373046875
2724,,277.0288073,2.5439453125
2725,,277.0377903,2.685546875
2726,,277.0721023,2.75390625
2727,,277.0787705,2.7734375
2728,,277.1171227,2.734375
2729,,277.117577,2.6611328125
2730,,277.138273,2.568359375
2731,,277.1714572,2.4853515625
2732,,277.1913794,2.4072265625
2733,,277.1966249,2.3291015625
2734,,277.23475,2.255859375
2735,,277.2353862,2.1826171875
2736,,277.2709876,2.1142578125
2737,,277.2916257,2.041015625
2738,,277.2992739,1.9677734375
2739,,277.3372232,1.89453125
2740,,277.3376929,1.8212890625
2741,,277.3546656,1.7431640625
2742,,277.3923984,1.6748046875
2743,,277.413596,1.611328125
2744,,277.4163343,1.5576171875
2745,,277.4550669,1.494140625
2746,,277.4579137,1.435546875
2747,,277.4926525,1.376953125
2748,,277.5134397,1.318359375
2749,,277.5191572,1.279296875
2750,,277.5347778,1.3134765625
2751,,277.5703467,1.484375
2752,,277.5899765,1.71875
2753,,277.5967986,2.0068359375
2754,,277.6313828,2.275390625
2755,,277.6635367,2.5390625
2756,,277.6641079,2.7587890625
2757,,277.6811726,2.94921875
2758,,277.697331,3.0712890625
2759,,277.7331003,3.1591796875
2760,,277.7356053,3.173828125
2761,,277.7739443,3.1396484375
2762,,277.7782755,3.076171875
2763,,277.8175103,2.998046875
2764,,277.8178674,2.91015625
2765,,277.8377305,2.8173828125
2766,,277.873899,2.7197265625
2767,,277.8947582,2.626953125
2768,,277.901035,2.529296875
2769,,277.9180846,2.4267578125
2770,,277.9552103,2.32421875
2771,,277.9578839,2.2265625
2772,,277.996082,2.1240234375
2773,,278.0008185,2.0361328125
2774,,278.0210613,1.943359375
2775,,278.0404237,1.85546875
2776,,278.0752708,1.77734375
2777,,278.0758483,1.6943359375
2778,,278.1097695,1.62109375
2779,,278.1309315,1.54296875
2780,,278.1387513,1.4599609375
2781,,278.1725059,1.396484375
2782,,278.1939887,1.4013671875
2783,,278.1992674,1.5380859375
2784,,278.2353661,1.7529296875
2785,,278.2420344,2.03125
2786,,278.258293,2.3046875
2787,,278.2928028,2.5927734375
2788,,278.2973353,2.8564453125
2789,,278.3369618,3.0908203125
2790,,278.3409615,3.2568359375
2791,,278.3864164,3.359375
2792,,278.3870004,3.3935546875
2793,,278.4015178,3.3642578125
2794,,278.4162304,3.28125
2795,,278.4621194,3.1884765625
2796,,278.4626845,3.076171875
2797,,278.4830192,2.96875
2798,,278.4999606,2.8515625
2799,,278.5398879,2.744140625
2800,,278.5402069,2.626953125
2801,,278.5755579,2.509765625
2802,,278.5822422,2.392578125
2803,,278.6182305,2.275390625
2804,,278.6210869,2.1533203125
2805,,278.6368597,2.0556640625
2806,,278.6724599,1.962890625
2807,,278.6936779,1.875
2808,,278.6998024,1.7919921875
2809,,278.737255,1.69921875
2810,,278.7401793,1.6064453125
2811,,278.7761421,1.513671875
2812,,278.7819682,1.42578125
2813,,278.8169209,1.3427734375
2814,,278.8174118,1.30859375
2815,,278.8535107,1.38671875
2816,,278.8744463,1.5625
2817,,278.8794778,1.8212890625
2818,,278.9161909,2.08984375
2819,,278.9418176,2.3681640625
2820,,278.9421773,2.6171875
2821,,278.9897147,2.861328125
2822,,278.9900768,3.0322265625
2823,,278.9975669,3.1640625
2824,,279.0323716,3.212890625
2825,,279.0530672,3.1982421875
2826,,279.0606436,3.125
2827,,279.0810222,3.02734375
2828,,279.130847,2.9052734375
2829,,279.131442,2.7880859375
2830,,279.1423873,2.666015625
2831,,279.1589226,2.548828125
2832,,279.1946219,2.44140625
2833,,279.1993864,2.3291015625
2834,,279.2366337,2.2314453125
2835,,279.2383049,2.1435546875
2836,,279.2758077,2.060546875
2837,,279.2952846,1.982421875
2838,,279.3014299,1.8994140625
2839,,279.3379112,1.8115234375
2840,,279.3441021,1.7333984375
2841,,279.3603248,1.6455078125
2842,,279.4096837,1.5576171875
2843,,279.4102734,1.46484375
2844,,279.4209378,1.3671875
2845,,279.4702659,1.2744140625
2846,,279.4706208,1.2109375
2847,,279.4797636,1.2255859375
2848,,279.5199056,1.3525390625
2849,,279.5202527,1.58203125
2850,,279.5560008,1.8310546875
2851,,279.5609354,2.109375
2852,,279.5800729,2.353515625
2853,,279.6005285,2.5830078125
2854,,279.6407214,2.763671875
2855,,279.6410769,2.9052734375
2856,,279.6620253,2.96875
2857,,279.6979046,2.96875
2858,,279.6982987,2.9052734375
2859,,279.7200591,2.8173828125
2860,,279.7552174,2.705078125
2861,,279.7834156,2.587890625
2862,,279.7837639,2.470703125
2863,,279.802029,2.36328125
2864,,279.8364127,2.255859375
2865,,279.8414337,2.1484375
2866,,279.8899565,2.0556640625
2867,,279.8905323,1.962890625
2868,,279.9105294,1.8701171875
2869,,279.9203157,1.77734375
2870,,279.9559544,1.6845703125
2871,,279.960882,1.591796875
2872,,279.9978349,1.50390625
2873,,280.0026606,1.416015625
2874,,280.0470416,1.3232421875
2875,,280.0477784,1.23046875
2876,,280.0631331,1.142578125
2877,,280.0992632,1.0546875
2878,,280.1241855,0.9765625
2879,,280.1246925,0.95703125
2880,,280.1396447,1.015625
2881,,280.1757166,1.201171875
2882,,280.195962,1.4453125
2883,,280.2033418,1.73828125
2884,,280.2404371,2.001953125
2885,,280.244325,2.255859375
2886,,280.260173,2.4560546875
2887,,280.2948012,2.63671875
2888,,280.3172332,2.75390625
2889,,280.3217263,2.8125
2890,,280.361802,2.802734375
2891,,280.391315,2.7490234375
2892,,280.3916995,2.65625
2893,,280.4049168,2.548828125
2894,,280.4542471,2.4365234375
2895,,280.4545497,2.3193359375
2896,,280.4606212,2.2216796875
2897,,280.4964299,2.119140625
2898,,280.5295933,2.021484375
2899,,280.5299958,1.9287109375
2900,,280.5413689,1.8310546875
2901,,280.5928039,1.728515625
2902,,280.5934357,1.630859375
2903,,280.6208416,1.5234375
2904,,280.6217788,1.435546875
2905,,280.6559271,1.3427734375
2906,,280.6608596,1.25
2907,,280.6974469,1.15234375
2908,,280.7023465,1.0693359375
2909,,280.7379222,0.9912109375
2910,,280.7427473,0.9326171875
2911,,280.7785962,0.908203125
2912,,280.7836134,0.95703125
2913,,280.8199136,1.1328125
2914,,280.8552984,1.396484375
2915,,280.8556617,1.728515625
2916,,280.8605594,2.0361328125
2917,,280.8986461,2.34375
2918,,280.901998,2.59765625
2919,,280.9465346,2.8369140625
2920,,280.9468881,2.998046875
2921,,280.9668709,3.1005859375
2922,,280.9814856,3.125
2923,,281.0247605,3.1005859375
2924,,281.0253441,3.02734375
2925,,281.0591389,2.9248046875
2926,,281.0641099,2.8125
2927,,281.0836049,2.6904296875
2928,,281.1182826,2.5732421875
2929,,281.1228386,2.4560546875
2930,,281.1559491,2.3486328125
2931,,281.17582,2.24609375
2932,,281.1805637,2.1484375
2933,,281.2157736,2.05078125
2934,,281.2380406,1.953125
2935,,281.2430931,1.8603515625
2936,,281.2779966,1.767578125
2937,,281.2828573,1.6650390625
2938,,281.3311534,1.5673828125
2939,,281.3315123,1.455078125
2940,,281.3519207,1.34765625
2941,,281.3623948,1.2451171875
2942,,281.3975674,1.1474609375
2943,,281.4176865,1.064453125
2944,,281.4219702,1.03515625
2945,,281.4579736,1.1328125
2946,,281.4789765,1.3330078125
2947,,281.4845917,1.62109375
2948,,281.5050155,1.9140625
2949,,281.5498379,2.2265625
2950,,281.5501877,2.490234375
2951,,281.5705457,2.75390625
2952,,281.5837983,2.9345703125
2953,,281.6200078,3.0615234375
2954,,281.6224794,3.10546875
2955,,281.6735503,3.0810546875
2956,,281.6739952,2.998046875
2957,,281.6943064,2.8857421875
2958,,281.7050863,2.7490234375
2959,,281.7233637,2.6171875
2960,,281.7713684,2.490234375
2961,,281.7717184,2.36328125
2962,,281.7845666,2.2412109375
2963,,281.8219633,2.1240234375
2964,,281.822362,2.0068359375
2965,,281.8663839,1.89453125
2966,,281.8669469,1.7822265625
2967,,281.8859116,1.6748046875
2968,,281.9041417,1.58203125
2969,,281.9381356,1.494140625
2970,,281.9435197,1.40625
2971,,281.9901093,1.328125
2972,,281.9904661,1.240234375
2973,,282.0116406,1.162109375
2974,,282.0253842,1.0791015625
2975,,282.0682531,1.0009765625
2976,,282.0689302,0.947265625
2977,,282.089366,0.95703125
2978,,282.1034946,1.0791015625
2979,,282.1239549,1.3134765625
2980,,282.1587679,1.5966796875
2981,,282.1793401,1.9140625
2982,,282.1836645,2.1826171875
2983,,282.2211152,2.4365234375
2984,,282.2262412,2.626953125
2985,,282.2617236,2.7734375
2986,,282.2621284,2.8466796875
2987,,282.303093,2.8662109375
2988,,282.3036623,2.822265625
2989,,282.323931,2.7294921875
2990,,282.3648942,2.607421875
2991,,282.3653342,2.48046875
2992,,282.4021524,2.353515625
2993,,282.4047369,2.2314453125
2994,,282.4402806,2.1142578125
2995,,282.4607341,2.0166015625
2996,,282.4631436,1.9189453125
2997,,282.497343,1.826171875
2998,,282.5191666,1.728515625
2999,,282.524871,1.6357421875
3000,,282.5589869,1.54296875
3001,,282.5808492,1.4501953125
3002,,282.5855032,1.34765625
3003,,282.6270354,1.2548828125
3004,,282.6272533,1.1572265625
3005,,282.6470399,1.064453125
3006,,282.6803,0.9765625
3007,,282.6846673,0.8935546875
3008,,282.7183925,0.810546875
3009,,282.7395952,0.76171875
3010,,282.7470501,0.7861328125
3011,,282.767698,0.9521484375
3012,,282.7839076,1.2060546875
3013,,282.8192651,1.533203125
3014,,282.8234275,1.8310546875
3015,,282.8587203,2.1142578125
3016,,282.8868742,2.3388671875
3017,,282.8873345,2.51953125
3018,,282.9061493,2.63671875
3019,,282.942699,2.7001953125
3020,,282.9459565,2.685546875
3021,,282.9812883,2.6220703125
3022,,283.0101718,2.5146484375
3023,,283.0105295,2.4072265625
3024,,283.0269846,2.294921875
3025,,283.046566,2.1826171875
3026,,283.0812788,2.08984375
3027,,283.0849975,1.9970703125
3028,,283.1225911,1.904296875
3029,,283.149397,1.8115234375
3030,,283.1497546,1.7138671875
3031,,283.1643154,1.62109375
3032,,283.2116636,1.5283203125
3033,,283.2121982,1.4404296875
3034,,283.2256188,1.3525390625
3035,,283.273282,1.279296875
3036,,283.2736387,1.201171875
3037,,283.2863377,1.123046875
3038,,283.3372203,1.0498046875
3039,,283.3376029,0.9912109375
3040,,283.3435583,0.9130859375
3041,,283.3787845,0.859375
3042,,283.3839832,0.7958984375
3043,,283.4177604,0.791015625
3044,,283.4378535,0.8837890625
3045,,283.4449365,1.1083984375
3046,,283.4793323,1.3671875
3047,,283.4995091,1.66015625
3048,,283.5034478,1.9091796875
3049,,283.538463,2.138671875
3050,,283.5716133,2.294921875
3051,,283.5719704,2.4169921875
3052,,283.5859356,2.470703125
3053,,283.6060988,2.4560546875
3054,,283.649053,2.3974609375
3055,,283.6494279,2.314453125
3056,,283.6666717,2.216796875
3057,,283.7114839,2.1240234375
3058,,283.7119523,2.0458984375
3059,,283.7420179,1.97265625
3060,,283.7450082,1.904296875
3061,,283.78107,1.8408203125
3062,,283.7876994,1.7724609375
3063,,283.8077172,1.7041015625
3064,,283.8480988,1.630859375
3065,,283.8484493,1.552734375
3066,,283.8830358,1.4697265625
3067,,283.886944,1.38671875
3068,,283.9223933,1.2939453125
3069,,283.9268038,1.2060546875
3070,,283.9728682,1.11328125
3071,,283.973301,1.025390625
3072,,283.9864165,0.927734375
3073,,284.0234826,0.83984375
3074,,284.052169,0.751953125
3075,,284.0525925,0.68359375
3076,,284.0653127,0.673828125
3077,,284.1016247,0.7958984375
3078,,284.1066229,1.025390625
3079,,284.1434057,1.337890625
3080,,284.1481323,1.650390625
3081,,284.1848616,1.953125
3082,,284.188128,2.197265625
3083,,284.2226015,2.4169921875
3084,,284.2289619,2.568359375
3085,,284.2455735,2.6513671875
3086,,284.2816168,2.6904296875
3087,,284.3018208,2.6708984375
3088,,284.3075662,2.6123046875
3089,,284.3448209,2.5244140625
3090,,284.3453436,2.431640625
3091,,284.3893399,2.333984375
3092,,284.3899038,2.2314453125
3093,,284.4094727,2.1435546875
3094,,284.4449805,2.060546875
3095,,284.4453419,1.97265625
3096,,284.4792231,1.884765625
3097,,284.5001617,1.796875
3098,,284.5062098,1.708984375
3099,,284.5422362,1.62109375
3100,,284.5608116,1.533203125
3101,,284.5680729,1.4453125
3102,,284.6039355,1.357421875
3103,,284.6259461,1.26953125
3104,,284.6269256,1.181640625
3105,,284.6621984,1.0986328125
3106,,284.6666379,1.015625
3107,,284.7155259,0.9423828125
3108,,284.7158714,0.888671875
3109,,284.7307249,0.908203125
3110,,284.7484029,1.0400390625
3111,,284.7834527,1.2939453125
3112,,284.8036623,1.5869140625
3113,,284.8063081,1.904296875
3114,,284.8418387,2.177734375
3115,,284.8460318,2.4365234375
3116,,284.8809151,2.646484375
3117,,284.9004174,2.7880859375
3118,,284.9086437,2.8759765625
3119,,284.9440706,2.880859375
3120,,284.9773982,2.8271484375
3121,,284.9777675,2.734375
3122,,284.9855939,2.626953125
3123,,285.0238473,2.5146484375
3124,,285.0453493,2.40234375
3125,,285.0458432,2.28515625
3126,,285.0830714,2.177734375
3127,,285.1031234,2.0849609375
3128,,285.1102413,1.9970703125
3129,,285.1674519,1.9091796875
3130,,285.1678529,1.81640625
3131,,285.1698802,1.7333984375
3132,,285.1879334,1.6455078125
3133,,285.2231283,1.572265625
3134,,285.2281537,1.4892578125
3135,,285.2638693,1.396484375
3136,,285.2669393,1.30859375
3137,,285.3028426,1.220703125
3138,,285.3239155,1.123046875
3139,,285.3309643,1.025390625
3140,,285.3478083,0.9326171875
3141,,285.4039676,0.869140625
3142,,285.4047191,0.8935546875
3143,,285.4154275,1.0595703125
3144,,285.4302405,1.3232421875
3145,,285.4484632,1.6357421875
3146,,285.4713826,1.923828125
3147,,285.5056336,2.2119140625
3148,,285.5103347,2.4560546875
3149,,285.5277504,2.646484375
3150,,285.5623307,2.8125
3151,,285.5694684,2.900390625
3152,,285.588018,2.9248046875
3153,,285.6266794,2.8857421875
3154,,285.6560764,2.8173828125
3155,,285.6564388,2.71484375
3156,,285.6697639,2.6123046875
3157,,285.7034389,2.5048828125
3158,,285.7063783,2.4072265625
3159,,285.7508242,2.2998046875
3160,,285.7514273,2.2021484375
3161,,285.7674357,2.109375
3162,,285.8101041,2.01171875
3163,,285.8104611,1.9140625
3164,,285.8307541,1.8115234375
3165,,285.8679339,1.69921875
3166,,285.8701999,1.5966796875
3167,,285.9040014,1.50390625
3168,,285.9261504,1.4013671875
3169,,285.9267291,1.3037109375
3170,,285.9622398,1.2060546875
3171,,285.9921367,1.103515625
3172,,285.9925517,1.005859375
3173,,286.02748,0.91796875
3174,,286.0317159,0.859375
3175,,286.0712127,0.8837890625
3176,,286.0715604,1.0400390625
3177,,286.0881972,1.318359375
3178,,286.125594,1.62109375
3179,,286.1265104,1.9482421875
3180,,286.16437,2.2314453125
3181,,286.1851545,2.4658203125
3182,,286.1897211,2.666015625
3183,,286.2245776,2.802734375
3184,,286.246103,2.880859375
3185,,286.248497,2.8857421875
3186,,286.2829405,2.8466796875
3187,,286.2881098,2.763671875
3188,,286.3231181,2.65625
3189,,286.3451743,2.548828125
3190,,286.3523085,2.431640625
3191,,286.3971424,2.314453125
3192,,286.3974998,2.2021484375
3193,,286.4080647,2.1044921875
3194,,286.4447188,2.0068359375
3195,,286.4531789,1.9140625
3196,,286.4693674,1.796875
3197,,286.5039169,1.7041015625
3198,,286.5240508,1.6162109375
3199,,286.5306854,1.5234375
3200,,286.566032,1.435546875
3201,,286.5858974,1.3525390625
3202,,286.5919972,1.2646484375
3203,,286.6250031,1.1767578125
3204,,286.6471403,1.0888671875
3205,,286.6475681,1.0107421875
3206,,286.6867781,0.9326171875
3207,,286.7078127,0.869140625
3208,,286.7112074,0.8642578125
3209,,286.746354,0.9814453125
3210,,286.7508954,1.19140625
3211,,286.7839774,1.484375
3212,,286.8041074,1.7724609375
3213,,286.809217,2.021484375
3214,,286.8430191,2.24609375
3215,,286.8639404,2.40234375
3216,,286.8700573,2.509765625
3217,,286.9149063,2.55859375
3218,,286.9152694,2.5634765625
3219,,286.9337536,2.509765625
3220,,286.9770913,2.4267578125
3221,,286.9774504,2.333984375
3222,,286.9897274,2.236328125
3223,,287.0260602,2.1484375
3224,,287.0290116,2.0654296875
3225,,287.0713892,1.9873046875
3226,,287.0719551,1.9091796875
3227,,287.1029299,1.8310546875
3228,,287.1129137,1.7431640625
3229,,287.1481213,1.6552734375
3230,,287.1487066,1.5673828125
3231,,287.1926489,1.4892578125
3232,,287.1930239,1.4013671875
3233,,287.2137284,1.3232421875
3234,,287.2309488,1.2353515625
3235,,287.2654198,1.1474609375
3236,,287.2886625,1.0595703125
3237,,287.294001,0.9765625
3238,,287.3131373,0.8935546875
3239,,287.3333233,0.8203125
3240,,287.3507725,0.7666015625
3241,,287.3949973,0.791015625
3242,,287.3953517,0.927734375
3243,,287.4119589,1.201171875
3244,,287.4483989,1.513671875
3245,,287.4500816,1.8017578125
3246,,287.4833316,2.0703125
3247,,287.5035849,2.2802734375
3248,,287.5116864,2.4462890625
3249,,287.5492949,2.548828125
3250,,287.549653,2.6025390625
3251,,287.5838584,2.59765625
3252,,287.6057946,2.5439453125
3253,,287.6131295,2.4658203125
3254,,287.6329067,2.3583984375
3255,,287.670351,2.255859375
3256,,287.6748706,2.158203125
3257,,287.6893388,2.0751953125
3258,,287.7212974,2.001953125
3259,,287.7355877,1.93359375
3260,,287.75061,1.8603515625
3261,,287.7726853,1.7919921875
3262,,287.8223828,1.71875
3263,,287.8226772,1.6455078125
3264,,287.8333499,1.5673828125
3265,,287.8683383,1.4892578125
3266,,287.8991615,1.4111328125
3267,,287.8996739,1.34765625
3268,,287.9112193,1.2841796875
3269,,287.9306165,1.2158203125
3270,,287.9769509,1.142578125
3271,,287.9773269,1.0791015625
3272,,287.9985219,1.0205078125
3273,,288.0140059,0.99609375
3274,,288.0515917,1.044921875
3275,,288.0520784,1.23046875
3276,,288.0985239,1.494140625
3277,,288.0989313,1.77734375
3278,,288.1184639,2.0751953125
3279,,288.1332633,2.3291015625
3280,,288.1669015,2.55859375
3281,,288.1745209,2.734375
3282,,288.1917058,2.8662109375
3283,,288.2270653,2.9296875
3284,,288.2464489,2.9248046875
3285,,288.2512529,2.87109375
3286,,288.2851177,2.783203125
3287,,288.3091471,2.6806640625
3288,,288.3110122,2.5732421875
3289,,288.344215,2.470703125
3290,,288.3664813,2.3779296875
3291,,288.3743784,2.28515625
3292,,288.4145194,2.1826171875
3293,,288.4149881,2.08984375
3294,,288.4297198,1.9970703125
3295,,288.465389,1.9140625
3296,,288.4857224,1.8310546875
3297,,288.4928932,1.7431640625
3298,,288.53851,1.66015625
3299,,288.5389849,1.5673828125
3300,,288.5526556,1.4794921875
3301,,288.5867447,1.38671875
3302,,288.6097289,1.2939453125
3303,,288.6103583,1.2109375
3304,,288.6453558,1.1328125
3305,,288.6653141,1.0595703125
3306,,288.672193,1.0400390625
3307,,288.7079161,1.1279296875
3308,,288.7274786,1.34765625
3309,,288.7336851,1.611328125
3310,,288.7550192,1.9189453125
3311,,288.7905157,2.1923828125
3312,,288.796016,2.4658203125
3313,,288.811584,2.6806640625
3314,,288.8481084,2.880859375
3315,,288.853348,2.9931640625
3316,,288.8880905,3.046875
3317,,288.8937623,3.0322265625
3318,,288.9322497,2.958984375
3319,,288.9348168,2.8564453125
3320,,288.9725505,2.744140625
3321,,288.9729968,2.6220703125
3322,,289.0100014,2.509765625
3323,,289.0104636,2.3974609375
3324,,289.046839,2.28515625
3325,,289.0662741,2.1728515625
3326,,289.0735332,2.0751953125
3327,,289.1065184,1.9775390625
3328,,289.1271362,1.875
3329,,289.1347569,1.7724609375
3330,,289.1518136,1.6796875
3331,,289.1882432,1.58203125
3332,,289.2215958,1.484375
3333,,289.2221044,1.376953125
3334,,289.2349028,1.2646484375
3335,,289.283482,1.15234375
3336,,289.2838343,1.044921875
3337,,289.2963098,0.9375
3338,,289.3117947,0.8447265625
3339,,289.3607265,0.83984375
3340,,289.3610793,0.9619140625
3341,,289.371367,1.1572265625
3342,,289.4052318,1.474609375
3343,,289.4269688,1.77734375
3344,,289.4365919,2.0703125
3345,,289.4564682,2.314453125
3346,,289.4759011,2.529296875
3347,,289.5109047,2.6708984375
3348,,289.5313202,2.7685546875
3349,,289.5318852,2.79296875
3350,,289.5904618,2.7685546875
3351,,289.6009823,2.7001953125
3352,,289.6014134,2.6220703125
3353,,289.6151123,2.529296875
3354,,289.665226,2.4365234375
3355,,289.6657252,2.3388671875
3356,,289.6763734,2.2412109375
3357,,289.7131608,2.138671875
3358,,289.7136309,2.0556640625
3359,,289.7413077,1.9775390625
3360,,289.753014,1.884765625
3361,,289.7921855,1.796875
3362,,289.7925902,1.708984375
3363,,289.8211964,1.6162109375
3364,,289.8362312,1.5283203125
3365,,289.8721122,1.4306640625
3366,,289.8725955,1.3232421875
3367,,289.9046971,1.220703125
3368,,289.9259181,1.123046875
3369,,289.9327082,1.025390625
3370,,289.9766529,0.9326171875
3371,,289.9770561,0.8740234375
3372,,290.0059397,0.87890625
3373,,290.0268614,0.99609375
3374,,290.0377741,1.2353515625
3375,,290.0538245,1.513671875
3376,,290.0787545,1.81640625
3377,,290.0935895,2.05078125
3378,,290.1341405,2.2900390625
3379,,290.1636393,2.4560546875
3380,,290.1639548,2.578125
3381,,290.1749247,2.6416015625
3382,,290.2116669,2.6416015625
3383,,290.2411321,2.587890625
3384,,290.2416068,2.509765625
3385,,290.2530568,2.4072265625
3386,,290.2885409,2.3095703125
3387,,290.321698,2.216796875
3388,,290.3222243,2.12890625
3389,,290.3340673,2.0458984375
3390,,290.3705314,1.9677734375
3391,,290.4001103,1.884765625
3392,,290.4004611,1.8017578125
3393,,290.4172471,1.7138671875
3394,,290.4356283,1.6259765625
3395,,290.4534312,1.54296875
3396,,290.4887735,1.46484375
3397,,290.5228334,1.38671875
3398,,290.5232514,1.30859375
3399,,290.535486,1.23046875
3400,,290.5697331,1.1474609375
3401,,290.5905775,1.064453125
3402,,290.592377,0.986328125
3403,,290.6271857,0.927734375
3404,,290.6456183,0.8984375
3405,,290.6542134,0.966796875
3406,,290.7067908,1.1767578125
3407,,290.7072951,1.4404296875
3408,,290.7169505,1.7529296875
3409,,290.7372947,2.0263671875
3410,,290.772506,2.2900390625
3411,,290.7728062,2.4853515625
3412,,290.8081038,2.65625
3413,,290.8128362,2.763671875
3414,,290.8484099,2.8173828125
3415,,290.8760586,2.802734375
3416,,290.8765513,2.744140625
3417,,290.9118743,2.6611328125
3418,,290.9381993,2.568359375
3419,,290.9387807,2.4755859375
3420,,290.9581715,2.3828125
3421,,290.9936694,2.28515625
3422,,290.9939728,2.197265625
3423,,291.0311539,2.1337890625
3424,,291.0623716,2.0556640625
3425,,291.0627212,1.97265625
3426,,291.0775827,1.8896484375
3427,,291.1244879,1.806640625
3428,,291.1249945,1.7236328125
3429,,291.1467196,1.640625
3430,,291.1546031,1.552734375
3431,,291.1895379,1.474609375
3432,,291.1945297,1.38671875
3433,,291.2337544,1.2939453125
3434,,291.2636458,1.2060546875
3435,,291.2640064,1.123046875
3436,,291.2793954,1.0595703125
3437,,291.3152328,1.0693359375
3438,,291.3183405,1.2060546875
3439,,291.3340791,1.4306640625
3440,,291.3708417,1.728515625
3441,,291.3762024,2.01171875
3442,,291.4174605,2.28515625
3443,,291.4178148,2.5048828125
3444,,291.4368081,2.705078125
3445,,291.4731721,2.841796875
3446,,291.4942863,2.91015625
3447,,291.4946298,2.91015625
3448,,291.5421155,2.87109375
3449,,291.5427392,2.79296875
3450,,291.5632943,2.6904296875
3451,,291.5762998,2.578125
3452,,291.6210483,2.470703125
3453,,291.621604,2.3681640625
3454,,291.6387955,2.2705078125
3455,,291.6592898,2.1826171875
3456,,291.6971644,2.0947265625
3457,,291.6990843,1.9970703125
3458,,291.7148025,1.8994140625
3459,,291.7520786,1.806640625
3460,,291.7559377,1.71875
3461,,291.790512,1.6357421875
3462,,291.8126319,1.54296875
3463,,291.8198068,1.455078125
3464,,291.8380178,1.3720703125
3465,,291.8815969,1.279296875
3466,,291.8821151,1.1865234375
3467,,291.912288,1.11328125
3468,,291.9166953,1.0400390625
3469,,291.9379155,0.99609375
3470,,291.9899559,1.064453125
3471,,291.9903912,1.2451171875
3472,,291.9997403,1.5283203125
3473,,292.0343273,1.826171875
3474,,292.0398104,2.1337890625
3475,,292.0566578,2.4072265625
3476,,292.093068,2.6611328125
3477,,292.0980749,2.87109375
3478,,292.1434918,3.017578125
3479,,292.1441735,3.0859375
3480,,292.1575496,3.0908203125
3481,,292.1922795,3.0322265625
3482,,292.2134142,2.9248046875
3483,,292.2206063,2.8125
3484,,292.2354968,2.685546875
3485,,292.2837523,2.568359375
3486,,292.284169,2.4267578125
3487,,292.3155898,2.3291015625
3488,,292.3159881,2.216796875
3489,,292.3603875,2.1044921875
3490,,292.3613881,2.0068359375
3491,,292.3829648,1.9091796875
3492,,292.3988179,1.8115234375
3493,,292.4369267,1.7138671875
3494,,292.4374837,1.6259765625
3495,,292.4685738,1.54296875
3496,,292.4787473,1.4599609375
3497,,292.5144543,1.3671875
3498,,292.519309,1.26953125
3499,,292.5607846,1.1767578125
3500,,292.561232,1.083984375
3501,,292.5819902,1.005859375
3502,,292.5993313,0.9814453125
3503,,292.6180221,1.064453125
3504,,292.6380852,1.279296875
3505,,292.6744461,1.552734375
3506,,292.6788567,1.8701171875
3507,,292.7126875,2.1533203125
3508,,292.7177509,2.4267578125
3509,,292.7523607,2.6416015625
3510,,292.7731363,2.8173828125
3511,,292.7751536,2.9150390625
3512,,292.8084096,2.958984375
3513,,292.8292855,2.9296875
3514,,292.8379403,2.8564453125
3515,,292.8740306,2.75390625
3516,,292.8793899,2.626953125
3517,,292.9148378,2.5
3518,,292.9190963,2.3779296875
3519,,292.9571813,2.265625
3520,,292.9575445,2.1533203125
3521,,292.9788817,2.0556640625
3522,,293.0136378,1.9580078125
3523,,293.0182856,1.8603515625
3524,,293.0524858,1.7578125
3525,,293.0751191,1.66015625
3526,,293.0804376,1.5673828125
3527,,293.0999662,1.4697265625
3528,,293.1360858,1.376953125
3529,,293.1398488,1.279296875
3530,,293.1740096,1.1767578125
3531,,293.1763023,1.0888671875
3532,,293.2295128,1.005859375
3533,,293.2299975,0.9228515625
3534,,293.2556138,0.8642578125
3535,,293.2612871,0.8740234375
3536,,293.2958905,1.015625
3537,,293.3011061,1.240234375
3538,,293.3356919,1.533203125
3539,,293.3361734,1.81640625
3540,,293.3580399,2.0947265625
3541,,293.3927759,2.3193359375
3542,,293.4233602,2.5048828125
3543,,293.4238695,2.6318359375
3544,,293.4415434,2.7099609375
3545,,293.4669768,2.7099609375
3546,,293.4849309,2.666015625
3547,,293.4998911,2.5830078125
3548,,293.5342918,2.470703125
3549,,293.5389311,2.353515625
3550,,293.5749142,2.24609375
3551,,293.579379,2.1435546875
3552,,293.6153835,2.0556640625
3553,,293.6219124,1.962890625
3554,,293.6433072,1.865234375
3555,,293.6617107,1.7724609375
3556,,293.6782198,1.6748046875
3557,,293.702595,1.5771484375
3558,,293.7179778,1.455078125
3559,,293.7542818,1.3671875
3560,,293.778945,1.279296875
3561,,293.7793077,1.19140625
3562,,293.8151606,1.103515625
3563,,293.8200227,1.015625
3564,,293.8541068,0.9228515625
3565,,293.8757589,0.830078125
3566,,293.8831296,0.7421875
3567,,293.8988695,0.693359375
3568,,293.934666,0.751953125
3569,,293.9392794,0.9375
3570,,293.9743562,1.23046875
3571,,294.0085705,1.54296875
3572,,294.008898,1.8505859375
3573,,294.0219593,2.109375
3574,,294.0574614,2.3388671875
3575,,294.0867227,2.5048828125
3576,,294.0872587,2.646484375
3577,,294.098986,2.7099609375
3578,,294.133665,2.705078125
3579,,294.1550334,2.6513671875
3580,,294.1608962,2.568359375
3581,,294.2083513,2.4658203125
3582,,294.2087454,2.3583984375
3583,,294.2223352,2.255859375
3584,,294.2385914,2.158203125
3585,,294.2843544,2.0751953125
3586,,294.2855567,1.9921875
3587,,294.3056384,1.9140625
3588,,294.3215645,1.826171875
3589,,294.3602778,1.7431640625
3590,,294.3607563,1.6552734375
3591,,294.3978184,1.572265625
3592,,294.4249736,1.4990234375
3593,,294.4253168,1.4306640625
3594,,294.4377048,1.357421875
3595,,294.4722213,1.2890625
3596,,294.5029649,1.220703125
3597,,294.5034583,1.142578125
3598,,294.5221276,1.0791015625
3599,,294.5655356,1.025390625
3600,,294.5660603,1.0205078125
3601,,294.5833288,1.1181640625
3602,,294.6272412,1.34765625
3603,,294.6277777,1.62109375
3604,,294.6398611,1.9189453125
3605,,294.6742741,2.1875
3606,,294.7039823,2.4365234375
3607,,294.7044295,2.6220703125
3608,,294.7512059,2.783203125
3609,,294.7516757,2.8662109375
3610,,294.7715386,2.880859375
3611,,294.7845919,2.841796875
3612,,294.8006525,2.744140625
3613,,294.8212994,2.6220703125
3614,,294.8589751,2.490234375
3615,,294.8595203,2.353515625
3616,,294.8954298,2.2265625
3617,,294.9219777,2.1142578125
3618,,294.9227098,2.01171875
3619,,294.9570404,1.9140625
3620,,294.9767754,1.81640625
3621,,294.9788334,1.728515625
3622,,295.0139337,1.6455078125
3623,,295.0457295,1.5576171875
3624,,295.0463462,1.474609375
3625,,295.0607321,1.3916015625
3626,,295.0961648,1.30859375
3627,,295.1249557,1.2255859375
3628,,295.1258174,1.142578125
3629,,295.1390841,1.0595703125
3630,,295.1747953,0.986328125
3631,,295.2026825,0.87890625
3632,,295.2031579,0.83984375
3633,,295.2555116,0.8837890625
3634,,295.2559323,1.07421875
3635,,295.2616395,1.3427734375
3636,,295.2959093,1.6748046875
3637,,295.3166566,1.9873046875
3638,,295.323001,2.294921875
3639,,295.3400321,2.5439453125
3640,,295.3781223,2.7880859375
3641,,295.3802914,2.9541015625
3642,,295.4155976,3.0615234375
3643,,295.4369922,3.0810546875
3644,,295.4424547,3.037109375
3645,,295.4784003,2.9443359375
3646,,295.4998383,2.8271484375
3647,,295.5039924,2.705078125
3648,,295.5205564,2.578125
3649,,295.5427238,2.4658203125
3650,,295.5789746,2.353515625
3651,,295.5823374,2.236328125
3652,,295.6254375,2.1240234375
3653,,295.6260909,2.0263671875
3654,,295.6473155,1.9189453125
3655,,295.6650498,1.81640625
3656,,295.6821287,1.7138671875
3657,,295.7183763,1.6162109375
3658,,295.7202913,1.5185546875
3659,,295.7542359,1.4111328125
3660,,295.7759311,1.30859375
3661,,295.7808996,1.2109375
3662,,295.8132034,1.1083984375
3663,,295.8342749,1.005859375
3664,,295.8444049,0.8935546875
3665,,295.8591316,0.7958984375
3666,,295.8915553,0.7958984375
3667,,295.9135942,0.8984375
3668,,295.9216982,1.1572265625
3669,,295.9670551,1.4453125
3670,,295.9681263,1.7529296875
3671,,295.9873959,2.0166015625
3672,,296.0059283,2.2509765625
3673,,296.0398567,2.421875
3674,,296.048107,2.548828125
3675,,296.0818535,2.6318359375
3676,,296.0824233,2.63671875
3677,,296.1167505,2.607421875
3678,,296.1210546,2.5341796875
3679,,296.1542228,2.44140625
3680,,296.1761336,2.3486328125
3681,,296.1831894,2.255859375
3682,,296.2188526,2.16796875
3683,,296.2403146,2.08984375
3684,,296.2407475,2.0166015625
3685,,296.2781105,1.9384765625
3686,,296.2987554,1.85546875
3687,,296.302935,1.767578125
3688,,296.3376314,1.6796875
3689,,296.3600234,1.58203125
3690,,296.364048,1.4794921875
3691,,296.3988098,1.3818359375
3692,,296.433084,1.2744140625
3693,,296.4334639,1.162109375
3694,,296.4412156,1.064453125
3695,,296.477241,0.9716796875
3696,,296.4988918,0.8837890625
3697,,296.5031977,0.8056640625
3698,,296.5372833,0.771484375
3699,,296.557426,0.8349609375
3700,,296.563951,1.044921875
3701,,296.5990305,1.3134765625
3702,,296.6054432,1.630859375
3703,,296.6219589,1.8798828125
3704,,296.6583293,2.138671875
3705,,296.6783819,2.333984375
3706,,296.6832433,2.48046875
3707,,296.7168432,2.5732421875
3708,,296.742105,2.59765625
3709,,296.7441239,2.5634765625
3710,,296.7776018,2.490234375
3711,,296.803931,2.3974609375
3712,,296.8045016,2.294921875
3713,,296.8399922,2.2021484375
3714,,296.8443571,2.1240234375
3715,,296.8824261,2.05078125
3716,,296.883045,1.9775390625
3717,,296.9167018,1.904296875
3718,,296.9376791,1.826171875
3719,,296.9460043,1.7431640625
3720,,296.9794721,1.66015625
3721,,296.9838823,1.591796875
3722,,297.0030035,1.5185546875
3723,,297.0376053,1.4453125
3724,,297.0593025,1.3720703125
3725,,297.0654769,1.2939453125
3726,,297.1020195,1.2158203125
3727,,297.1064053,1.142578125
3728,,297.15039,1.064453125
3729,,297.150975,0.9912109375
3730,,297.1618463,0.947265625
3731,,297.1951343,0.9814453125
3732,,297.2169635,1.142578125
3733,,297.2253928,1.396484375
3734,,297.2602101,1.7041015625
3735,,297.2640359,1.9921875
3736,,297.297317,2.275390625
3737,,297.3178448,2.5048828125
3738,,297.3223529,2.7197265625
3739,,297.355595,2.8759765625
3740,,297.3765812,2.9296875
3741,,297.3846792,2.958984375
3742,,297.4211161,2.919921875
3743,,297.4235594,2.8466796875
3744,,297.4611195,2.734375
3745,,297.4804849,2.6220703125
3746,,297.4876581,2.5146484375
3747,,297.5222966,2.3974609375
3748,,297.5226556,2.2900390625
3749,,297.5437637,2.1923828125
3750,,297.5836476,2.099609375
3751,,297.5841848,2.001953125
3752,,297.6195682,1.8994140625
3753,,297.6451949,1.796875
3754,,297.6455518,1.6943359375
3755,,297.6792131,1.6015625
3756,,297.6999462,1.50390625
3757,,297.7018638,1.40625
3758,,297.7369744,1.3134765625
3759,,297.7563514,1.220703125
3760,,297.764304,1.1279296875
3761,,297.80436,1.0400390625
3762,,297.8335693,0.966796875
3763,,297.833923,0.95703125
3764,,297.8472965,1.0791015625
3765,,297.8630284,1.318359375
3766,,297.9000157,1.640625
3767,,297.9028082,1.9580078125
3768,,297.9379749,2.2802734375
3769,,297.9685108,2.5537109375
3770,,297.9691092,2.8173828125
3771,,298.0164491,3.0322265625
3772,,298.0169449,3.1591796875
3773,,298.0473123,3.2275390625
3774,,298.0476701,3.2177734375
3775,,298.0694647,3.1591796875
3776,,298.0859994,3.0224609375
3777,,298.1174902,2.91015625
3778,,298.125218,2.7880859375
3779,,298.1608737,2.65625
3780,,298.1664459,2.5244140625
3781,,298.203845,2.392578125
3782,,298.2089288,2.2607421875
3783,,298.229471,2.1337890625
3784,,298.2449737,2.0166015625
3785,,298.2887691,1.904296875
3786,,298.2891587,1.796875
3787,,298.3055499,1.689453125
3788,,298.3399614,1.58203125
3789,,298.3620761,1.4794921875
3790,,298.3700234,1.3671875
3791,,298.3875769,1.2646484375
3792,,298.4301513,1.1572265625
3793,,298.430785,1.0546875
3794,,298.4437598,0.9619140625
3795,,298.4797213,0.888671875
3796,,298.4992371,0.8935546875
3797,,298.507623,1.03515625
3798,,298.5527178,1.2939453125
3799,,298.5531053,1.591796875
3800,,298.567272,1.9091796875
3801,,298.5836123,2.1728515625
3802,,298.6329366,2.431640625
3803,,298.6335193,2.646484375
3804,,298.6449357,2.79296875
3805,,298.694498,2.8857421875
3806,,298.6948301,2.919921875
3807,,298.7149169,2.8955078125
3808,,298.729054,2.822265625
3809,,298.7654985,2.7294921875
3810,,298.7658175,2.6171875
3811,,298.7901643,2.509765625
3812,,298.8058398,2.373046875
3813,,298.8505726,2.265625
3814,,298.851254,2.158203125
3815,,298.8677529,2.0556640625
3816,,298.9021564,1.953125
3817,,298.9071103,1.845703125
3818,,298.9455909,1.73828125
3819,,298.9674384,1.640625
3820,,298.9679,1.5478515625
3821,,299.007011,1.4453125
3822,,299.0073349,1.34765625
3823,,299.0424545,1.2451171875
3824,,299.0472022,1.142578125
3825,,299.085185,1.0498046875
3826,,299.0872936,0.95703125
3827,,299.1225291,0.859375
3828,,299.1465672,0.7861328125
3829,,299.1469801,0.78125
3830,,299.1824254,0.9228515625
3831,,299.1873178,1.162109375
3832,,299.2229234,1.4697265625
3833,,299.2275844,1.7578125
3834,,299.2624929,2.041015625
3835,,299.2708972,2.2802734375
3836,,299.2882051,2.451171875
3837,,299.3354126,2.5732421875
3838,,299.335984,2.63671875
3839,,299.3658762,2.646484375
3840,,299.3667398,2.59765625
3841,,299.4040729,2.5048828125
3842,,299.4060819,2.392578125
3843,,299.4430776,2.2705078125
3844,,299.4628401,2.158203125
3845,,299.4688212,2.0556640625
3846,,299.4864051,1.953125
3847,,299.5361218,1.8603515625
3848,,299.5364522,1.73828125
3849,,299.5474353,1.6455078125
3850,,299.5673194,1.5478515625
3851,,299.6132107,1.4453125
3852,,299.6137451,1.34765625
3853,,299.6296502,1.2451171875
3854,,299.6662682,1.1474609375
3855,,299.6706038,1.0546875
3856,,299.7052642,0.966796875
3857,,299.7056192,0.8740234375
3858,,299.7394164,0.8056640625
3859,,299.7619764,0.732421875
3860,,299.7694996,0.654296875
3861,,299.7882885,0.615234375
3862,,299.8277763,0.6396484375
3863,,299.8284601,0.80078125
3864,,299.8668872,1.083984375
3865,,299.8672817,1.4013671875
3866,,299.9035621,1.728515625
3867,,299.9084242,2.01171875
3868,,299.9451901,2.2265625
3869,,299.9499604,2.3974609375
3870,,299.9687302,2.5
3871,,299.9903767,2.55859375
3872,,300.0120085,2.55859375
3873,,300.0311134,2.5048828125
3874,,300.0476349,2.431640625
3875,,300.066676,2.3486328125
3876,,300.1094239,2.255859375
3877,,300.1100311,2.1630859375
3878,,300.1299588,2.0849609375
3879,,300.1639579,2.001953125
3880,,300.1882278,1.9287109375
3881,,300.18854,1.8408203125
3882,,300.2067582,1.7578125
3883,,300.2417229,1.6845703125
3884,,300.2614417,1.5771484375
3885,,300.2663945,1.4794921875
3886,,300.3000437,1.4208984375
3887,,300.3204171,1.34765625
3888,,300.3285815,1.2744140625
3889,,300.3747912,1.2060546875
3890,,300.3758778,1.1279296875
3891,,300.403797,1.0546875
3892,,300.4106356,0.9765625
3893,,300.4267137,0.908203125
3894,,300.4615114,0.87890625
3895,,300.4818218,0.9326171875
3896,,300.4888587,1.1279296875
3897,,300.523071,1.396484375
3898,,300.5434742,1.71875
3899,,300.5506171,2.0263671875
3900,,300.5899238,2.28515625
3901,,300.6201822,2.5146484375
3902,,300.6205908,2.6904296875
3903,,300.628265,2.8369140625
3904,,300.6471583,2.9052734375
3905,,300.6957001,2.9150390625
3906,,300.6962019,2.87109375
3907,,300.7267923,2.79296875
3908,,300.7319256,2.6904296875
3909,,300.7520121,2.5927734375
3910,,300.7676935,2.490234375
3911,,300.8058487,2.392578125
3912,,300.8062986,2.294921875
3913,,300.8490698,2.1875
3914,,300.8494958,2.08984375
3915,,300.8692911,1.9970703125
3916,,300.9099907,1.89453125
3917,,300.9104466,1.796875
3918,,300.9561711,1.69921875
3919,,300.9571423,1.5966796875
3920,,300.9759124,1.5087890625
3921,,300.9891096,1.3916015625
3922,,301.0261404,1.3037109375
3923,,301.029562,1.220703125
3924,,301.0782056,1.1279296875
3925,,301.0785785,1.0400390625
3926,,301.0904712,0.9619140625
3927,,301.1259047,0.9375
3928,,301.1566849,1.0302734375
3929,,301.1569911,1.240234375
3930,,301.1698201,1.5380859375
3931,,301.1896329,1.8603515625
3932,,301.2351423,2.1337890625
3933,,301.2354804,2.3974609375
3934,,301.2517174,2.6123046875
3935,,301.2720398,2.7978515625
3936,,301.3124435,2.9052734375
3937,,301.3128002,2.958984375
3938,,301.3302351,2.939453125
3939,,301.3490216,2.880859375
3940,,301.3692406,2.79296875
3941,,301.4047105,2.6806640625
3942,,301.4247354,2.568359375
3943,,301.4309382,2.4609375
3944,,301.4514422,2.353515625
3945,,301.49912,2.24609375
3946,,301.4997243,2.1435546875
3947,,301.5202302,2.060546875
3948,,301.5295082,1.962890625
3949,,301.5646437,1.865234375
3950,,301.5686777,1.767578125
3951,,301.6102325,1.669921875
3952,,301.6107458,1.5625
3953,,301.6411346,1.46484375
3954,,301.651904,1.3720703125
3955,,301.6696917,1.2744140625
3956,,301.7177931,1.181640625
3957,,301.7182373,1.0546875
3958,,301.7310077,0.9716796875
3959,,301.766973,0.888671875
3960,,301.7712959,0.869140625
3961,,301.7925604,0.947265625
3962,,301.8127788,1.1669921875
3963,,301.8339624,1.46484375
3964,,301.86925,1.7578125
3965,,301.8712849,2.0458984375
3966,,301.9065829,2.28515625
3967,,301.9088522,2.5
3968,,301.9437434,2.65625
3969,,301.9646015,2.763671875
3970,,301.9707562,2.7978515625
3971,,302.0057224,2.7783203125
3972,,302.0297424,2.7099609375
3973,,302.0348211,2.6171875
3974,,302.0513545,2.5146484375
3975,,302.0701557,2.4072265625
3976,,302.1071446,2.3046875
3977,,302.1114049,2.197265625
3978,,302.1460188,2.099609375
3979,,302.1535239,2.0068359375
3980,,302.172748,1.904296875
3981,,302.1945195,1.8115234375
3982,,302.2315145,1.7138671875
3983,,302.232104,1.6162109375
3984,,302.2520342,1.5283203125
3985,,302.2697208,1.435546875
3986,,302.3097061,1.34765625
3987,,302.310131,1.259765625
3988,,302.3565785,1.1669921875
3989,,302.3569843,1.083984375
3990,,302.3771423,0.9912109375
3991,,302.3903721,0.908203125
3992,,302.4141979,0.8349609375
3993,,302.4292645,0.7666015625
3994,,302.4628472,0.830078125
3995,,302.4839874,1.0205078125
3996,,302.4908401,1.279296875
3997,,302.5246713,1.58203125
3998,,302.5604872,1.845703125
3999,,302.5608293,2.08984375
4000,,302.5733435,2.265625
4001,,302.6239884,2.392578125
4002,,302.6243569,2.451171875
4003,,302.6304272,2.4658203125
4004,,302.6660718,2.421875
4005,,302.6864599,2.34375
4006,,302.6944782,2.2509765625
4007,,302.7131227,2.1484375
4008,,302.7328759,2.05078125
4009,,302.7788916,1.953125
4010,,302.7791855,1.865234375
4011,,302.7971028,1.796875
4012,,302.8102473,1.7236328125
4013,,302.8493518,1.650390625
4014,,302.8533443,1.58203125
4015,,302.9011111,1.5087890625
4016,,302.9015976,1.435546875
4017,,302.9119992,1.3623046875
4018,,302.9464589,1.2939453125
4019,,302.9677062,1.2255859375
4020,,302.9698326,1.1572265625
4021,,303.00897,1.0888671875
4022,,303.0299424,1.0107421875
4023,,303.0327193,0.9423828125
4024,,303.0705912,0.87890625
4025,,303.0910306,0.8154296875
4026,,303.0929749,0.80078125
4027,,303.1285866,0.9033203125
4028,,303.1480909,1.123046875
4029,,303.1560052,1.4306640625
4030,,303.1737777,1.708984375
4031,,303.1943055,2.0068359375
4032,,303.2408244,2.2412109375
4033,,303.2412016,2.4365234375
4034,,303.254171,2.568359375
4035,,303.2744233,2.6611328125
4036,,303.318086,2.685546875
4037,,303.3183931,2.666015625
4038,,303.3328667,2.607421875
4039,,303.3527889,2.5341796875
4040,,303.3910325,2.451171875
4041,,303.3914064,2.36328125
