fs,t,y
51.434232576999285,0.3256038000000001,1.3720703125
,0.3334017,1.3818359375
,0.35206079999999984,1.474609375
,0.3905432000000002,1.7431640625
,0.4127569000000002,2.1044921875
,0.4131971000000001,2.51953125
,0.4303642000000001,2.890625
,0.46809199999999995,3.232421875
,0.4721215000000001,3.466796875
,0.5076665,3.603515625
,0.5130289000000001,3.65234375
,0.5476391,3.6669921875
,0.5522645000000002,3.5986328125
,0.5864742999999999,3.447265625
,0.6075040999999999,3.251953125
,0.6172181000000001,3.0224609375
,0.635421,2.8076171875
,0.6517452000000001,2.6220703125
,0.6975449,2.5
,0.6978933999999999,2.3779296875
,0.712853,2.2802734375
,0.7595079999999998,2.197265625
,0.7599852,2.1435546875
,0.7744333000000001,2.0751953125
,0.8092114000000001,2.021484375
,0.8094762000000002,1.943359375
,0.8309462000000001,1.8896484375
,0.8518338000000001,1.81640625
,0.8992675000000001,1.748046875
,0.8996146,1.6552734375
,0.9132756,1.5966796875
,0.9510524999999999,1.533203125
,0.9544796999999998,1.4794921875
,0.9903331,1.4306640625
,0.9907051,1.38671875
,1.0253861,1.3671875
,1.0527326000000001,1.34765625
,1.0530385999999998,1.337890625
,1.0997195,1.3134765625
,1.0999919,1.2841796875
,1.1138493,1.2744140625
,1.1618594999999998,1.3330078125
,1.1621669,1.533203125
,1.1804728,1.9189453125
,1.191592,2.34375
,1.2281974,2.7734375
,1.2329569,3.1982421875
,1.2674387,3.4912109375
,1.2879065,3.6767578125
,1.2929165,3.6767578125
,1.3294407000000001,3.6767578125
,1.3297294000000002,3.6767578125
,1.3670290999999999,3.6767578125
,1.372372,3.5595703125
,1.4095290999999999,3.3935546875
,1.4114979,3.173828125
,1.4485131999999998,2.9833984375
,1.469653,2.7880859375
,1.4745909,2.6318359375
,1.5151599,2.48046875
,1.5156,2.3681640625
,1.5333218999999998,2.24609375
,1.5689788,2.2119140625
,1.5742018,2.1484375
,1.6102016,2.0654296875
,1.6132700999999998,1.9921875
,1.6499991,1.904296875
,1.6552877000000001,1.8115234375
,1.692151,1.71875
,1.6943576,1.640625
,1.7127363999999998,1.552734375
,1.7479909,1.4990234375
,1.753968,1.4453125
,1.7723543,1.4013671875
,1.8092218999999998,1.357421875
,1.8139786,1.3427734375
,1.8485861,1.3037109375
,1.8688872,1.2890625
,1.8773450999999999,1.2744140625
,1.8934372000000002,1.23046875
,1.9337833999999998,1.2255859375
,1.9341333,1.23046875
,1.9802289000000002,1.337890625
,1.9805611,1.5576171875
,1.996721,1.943359375
,2.0331452,2.36328125
,2.0340628,2.802734375
,2.0529829,3.173828125
,2.0732948,3.515625
,2.1083396,3.6767578125
,2.115114,3.6767578125
,2.1352830000000003,3.6767578125
,2.1834832000000004,3.6767578125
,2.1838327,3.6767578125
,2.1967083,3.6083984375
,2.2297063,3.3935546875
,2.249249,3.1494140625
,2.2578313999999997,2.919921875
,2.274395,2.7197265625
,2.3090232000000004,2.568359375
,2.3137193,2.4365234375
,2.3514280999999997,2.333984375
,2.3688254000000004,2.2314453125
,2.3755249000000003,2.1630859375
,2.4096069,2.0849609375
,2.4309041000000002,2.001953125
,2.4341951,1.9140625
,2.4692492,1.85546875
,2.4739699999999996,1.767578125
,2.5103628999999996,1.689453125
,2.5425737,1.62109375
,2.5428618,1.5380859375
,2.5560776,1.46484375
,2.5908176000000003,1.4111328125
,2.5958376999999997,1.38671875
,2.6141055,1.3427734375
,2.6521953,1.3330078125
,2.6525616999999997,1.3134765625
,2.6996962,1.298828125
,2.7000442,1.26953125
,2.7300228000000004,1.25
,2.7354512,1.220703125
,2.7719005,1.1962890625
,2.7722197,1.19140625
,2.7935797000000004,1.2890625
,2.8381197,1.5087890625
,2.8384247,1.8994140625
,2.8548365999999996,2.3486328125
,2.8914771000000004,2.724609375
,2.9111938000000004,3.1201171875
,2.9159420000000003,3.3984375
,2.9508085,3.59375
,2.9724959999999996,3.671875
,2.9732319,3.6767578125
,3.0091953,3.6669921875
,3.0296193000000002,3.5546875
,3.0368962,3.37890625
,3.0716976999999996,3.1494140625
,3.0762596,2.919921875
,3.1123031,2.7294921875
,3.1173564000000002,2.5634765625
,3.1534737,2.412109375
,3.1584323999999997,2.3046875
,3.1747202999999997,2.197265625
,3.1953685,2.158203125
,3.2410512000000002,2.099609375
,3.2413171,2.060546875
,3.2604042,1.9775390625
,3.2775961999999996,1.9140625
,3.3125507,1.8310546875
,3.3163845,1.7578125
,3.334961,1.6650390625
,3.3802846000000004,1.6259765625
,3.3807356000000004,1.5625
,3.3961701,1.5185546875
,3.4412246,1.4697265625
,3.4414958999999996,1.435546875
,3.4583478000000003,1.396484375
,3.4788452999999997,1.38671875
,3.5140453000000003,1.3623046875
,3.5144941999999997,1.3232421875
,3.5489423999999996,1.3134765625
,3.5700392,1.298828125
,3.5778603,1.2939453125
,3.5961112999999996,1.3818359375
,3.6330054,1.62109375
,3.6581494,1.9482421875
,3.6584215999999996,2.3486328125
,3.6732994999999997,2.7001953125
,3.7098959000000002,3.056640625
,3.7139125,3.310546875
,3.7485989999999996,3.4912109375
,3.7687663000000002,3.5595703125
,3.7758506,3.5546875
,3.8141263,3.4912109375
,3.8187651000000002,3.33984375
,3.8385920999999996,3.1396484375
,3.8580454,2.9248046875
,3.8797509000000003,2.67578125
,3.8955412999999997,2.4609375
,3.9297448,2.3779296875
,3.9505479,2.2900390625
,3.9585824,2.2314453125
,3.9768748,2.1728515625
,4.011182,2.1337890625
,4.0320983,2.0703125
,4.0402211,2.021484375
,4.0530388,1.943359375
,4.086817,1.904296875
,4.1084135,1.826171875
,4.1170604,1.787109375
,4.1535555,1.7236328125
,4.156791,1.6552734375
,4.1925133,1.5966796875
,4.1968415,1.54296875
,4.2343931,1.494140625
,4.2618022,1.4453125
,4.2620916,1.4453125
,4.2762599,1.4208984375
,4.3105976,1.3916015625
,4.3306905,1.3671875
,4.338138,1.3427734375
,4.3742522,1.3427734375
,4.3769549,1.4892578125
,4.3960236,1.748046875
,4.4300125,2.158203125
,4.4348452,2.59765625
,4.4707928,2.98828125
,4.4772365,3.3447265625
,4.5124567,3.57421875
,4.5391569,3.6767578125
,4.5396218,3.6767578125
,4.57452,3.6767578125
,4.5749624,3.6767578125
,4.6108177,3.623046875
,4.616665,3.4521484375
,4.6636226,3.26171875
,4.6640562,3.0712890625
,4.6781121,2.8955078125
,4.7253134,2.7392578125
,4.7255788,2.607421875
,4.7371961,2.4853515625
,4.7871212,2.3974609375
,4.7874044,2.294921875
,4.8074927,2.197265625
,4.8173867,2.1435546875
,4.8644951,2.0703125
,4.8647861,2.001953125
,4.8779531,1.9189453125
,4.9160835,1.845703125
,4.9204315,1.767578125
,4.959227,1.689453125
,4.9597588,1.62109375
,4.9764532,1.5771484375
,5.0123121,1.533203125
,5.0165982,1.50390625
,5.0513047,1.46484375
,5.0713191,1.4306640625
,5.0780626,1.4013671875
,5.1164208,1.3525390625
,5.1208511,1.3232421875
,5.136862,1.318359375
,5.175871,1.4501953125
,5.1761492,1.689453125
,5.211541,2.0849609375
,5.2335639,2.4951171875
,5.2405761,2.9345703125
,5.2599573,3.291015625
,5.2956245,3.583984375
,5.2961655,3.6767578125
,5.3463562,3.6767578125
,5.3466294,3.6767578125
,5.3581482,3.6767578125
,5.3940668,3.6767578125
,5.3994236,3.6767578125
,5.4203259,3.49609375
,5.455323,3.26171875
,5.4594043,3.056640625
,5.4804373,2.87109375
,5.5004604,2.6611328125
,5.5177448,2.4853515625
,5.5386583,2.431640625
,5.5579601,2.3583984375
,5.595901,2.275390625
,5.5985857,2.2021484375
,5.6495774,2.12890625
,5.6499342,2.041015625
,5.6608723,1.9775390625
,5.676485,1.8994140625
,5.7133355,1.8310546875
,5.7456602,1.767578125
,5.7461056,1.6845703125
,5.7595956,1.62109375
,5.7951439,1.5576171875
,5.8000837,1.5087890625
,5.8348872,1.46484375
,5.8555599,1.4208984375
,5.8579677,1.3671875
,5.899823,1.34765625
,5.9001791,1.3134765625
,5.9208924,1.3037109375
,5.95716,1.2841796875
,5.9576091,1.3623046875
,5.9952549,1.5625
,6.0258672,1.9384765625
,6.026347599999999,2.34375
,6.0374552,2.783203125
,6.0738161999999996,3.1689453125
,6.0786187,3.4326171875
,6.1178086,3.623046875
,6.118083,3.6767578125
,6.164430100000001,3.6767578125
,6.164744300000001,3.6767578125
,6.1853435,3.6328125
,6.196517399999999,3.486328125
,6.2320946,3.291015625
,6.2527559,3.0859375
,6.2583801999999995,2.8857421875
,6.3039316,2.7099609375
,6.3042169999999995,2.5732421875
,6.3265072,2.451171875
,6.340311399999999,2.34375
,6.3751213,2.255859375
,6.400928800000001,2.158203125
,6.4012308,2.0947265625
,6.4191301,2.01171875
,6.4635257,1.962890625
,6.463878899999999,1.8896484375
,6.479070699999999,1.81640625
,6.513953900000001,1.728515625
,6.5346685,1.6650390625
,6.539776700000001,1.58203125
,6.5743677,1.533203125
,6.5952766,1.474609375
,6.5982194,1.455078125
,6.636177999999999,1.4111328125
,6.6415671,1.376953125
,6.6828523,1.328125
,6.683078399999999,1.3427734375
,6.7009361,1.328125
,6.7446588,1.3330078125
,6.7448923,1.4404296875
,6.7589345000000005,1.6796875
,6.7970857,2.080078125
,6.7973003,2.4755859375
,6.8381597,2.8662109375
,6.858145,3.1689453125
,6.860853799999999,3.3935546875
,6.896246,3.515625
,6.9011274,3.564453125
,6.9190643000000005,3.544921875
,6.939481000000001,3.486328125
,6.990558,3.3447265625
,6.990931,3.154296875
,7.0012159,2.9541015625
,7.0363364,2.763671875
,7.0414452999999995,2.6025390625
,7.0766992,2.4658203125
,7.084664399999999,2.36328125
,7.099423399999999,2.2705078125
,7.145747699999999,2.2119140625
,7.146292900000001,2.080078125
,7.160135500000001,2.0556640625
,7.1948826,2.0068359375
,7.2149906999999995,1.9677734375
,7.220312399999999,1.89453125
,7.269095999999999,1.8212890625
,7.269546,1.73828125
,7.3009147,1.6845703125
,7.301344800000001,1.611328125
,7.3177501,1.5869140625
,7.3528749,1.5478515625
,7.3742626,1.4990234375
,7.3813268,1.4599609375
,7.422662000000001,1.4208984375
,7.4231689,1.3720703125
,7.4429607,1.3232421875
,7.4788502999999995,1.3037109375
,7.479312800000001,1.2939453125
,7.515517900000001,1.416015625
,7.548094000000001,1.669921875
,7.548400600000001,2.0654296875
,7.561891299999999,2.4755859375
,7.595256900000001,2.8955078125
,7.6016791,3.212890625
,7.641769200000001,3.4619140625
,7.6422381,3.623046875
,7.6590425,3.6767578125
,7.6942036,3.6767578125
,7.7160244,3.6767578125
,7.7205712,3.59375
,7.7655628,3.4228515625
,7.7658518999999995,3.2177734375
,7.7837087,3.0078125
,7.8181536000000005,2.8173828125
,7.818695,2.6513671875
,7.859451999999999,2.5390625
,7.889265999999999,2.4267578125
,7.8896441,2.32421875
,7.900957,2.2314453125
,7.9355969,2.1533203125
,7.9562478,2.0654296875
,7.961998299999999,1.9970703125
,8.0135386,1.9189453125
,8.0137993,1.8115234375
,8.0252156,1.7236328125
,8.0414545,1.6259765625
,8.0896296,1.5625
,8.0905573,1.4892578125
,8.1025845,1.435546875
,8.1505369,1.3818359375
,8.1508004,1.3330078125
,8.1620335,1.2890625
,8.1964207,1.2548828125
,8.2174193,1.2158203125
,8.217867,1.220703125
,8.2587191,1.1962890625
,8.2794489,1.1767578125
,8.2817419,1.1669921875
,8.3171801,1.2158203125
,8.322291,1.4208984375
,8.358764,1.767578125
,8.3635849,2.24609375
,8.3995646,2.65625
,8.4000084,3.0859375
,8.4440948,3.3837890625
,8.4445502,3.623046875
,8.4605246,3.6767578125
,8.4944718,3.6767578125
,8.5151091,3.6767578125
,8.5248717,3.6767578125
,8.5418383,3.65234375
,8.5772596,3.4814453125
,8.5822989,3.2568359375
,8.6294591,3.046875
,8.629721,2.8369140625
,8.6413128,2.666015625
,8.6785938,2.5244140625
,8.7100499,2.3974609375
,8.7104765,2.275390625
,8.7194651,2.1875
,8.754957,2.1435546875
,8.7616088,2.080078125
,8.7960685,2.001953125
,8.8017674,1.9189453125
,8.8486232,1.8310546875
,8.8488986,1.728515625
,8.8638499,1.6455078125
,8.9017398,1.5576171875
,8.9021055,1.474609375
,8.9362866,1.40625
,8.9592546,1.3232421875
,8.9596888,1.2939453125
,8.9978192,1.259765625
,9.0046033,1.2451171875
,9.0250202,1.2109375
,9.0432199,1.181640625
,9.0761304,1.142578125
,9.0975859,1.1181640625
,9.1017353,1.0693359375
,9.1370158,1.09375
,9.1419342,1.1865234375
,9.1767127,1.46484375
,9.2033011,1.8359375
,9.2035736,2.3046875
,9.2401405,2.685546875
,9.2434202,3.095703125
,9.2785543,3.37890625
,9.2996105,3.5595703125
,9.3024897,3.6669921875
,9.3374159,3.6767578125
,9.3445161,3.671875
,9.364024,3.583984375
,9.3841627,3.4033203125
,9.4184224,3.193359375
,9.4234074,2.958984375
,9.4416518,2.7490234375
,9.4844428,2.5830078125
,9.4847095,2.4462890625
,9.5020603,2.34375
,9.5362135,2.236328125
,9.5571531,2.158203125
,9.5626761,2.099609375
,9.5985433,2.021484375
,9.6189964,1.9482421875
,9.6249062,1.865234375
,9.6469986,1.7333984375
,9.6622699,1.5966796875
,9.7026445,1.5673828125
,9.7029038,1.5087890625
,9.7345778,1.4599609375
,9.7443839,1.40625
,9.7794785,1.3818359375
,9.7842696,1.34765625
,9.8192786,1.328125
,9.8399237,1.2890625
,9.8430128,1.2890625
,9.8785217,1.2646484375
,9.882769,1.2548828125
,9.9178288,1.2353515625
,9.9392827,1.220703125
,9.9463022,1.2890625
,9.964662,1.4990234375
,9.9995145,1.8701171875
,10.0204329,2.265625
,10.020705,2.6806640625
,10.0582591,3.0224609375
,10.0646784,3.2958984375
,10.1009283,3.4521484375
,10.1067962,3.5302734375
,10.1244836,3.5205078125
,10.1627299,3.466796875
,10.1629937,3.3251953125
,10.1834559,3.154296875
,10.2176392,2.9541015625
,10.2385783,2.7490234375
,10.2445022,2.5732421875
,10.2848113,2.431640625
,10.2853742,2.3291015625
,10.3317376,2.2314453125
,10.3320045,2.16796875
,10.342577,2.099609375
,10.3787291,2.0556640625
,10.3836774,1.9873046875
,10.4239398,1.923828125
,10.4242039,1.8408203125
,10.4708315,1.7626953125
,10.4710946,1.6796875
,10.4915112,1.6064453125
,10.5052358,1.5283203125
,10.5408017,1.474609375
,10.5621695,1.4208984375
,10.5628029,1.3720703125
,10.6130221,1.3671875
,10.6134538,1.337890625
,10.6251862,1.318359375
,10.6621808,1.2744140625
,10.6669505,1.25
,10.685867,1.201171875
,10.7203448,1.1865234375
,10.740584,1.220703125
,10.7432135,1.42578125
,10.7804552,1.767578125
,10.783303,2.2412109375
,10.8205822,2.6513671875
,10.8251594,3.046875
,10.8608814,3.359375
,10.87994,3.544921875
,10.8859019,3.6572265625
,10.9035669,3.6767578125
,10.953999,3.6767578125
,10.954448,3.623046875
,10.964076,3.4765625
,10.9994549,3.2666015625
,11.0197315,3.046875
,11.0252783,2.841796875
,11.0597108,2.67578125
,11.0800607,2.51953125
,11.0854551,2.412109375
,11.1036478,2.3046875
,11.1557501,2.2216796875
,11.1562653,2.138671875
,11.1639014,2.0703125
,11.2000913,1.9921875
,11.2212152,1.904296875
,11.2261813,1.806640625
,11.2467302,1.708984375
,11.2686442,1.5576171875
,11.284953,1.4404296875
,11.32053,1.435546875
,11.3256473,1.4111328125
,11.3593691,1.376953125
,11.379007,1.337890625
,11.3869586,1.298828125
,11.4354502,1.259765625
,11.4357968,1.2353515625
,11.4448863,1.1962890625
,11.464071,1.19140625
,11.512468,1.1767578125
,11.5129103,1.142578125
,11.5255514,1.1376953125
,11.5746414,1.171875
,11.5750204,1.3720703125
,11.6049802,1.6845703125
,11.6079193,2.1435546875
,11.6244568,2.55859375
,11.6673192,2.998046875
,11.6677686,3.310546875
,11.7013823,3.57421875
,11.7054929,3.6767578125
,11.7447478,3.6767578125
,11.7746108,3.6767578125
,11.774888,3.6767578125
,11.7823967,3.5791015625
,11.817938,3.4326171875
,11.8388557,3.2275390625
,11.8440533,3.0126953125
,11.883636,2.8173828125
,11.8841895,2.6513671875
,11.9322533,2.509765625
,11.9326605,2.392578125
,11.953928,2.275390625
,11.9642744,2.1728515625
,11.9979015,2.1142578125
,12.0188156,2.041015625
,12.0267212,1.9482421875
,12.0732446,1.8603515625
,12.073515,1.7822265625
,12.0865254,1.6845703125
,12.1075373,1.6064453125
,12.1268685,1.533203125
,12.1612301,1.4404296875
,12.1833244,1.3818359375
,12.1837515,1.328125
,12.2206458,1.30859375
,12.2264871,1.2841796875
,12.2625791,1.25
,12.2670471,1.2158203125
,12.3022221,1.1865234375
,12.3078992,1.1474609375
,12.3443959,1.1279296875
,12.3447752,1.0888671875
,12.3765422,1.11328125
,12.3989797,1.1962890625
,12.4067575,1.4453125
,12.4484632,1.8017578125
,12.4487789,2.255859375
,12.4830787,2.65625
,12.4882874,2.98828125
,12.5224643,3.2666015625
,12.5417039,3.4228515625
,12.5448789,3.5302734375
,12.5816385,3.544921875
,12.5869706,3.5107421875
,12.6228462,3.3984375
,12.6267668,3.2275390625
,12.6657451,3.0078125
,12.69508,2.783203125
,12.6953486,2.5927734375
,12.7078272,2.44140625
,12.726063,2.3046875
,12.7599072,2.2119140625
,12.780352,2.1484375
,12.7857589,2.0703125
,12.8328884,2.001953125
,12.8331552,1.953125
,12.853591,1.9091796875
,12.8644591,1.8408203125
,12.9096604,1.796875
,12.909873,1.7431640625
,12.9299524,1.6845703125
,12.9472533,1.6162109375
,12.9676134,1.5576171875
,13.0166354,1.494140625
,13.0169039,1.4501953125
,13.0287813,1.4111328125
,13.0646842,1.3720703125
,13.0649505,1.3232421875
,13.1128731,1.3330078125
,13.1134713,1.318359375
,13.1434642,1.2841796875
,13.1480721,1.26953125
,13.1900823,1.2890625
,13.190514,1.4306640625
,13.2359852,1.689453125
,13.23628,2.080078125
,13.2475131,2.431640625
,13.2655442,2.79296875
,13.3135032,3.06640625
,13.3137683,3.28125
,13.3434012,3.3740234375
,13.3492784,3.427734375
,13.3849163,3.37890625
,13.3882068,3.2763671875
,13.4385618,3.1201171875
,13.4389815,2.9052734375
,13.4482032,2.7197265625
,13.4668374,2.5390625
,13.5152345,2.4072265625
,13.5156892,2.2900390625
,13.5290347,2.2119140625
,13.5761422,2.1484375
,13.5764731,2.099609375
,13.5857452,2.0263671875
,13.622862,1.9970703125
,13.6274222,1.923828125
,13.6685493,1.8603515625
,13.6688233,1.7822265625
,13.7154987,1.708984375
,13.7158533,1.6259765625
,13.7296406,1.572265625
,13.7677322,1.513671875
,13.7681838,1.455078125
,13.8090643,1.416015625
,13.8095111,1.376953125
,13.8403062,1.357421875
,13.849457,1.337890625
,13.868962,1.318359375
,13.9057083,1.2890625
,13.9100866,1.2646484375
,13.9296703,1.259765625
,13.9782724,1.3720703125
,13.9786071,1.6064453125
,13.9877328,1.9970703125
,14.023445599999999,2.392578125
,14.0283066,2.7685546875
,14.071324700000002,3.1201171875
,14.071669400000001,3.33984375
,14.0907856,3.4912109375
,14.110898500000001,3.5498046875
,14.131260699999999,3.5595703125
,14.148976600000001,3.486328125
,14.1863563,3.3642578125
,14.186786600000001,3.1884765625
,14.222296199999999,2.978515625
,14.2432877,2.7783203125
,14.2481564,2.607421875
,14.283134,2.4560546875
,14.305226000000001,2.3388671875
,14.3054901,2.2216796875
,14.349570799999999,2.1826171875
,14.349851000000001,2.119140625
,14.369361600000001,2.080078125
,14.411164200000002,2.0166015625
,14.4115972,1.9482421875
,14.430112699999999,1.875
,14.474804299999999,1.8017578125
,14.475252699999999,1.7138671875
,14.4865885,1.6357421875
,14.521591699999998,1.5673828125
,14.5269674,1.5087890625
,14.561270799999999,1.4501953125
,14.5816789,1.396484375
,14.5901785,1.34765625
,14.609570300000001,1.30859375
,14.645042199999999,1.2841796875
,14.6648769,1.25
,14.672291000000001,1.220703125
,14.708601600000001,1.2060546875
,14.7090049,1.1767578125
,14.7448829,1.298828125
,14.7482975,1.5380859375
,14.784156,1.93359375
,14.8046559,2.34375
,14.810703799999999,2.7392578125
,14.860545900000002,3.0810546875
,14.861203799999998,3.3642578125
,14.8679205,3.5302734375
,14.903666699999999,3.6767578125
,14.9088059,3.6767578125
,14.9424803,3.6767578125
,14.961745700000002,3.6181640625
,14.9703181,3.4619140625
,15.005433499999999,3.251953125
,15.0107997,3.0517578125
,15.0623091,2.8466796875
,15.0625782,2.6708984375
,15.0690268,2.5341796875
,15.1046898,2.4169921875
,15.110288400000002,2.3095703125
,15.1453539,2.2216796875
,15.1510687,2.1533203125
,15.1865277,2.0703125
,15.2073098,1.9921875
,15.2076572,1.9091796875
,15.245952200000001,1.8408203125
,15.250680899999999,1.7578125
,15.2686508,1.71875
,15.303590400000001,1.66015625
,15.325212400000002,1.5966796875
,15.332441,1.5625
,15.371712800000001,1.4892578125
,15.3720666,1.4501953125
,15.393291900000001,1.4111328125
,15.4136031,1.3232421875
,15.428873500000002,1.25
,15.476109099999999,1.279296875
,15.476488100000001,1.2744140625
,15.4974959,1.26953125
,15.512602600000001,1.3037109375
,15.546854199999999,1.46484375
,15.5518025,1.748046875
,15.602334299999999,2.1533203125
,15.602818200000002,2.5439453125
,15.609928,2.958984375
,15.6453254,3.2568359375
,15.650037300000001,3.5107421875
,15.685571800000002,3.6572265625
,15.710614799999998,3.6767578125
,15.710922,3.6767578125
,15.7458909,3.6181640625
,15.774538100000001,3.486328125
,15.7747694,3.2958984375
,15.789838799999998,3.1103515625
,15.8356398,2.900390625
,15.835913099999999,2.71484375
,15.8523681,2.5537109375
,15.8965831,2.4169921875
,15.896849499999998,2.294921875
,15.9111577,2.2216796875
,15.929573900000001,2.1533203125
,15.974916799999999,2.1044921875
,15.9752163,2.0556640625
,15.9896125,1.9873046875
,16.038083,1.904296875
,16.0386204,1.81640625
,16.052637,1.73828125
,16.0897621,1.650390625
,16.0901909,1.58203125
,16.1073651,1.513671875
,16.1457608,1.484375
,16.1515815,1.4404296875
,16.1707504,1.416015625
,16.1918941,1.3720703125
,16.226878,1.3427734375
,16.2291755,1.30859375
,16.2700623,1.2744140625
,16.289744,1.240234375
,16.2925741,1.279296875
,16.3343936,1.42578125
,16.3346585,1.689453125
,16.3515597,2.109375
,16.3705634,2.4853515625
,16.4083085,2.841796875
,16.4128458,3.1201171875
,16.4565182,3.33984375
,16.456965,3.4375
,16.4744344,3.4765625
,16.4898813,3.447265625
,16.533712,3.3837890625
,16.5339818,3.232421875
,16.5534172,3.0517578125
,16.5724513,2.8466796875
,16.607847,2.6611328125
,16.612219,2.51953125
,16.6506104,2.3828125
,16.6509463,2.275390625
,16.6700141,2.1826171875
,16.7177769,2.1533203125
,16.7180532,2.0947265625
,16.7310062,2.041015625
,16.7820823,1.97265625
,16.7825123,1.9091796875
,16.8110118,1.8212890625
,16.8143345,1.7578125
,16.8296948,1.669921875
,16.8637427,1.6357421875
,16.8855347,1.5869140625
,16.8923697,1.552734375
,16.928476,1.50390625
,16.9309309,1.5087890625
,16.9646922,1.4794921875
,16.984727,1.4453125
,16.9936692,1.4013671875
,17.013776,1.376953125
,17.035177,1.2890625
,17.0501893,1.2841796875
,17.0852957,1.5380859375
,17.1055825,1.884765625
,17.1112987,2.3095703125
,17.1473494,2.6904296875
,17.1552666,3.056640625
,17.1962161,3.3349609375
,17.1964981,3.5400390625
,17.2118166,3.6376953125
,17.2466851,3.6767578125
,17.2519999,3.6767578125
,17.2721191,3.59375
,17.3082049,3.4423828125
,17.3279747,3.251953125
,17.3350837,3.0419921875
,17.3847389,2.8369140625
,17.3850747,2.6708984375
,17.3923583,2.5244140625
,17.4114661,2.4267578125
,17.4472017,2.3291015625
,17.4541891,2.255859375
,17.4903293,2.1728515625
,17.494944,2.109375
,17.5380708,2.03125
,17.5384822,1.9580078125
,17.5505541,1.8701171875
,17.5707021,1.81640625
,17.6069748,1.7431640625
,17.6111586,1.6650390625
,17.6626668,1.6015625
,17.6629662,1.54296875
,17.6921015,1.484375
,17.6924066,1.435546875
,17.7269415,1.40625
,17.7554034,1.357421875
,17.7557767,1.3525390625
,17.7720188,1.328125
,17.7944,1.2939453125
,17.8246609,1.2744140625
,17.8320061,1.3330078125
,17.8694555,1.513671875
,17.8723306,1.8701171875
,17.9181252,2.3095703125
,17.9185736,2.6904296875
,17.938548,3.06640625
,17.9538476,3.3447265625
,17.9722094,3.5791015625
,18.0096719,3.6767578125
,18.0126975,3.6767578125
,18.0565968,3.6767578125
,18.0568646,3.6767578125
,18.0907741,3.5546875
,18.0955275,3.3642578125
,18.1124952,3.134765625
,18.1334625,2.9345703125
,18.1524364,2.75390625
,18.1736737,2.5927734375
,18.2124007,2.4560546875
,18.2126753,2.36328125
,18.2577211,2.265625
,18.2581636,2.1728515625
,18.2753618,2.099609375
,18.2914378,2.01171875
,18.3243946,1.9580078125
,18.3461876,1.884765625
,18.353793,1.81640625
,18.3963094,1.7236328125
,18.3967601,1.650390625
,18.4299856,1.572265625
,18.4343091,1.50390625
,18.4723304,1.4306640625
,18.4725902,1.42578125
,18.5089778,1.38671875
,18.5136756,1.3623046875
,18.5484627,1.357421875
,18.5534041,1.318359375
,18.5889242,1.2744140625
,18.6092213,1.23046875
,18.6153468,1.2060546875
,18.6317944,1.2158203125
,18.6678417,1.396484375
,18.6707364,1.6845703125
,18.7084229,2.109375
,18.7400889,2.5
,18.7405393,2.900390625
,18.7551513,3.1982421875
,18.7997723,3.4375
,18.8002009,3.564453125
,18.8157021,3.6328125
,18.8320709,3.6279296875
,18.8754909,3.6083984375
,18.8757548,3.4912109375
,18.8967192,3.30078125
,18.9141309,3.0908203125
,18.9519975,2.890625
,18.9570584,2.705078125
,18.9932871,2.55859375
,18.9958376,2.4609375
,19.0124992,2.36328125
,19.0463571,2.28515625
,19.0671828,2.216796875
,19.0754206,2.1484375
,19.1104094,2.0751953125
,19.1150991,2.001953125
,19.1517117,1.9140625
,19.1578741,1.8212890625
,19.1767658,1.7529296875
,19.1940327,1.6552734375
,19.2139124,1.6015625
,19.261881,1.54296875
,19.2621499,1.5087890625
,19.2745652,1.4501953125
,19.312314,1.4111328125
,19.3166011,1.3623046875
,19.3384202,1.328125
,19.354311,1.279296875
,19.3733562,1.2646484375
,19.4095054,1.220703125
,19.4301734,1.2109375
,19.4336173,1.2451171875
,19.476992,1.4306640625
,19.4772627,1.7236328125
,19.4972295,2.158203125
,19.5329278,2.55859375
,19.5357686,2.900390625
,19.5744117,3.18359375
,19.5748535,3.369140625
,19.6120572,3.4912109375
,19.6124312,3.525390625
,19.649127,3.5009765625
,19.6695434,3.3984375
,19.6748378,3.2275390625
,19.7106724,3.0322265625
,19.7311358,2.8173828125
,19.7341872,2.6318359375
,19.7746077,2.5
,19.7748867,2.3828125
,19.810328,2.275390625
,19.8148894,2.2119140625
,19.848961,2.138671875
,19.8695394,2.0849609375
,19.8769444,2.0068359375
,19.9282227,1.9482421875
,19.9286531,1.865234375
,19.9338266,1.8115234375
,19.9699506,1.73828125
,19.9746337,1.6845703125
,20.0205803,1.6162109375
,20.0209278,1.58203125
,20.036943,1.533203125
,20.0710499,1.494140625
,20.0714905,1.455078125
,20.1063138,1.4453125
,20.1274771,1.40625
,20.1354951,1.3818359375
,20.172005,1.3427734375
,20.1774154,1.30859375
,20.1966392,1.3330078125
,20.2335599,1.4501953125
,20.2359151,1.71875
,20.2533523,2.0703125
,20.2895184,2.4853515625
,20.312975,2.8076171875
,20.3132371,3.095703125
,20.3583224,3.28125
,20.3587624,3.388671875
,20.3801252,3.4130859375
,20.3964331,3.37890625
,20.4362029,3.2666015625
,20.4570548,3.1005859375
,20.4574896,2.9052734375
,20.4733988,2.71484375
,20.5110057,2.5537109375
,20.5168339,2.421875
,20.5525071,2.3291015625
,20.5557856,2.2314453125
,20.6073965,2.1826171875
,20.6076659,2.12890625
,20.6173054,2.0751953125
,20.6344778,2.001953125
,20.6702436,1.9580078125
,20.6909949,1.884765625
,20.6968801,1.81640625
,20.7335674,1.7529296875
,20.7364013,1.669921875
,20.7799089,1.5966796875
,20.7803479,1.552734375
,20.7984804,1.513671875
,20.815909,1.46484375
,20.8506466,1.4453125
,20.8549487,1.4111328125
,20.8897332,1.376953125
,20.9106932,1.328125
,20.9186951,1.3037109375
,20.9530865,1.279296875
,20.9583415,1.3671875
,20.9747493,1.572265625
,21.0091208,1.962890625
,21.0320482,2.36328125
,21.036761,2.7734375
,21.0858361,3.1005859375
,21.0861007,3.369140625
,21.0968152,3.5595703125
,21.1333098,3.6279296875
,21.1378237,3.642578125
,21.1578828,3.5791015625
,21.179433,3.408203125
,21.1981021,3.1787109375
,21.2158206,3.0322265625
,21.2504995,2.861328125
,21.2707685,2.7099609375
,21.2791055,2.5634765625
,21.2981628,2.451171875
,21.3347117,2.34375
,21.3374462,2.2509765625
,21.3546471,2.16796875
,21.3901422,2.1240234375
,21.4119531,2.060546875
,21.4171172,2.001953125
,21.4529683,1.923828125
,21.4586772,1.8408203125
,21.5048554,1.7626953125
,21.5051541,1.6845703125
,21.5203972,1.62109375
,21.536127,1.5576171875
,21.5719951,1.5380859375
,21.5961206,1.5087890625
,21.5963876,1.474609375
,21.6309923,1.435546875
,21.6520602,1.396484375
,21.659622,1.337890625
,21.6944651,1.30859375
,21.6948937,1.2841796875
,21.7350474,1.376953125
,21.7658456,1.6357421875
,21.7661062,1.982421875
,21.7760494,2.421875
,21.8114484,2.7880859375
,21.8331412,3.1591796875
,21.8378849,3.408203125
,21.8748214,3.583984375
,21.875092,3.662109375
,21.9221295,3.6767578125
,21.9223871,3.6767578125
,21.9367406,3.61328125
,21.9840634,3.4521484375
,21.9844892,3.251953125
,21.9988272,3.037109375
,22.0342686,2.841796875
,22.040038,2.666015625
,22.0761666,2.548828125
,22.106035,2.4365234375
,22.1065668,2.32421875
,22.1199347,2.24609375
,22.1385665,2.16796875
,22.1741112,2.08984375
,22.1781262,2.0068359375
,22.2147018,1.923828125
,22.2448865,1.8359375
,22.2451487,1.7431640625
,22.2550989,1.6552734375
,22.2899797,1.591796875
,22.3110886,1.533203125
,22.3195873,1.494140625
,22.3554556,1.4404296875
,22.3609746,1.3916015625
,22.3971456,1.3671875
,22.4000036,1.30859375
,22.4198804,1.2646484375
,22.4363815,1.2109375
,22.4719467,1.2158203125
,22.4783495,1.259765625
,22.5131003,1.4697265625
,22.5172095,1.806640625
,22.5521526,2.2509765625
,22.5742227,2.6220703125
,22.5808121,2.9931640625
,22.5987028,3.2568359375
,22.6168363,3.4765625
,22.6535983,3.5888671875
,22.6562535,3.6328125
,22.6896787,3.603515625
,22.7111559,3.515625
,22.7201316,3.3544921875
,22.7548895,3.1494140625
,22.77476,2.9296875
,22.77505,2.724609375
,22.8207047,2.568359375
,22.8211587,2.353515625
,22.838198,2.275390625
,22.8828715,2.20703125
,22.8831338,2.1630859375
,22.8994619,2.099609375
,22.944723,2.0361328125
,22.9449895,1.9580078125
,22.9742107,1.8896484375
,22.9774292,1.796875
,23.0225361,1.7333984375
,23.0229339,1.669921875
,23.0386659,1.6064453125
,23.0734915,1.5478515625
,23.095996,1.5087890625
,23.1014249,1.484375
,23.1451787,1.435546875
,23.1454372,1.396484375
,23.1574629,1.34765625
,23.1933213,1.3330078125
,23.2207614,1.298828125
,23.2213421,1.298828125
,23.2411267,1.3671875
,23.2858216,1.6015625
,23.2862521,1.943359375
,23.3011717,2.3486328125
,23.3175364,2.67578125
,23.3523909,3.0224609375
,23.3601835,3.26171875
,23.4095755,3.3837890625
,23.4098357,3.4521484375
,23.419159,3.4326171875
,23.4576125,3.359375
,23.4869344,3.2080078125
,23.4873409,3.0224609375
,23.4985978,2.822265625
,23.5368148,2.65625
,23.5370953,2.5048828125
,23.5801493,2.3876953125
,23.5805654,2.2802734375
,23.6019194,2.2216796875
,23.6198365,2.1484375
,23.65555,2.0849609375
,23.6600011,2.03125
,23.6930239,1.943359375
,23.7141353,1.865234375
,23.7197102,1.77734375
,23.7682831,1.7236328125
,23.7686203,1.6455078125
,23.7795882,1.5771484375
,23.8299056,1.5185546875
,23.830332,1.474609375
,23.8497747,1.416015625
,23.864341,1.3916015625
,23.8783897,1.337890625
,23.9145669,1.328125
,23.9207148,1.2939453125
,23.957898,1.2744140625
,23.9581615,1.2548828125
,23.9930652,1.34765625
,24.0148444,1.572265625
,24.02221,1.9189453125
,24.0572468,2.3486328125
,24.057692,2.71484375
,24.0937573,3.076171875
,24.1231578,3.3203125
,24.1234216,3.5107421875
,24.1418622,3.5986328125
,24.185384,3.6279296875
,24.1856597,3.5791015625
,24.2012807,3.4765625
,24.2180701,3.2958984375
,24.2548206,3.1103515625
,24.2623624,2.9150390625
,24.2800974,2.7294921875
,24.3164712,2.5830078125
,24.3215249,2.44140625
,24.3563559,2.3388671875
,24.361332,2.2265625
,24.4005483,2.16796875
,24.4007611,2.08984375
,24.4194702,2.041015625
,24.4402662,1.962890625
,24.4755532,1.884765625
,24.4962068,1.7919921875
,24.50147,1.7138671875
,24.538395,1.62109375
,24.5436351,1.54296875
,24.5620387,1.4697265625
,24.5979183,1.4111328125
,24.6194601,1.3525390625
,24.6198271,1.3525390625
,24.6559679,1.3330078125
,24.6607198,1.30859375
,24.6937745,1.2939453125
,24.715126,1.2451171875
,24.7222345,1.2060546875
,24.75636,1.201171875
,24.7770146,1.328125
,24.7796467,1.6064453125
,24.8215325,2.05078125
,24.8219626,2.4755859375
,24.8399477,2.880859375
,24.8751884,3.193359375
,24.8976226,3.447265625
,24.9029193,3.583984375
,24.9380067,3.662109375
,24.9426474,3.6767578125
,24.9776344,3.65234375
,24.9780609,3.5693359375
,25.0133171,3.3935546875
,25.0337987,3.1884765625
,25.0406354,2.9736328125
,25.0760495,2.79296875
,25.0966576,2.6171875
,25.1028616,2.4755859375
,25.1210865,2.3486328125
,25.1625209,2.275390625
,25.1628682,2.2021484375
,25.1821039,2.1435546875
,25.2225976,2.0654296875
,25.2228653,1.9921875
,25.2598575,1.8994140625
,25.2606686,1.81640625
,25.313359,1.71875
,25.313628,1.6162109375
,25.324043,1.474609375
,25.3422257,1.4111328125
,25.3908054,1.3916015625
,25.3910703,1.3623046875
,25.4016718,1.328125
,25.4389587,1.2890625
,25.4429582,1.2548828125
,25.4782066,1.2109375
,25.497758,1.162109375
,25.5023214,1.1083984375
,25.5212565,1.123046875
,25.5584484,1.2060546875
,25.5628648,1.46484375
,25.5997882,1.875
,25.6000683,2.294921875
,25.6383591,2.6953125
,25.6698118,3.02734375
,25.6701399,3.30078125
,25.6806084,3.4619140625
,25.7165063,3.5693359375
,25.7216822,3.583984375
,25.762159,3.564453125
,25.7625057,3.4619140625
,25.8079736,3.291015625
,25.808359,3.076171875
,25.8245934,2.8662109375
,25.8411953,2.666015625
,25.8868031,2.509765625
,25.8872342,2.3681640625
,25.9031303,2.2607421875
,25.9473034,2.177734375
,25.947622,2.1044921875
,25.9637742,2.041015625
,25.9850795,1.962890625
,26.0204203,1.8896484375
,26.0207541,1.8017578125
,26.0710711,1.748046875
,26.0714204,1.669921875
,26.0819375,1.6064453125
,26.1164457,1.5380859375
,26.1370285,1.4794921875
,26.1449147,1.4208984375
,26.1637168,1.396484375
,26.1979647,1.34765625
,26.2200629,1.318359375
,26.2269656,1.279296875
,26.2414702,1.25
,26.2885984,1.240234375
,26.2892951,1.2255859375
,26.3213696,1.298828125
,26.321796,1.484375
,26.3589532,1.845703125
,26.3641746,2.2265625
,26.4005696,2.6025390625
,26.4010033,2.9052734375
,26.4380215,3.18359375
,26.4428908,3.3251953125
,26.4890984,3.408203125
,26.4893933,3.3984375
,26.505171,3.3447265625
,26.5245073,3.203125
,26.5601113,3.02734375
,26.5653006,2.8173828125
,26.5809587,2.6123046875
,26.6180485,2.4560546875
,26.6232108,2.32421875
,26.6617074,2.2216796875
,26.6619741,2.1533203125
,26.7084269,2.099609375
,26.7087844,2.0361328125
,26.7386547,1.9775390625
,26.7409298,1.8994140625
,26.7772918,1.8408203125
,26.7815001,1.767578125
,26.8151107,1.7041015625
,26.836479,1.6259765625
,26.8433629,1.552734375
,26.8936418,1.494140625
,26.8939138,1.42578125
,26.9049326,1.38671875
,26.9254856,1.337890625
,26.9465006,1.25
,26.9624379,1.162109375
,27.0081475,1.1962890625
,27.0084068,1.1865234375
,27.0253227,1.1767578125
,27.0673076,1.1767578125
,27.0677502,1.2744140625
,27.0856747,1.4990234375
,27.1195911,1.884765625
,27.1431114,2.294921875
,27.1435492,2.7099609375
,27.190841,3.046875
,27.1911019,3.3544921875
,27.2120332,3.5400390625
,27.2252751,3.61328125
,27.2461563,3.6279296875
,27.2827779,3.583984375
,27.2869958,3.466796875
,27.3021185,3.291015625
,27.3227067,3.095703125
,27.3574771,2.900390625
,27.3778121,2.71484375
,27.3850969,2.568359375
,27.4195625,2.44140625
,27.4422698,2.333984375
,27.4467902,2.2412109375
,27.4628879,2.1630859375
,27.4821921,2.1142578125
,27.5179717,2.060546875
,27.5460796,1.9775390625
,27.5463399,1.8994140625
,27.5656432,1.806640625
,27.5854835,1.7333984375
,27.6262224,1.640625
,27.6266542,1.5625
,27.6426981,1.4794921875
,27.6898351,1.4453125
,27.6903682,1.396484375
,27.7050596,1.3818359375
,27.7390553,1.337890625
,27.745876,1.3134765625
,27.7826896,1.2744140625
,27.7874148,1.240234375
,27.8261155,1.1962890625
,27.8263766,1.2109375
,27.8736252,1.337890625
,27.8738962,1.5966796875
,27.884537,2.0361328125
,27.9190957,2.4609375
,27.9237834,2.8759765625
,27.968623,3.2080078125
,27.9690484,3.4716796875
,27.9978803,3.6181640625
,28.0064758,3.6767578125
,28.0232053,3.6767578125
,28.0571541,3.662109375
,28.0782093,3.5595703125
,28.0836939,3.3984375
,28.1227789,3.1884765625
,28.1535928,2.9736328125
,28.1540265,2.7880859375
,28.1657533,2.6123046875
,28.2142831,2.470703125
,28.2148062,2.3583984375
,28.2220328,2.28515625
,28.2554733,2.20703125
,28.277222,2.1435546875
,28.2848905,2.0703125
,28.305438,1.9970703125
,28.3265227,1.9091796875
,28.3600107,1.826171875
,28.381228,1.7333984375
,28.3840262,1.6650390625
,28.4201725,1.5966796875
,28.4245162,1.5380859375
,28.4602661,1.4794921875
,28.4916523,1.4404296875
,28.491997,1.396484375
,28.5071247,1.337890625
,28.5521198,1.2939453125
,28.5525482,1.240234375
,28.5676657,1.23046875
,28.5844931,1.1376953125
,28.620652,1.2353515625
,28.6253127,1.4306640625
,28.6606331,1.796875
,28.6663064,2.2021484375
,28.7006609,2.59765625
,28.7219942,2.9345703125
,28.7287549,3.2275390625
,28.7452932,3.3984375
,28.7651959,3.5302734375
,28.8002843,3.583984375
,28.8217931,3.5595703125
,28.8272392,3.4619140625
,28.8647701,3.2958984375
,28.865148,3.0908203125
,28.9097133,2.8759765625
,28.9100607,2.6806640625
,28.9405541,2.509765625
,28.9454265,2.3779296875
,28.9800769,2.255859375
,28.9852731,2.1923828125
,29.0211497,2.119140625
,29.0252145,2.0654296875
,29.0660606,1.982421875
,29.0980465,1.9091796875
,29.0984806,1.826171875
,29.1043108,1.767578125
,29.1256935,1.6943359375
,29.1741091,1.6162109375
,29.1744766,1.552734375
,29.1852977,1.494140625
,29.2207942,1.4453125
,29.2418202,1.416015625
,29.2458533,1.4111328125
,29.2651417,1.3916015625
,29.3161047,1.3818359375
,29.3170026,1.3623046875
,29.3246544,1.337890625
,29.3602921,1.3330078125
,29.3806359,1.4453125
,29.385797,1.6796875
,29.4234502,2.0458984375
,29.44376,2.4560546875
,29.4498649,2.7880859375
,29.4870036,3.0859375
,29.4873901,3.2763671875
,29.5234907,3.427734375
,29.5282875,3.466796875
,29.5633706,3.447265625
,29.5688091,3.3544921875
,29.6047455,3.1982421875
,29.6093497,3.0029296875
,29.628686,2.8076171875
,29.6465423,2.6220703125
,29.6867924,2.4853515625
,29.6870592,2.3681640625
,29.7067719,2.275390625
,29.7445765,2.1826171875
,29.7496943,2.1484375
,29.7689814,2.08984375
,29.8040234,2.0263671875
,29.8092787,1.9482421875
,29.8251012,1.875
,29.8754011,1.81640625
,29.8758334,1.748046875
,29.8880479,1.6796875
,29.906208,1.6162109375
,29.9527728,1.552734375
,29.9531257,1.4990234375
,29.97456,1.4501953125
,29.9866017,1.40625
,30.023201200000003,1.3916015625
,30.025090400000003,1.357421875
,30.062476500000002,1.3232421875
,30.092154999999998,1.30859375
,30.092469299999998,1.2939453125
,30.107838899999997,1.435546875
,30.144077600000003,1.6845703125
,30.1492096,2.1044921875
,30.1669221,2.470703125
,30.201931700000003,2.861328125
,30.2046048,3.14453125
,30.2424598,3.369140625
,30.2473703,3.486328125
,30.295615599999998,3.5498046875
,30.2959782,3.5302734375
,30.3086925,3.466796875
,30.3445142,3.3154296875
,30.3500472,3.1201171875
,30.3673966,2.919921875
,30.4019592,2.75390625
,30.4066786,2.6025390625
,30.442774900000003,2.470703125
,30.463512799999997,2.3583984375
,30.4705728,2.255859375
,30.5059223,2.1728515625
,30.5091593,2.1044921875
,30.556291899999998,2.0361328125
,30.5567231,1.9580078125
,30.5661992,1.904296875
,30.6029549,1.826171875
,30.6075618,1.7431640625
,30.643546,1.66015625
,30.6485829,1.6015625
,30.684763099999998,1.5185546875
,30.688494900000002,1.4599609375
,30.723175599999998,1.42578125
,30.744445399999996,1.3671875
,30.744787100000003,1.34765625
,30.7830557,1.30859375
,30.7888559,1.2890625
,30.8250029,1.25
,30.827478399999997,1.23046875
,30.865239799999998,1.2353515625
,30.8853687,1.3720703125
,30.8856264,1.6455078125
,30.9195887,2.0947265625
,30.9405645,2.5
,30.948444199999997,2.8955078125
,30.988486,3.193359375
,30.988745899999998,3.41796875
,31.009334199999998,3.5400390625
,31.049304399999997,3.61328125
,31.049571999999998,3.623046875
,31.070900899999998,3.5546875
,31.089523900000003,3.37890625
,31.1074628,3.2275390625
,31.1576278,3.0615234375
,31.157896700000002,2.880859375
,31.171972500000003,2.71484375
,31.1894414,2.578125
,31.223723999999997,2.4462890625
,31.2453888,2.333984375
,31.252775200000002,2.2314453125
,31.266830400000003,2.1533203125
,31.3132898,2.12890625
,31.3136503,2.0654296875
,31.3370558,1.9970703125
,31.347226300000003,1.9287109375
,31.399133399999997,1.8310546875
,31.399407699999998,1.7333984375
,31.4191923,1.6552734375
,31.4305934,1.5869140625
,31.447633000000003,1.5087890625
,31.4921929,1.4794921875
,31.492453500000003,1.4306640625
,31.512461700000003,1.38671875
,31.5288568,1.3525390625
,31.5506752,1.3330078125
,31.601737900000003,1.2841796875
,31.602164600000002,1.25
,31.6075753,1.201171875
,31.627325499999998,1.2158203125
,31.662535400000003,1.3232421875
,31.682962000000003,1.6162109375
,31.6886468,2.021484375
,31.724885999999998,2.412109375
,31.7293447,2.783203125
,31.771745199999998,3.076171875
,31.772174,3.2958984375
,31.792862,3.4423828125
,31.807478500000002,3.544921875
,31.8277249,3.564453125
,31.865179599999998,3.5302734375
,31.8704038,3.4326171875
,31.8907733,3.2666015625
,31.9102008,3.0712890625
,31.94534,2.8759765625
,31.9666007,2.6953125
,31.971610300000002,2.529296875
,32.0201647,2.40234375
,32.0205905,2.2705078125
,32.0502931,2.197265625
,32.0507278,2.12890625
,32.0697939,2.0654296875
,32.1052371,1.982421875
,32.1102212,1.8994140625
,32.1467478,1.8017578125
,32.1523961,1.71875
,32.1696073,1.62109375
,32.2198703,1.5625
,32.2201339,1.4892578125
,32.2293692,1.4404296875
,32.2502908,1.3818359375
,32.2982635,1.3330078125
,32.2985417,1.26953125
,32.3125676,1.26953125
,32.3586917,1.240234375
,32.3594755,1.1962890625
,32.3705217,1.171875
,32.4067971,1.1572265625
,32.4117482,1.171875
,32.4529214,1.2939453125
,32.4532046,1.58203125
,32.4994463,1.953125
,32.4998763,2.353515625
,32.50785,2.666015625
,32.5437436,2.9736328125
,32.5486856,3.173828125
,32.5835282,3.310546875
,32.6044398,3.349609375
,32.6102734,3.3349609375
,32.652097,3.26171875
,32.6524098,3.1103515625
,32.6727113,2.9296875
,32.6927845,2.734375
,32.7112595,2.509765625
,32.7445588,2.3095703125
,32.7516507,2.24609375
,32.7863439,2.1923828125
,32.792829,2.1533203125
,32.8117417,2.08984375
,32.8315636,2.0458984375
,32.869627,1.9775390625
,32.8989478,1.923828125
,32.8992168,1.845703125
,32.9085746,1.787109375
,32.9442117,1.7041015625
,32.975606,1.6552734375
,32.9759684,1.5966796875
,32.9911751,1.533203125
,33.0247303,1.484375
,33.0459004,1.42578125
,33.0530469,1.376953125
,33.0697761,1.3232421875
,33.1056588,1.298828125
,33.1092311,1.259765625
,33.1450951,1.240234375
,33.1646614,1.23046875
,33.1720775,1.328125
,33.2074059,1.5478515625
,33.2126051,1.9384765625
,33.2308932,2.3095703125
,33.2650206,2.6708984375
,33.2701344,2.98828125
,33.3163808,3.1884765625
,33.3167222,3.3251953125
,33.3326294,3.388671875
,33.3522438,3.4130859375
,33.3871577,3.3544921875
,33.394051,3.232421875
,33.4078311,3.0615234375
,33.4419005,2.880859375
,33.4624092,2.705078125
,33.4694865,2.5634765625
,33.5071138,2.4267578125
,33.5116914,2.314453125
,33.5522676,2.2265625
,33.5525282,2.1533203125
,33.5894353,2.080078125
,33.5933764,2.0361328125
,33.6430654,1.97265625
,33.6433837,1.8896484375
,33.6527304,1.8212890625
,33.6896944,1.7529296875
,33.6901869,1.6796875
,33.723946,1.6064453125
,33.7460722,1.5576171875
,33.7534423,1.4990234375
,33.7980409,1.4404296875
,33.7983913,1.38671875
,33.8290143,1.3671875
,33.8292844,1.328125
,33.867371,1.318359375
,33.8717679,1.2841796875
,33.9105888,1.2841796875
,33.9109952,1.40625
,33.9561968,1.6552734375
,33.9565466,2.041015625
,33.987008,2.421875
,33.9890988,2.8125
,34.0235402,3.115234375
,34.0446115,3.3544921875
,34.0516561,3.486328125
,34.0886465,3.5595703125
,34.091541,3.564453125
,34.1257794,3.53515625
,34.1462801,3.41796875
,34.1508078,3.271484375
,34.187702,3.0810546875
,34.1903296,2.890625
,34.2268989,2.7099609375
,34.2315277,2.5927734375
,34.2703229,2.470703125
,34.3000396,2.3583984375
,34.3004034,2.255859375
,34.3115299,2.1630859375
,34.3472287,2.1044921875
,34.3500516,1.9677734375
,34.385043,1.9384765625
,34.4074104,1.875
,34.4142854,1.806640625
,34.4333812,1.728515625
,34.4708932,1.650390625
,34.4726583,1.58203125
,34.5066304,1.5283203125
,34.5266663,1.4697265625
,34.5320167,1.4404296875
,34.5792662,1.416015625
,34.5796153,1.3623046875
,34.5930878,1.318359375
,34.6134713,1.2744140625
,34.6473537,1.259765625
,34.6682091,1.259765625
,34.6766799,1.396484375
,34.6907132,1.66015625
,34.724706,2.08984375
,34.7448841,2.4755859375
,34.7540824,2.8564453125
,34.7736946,3.1298828125
,34.8090728,3.3544921875
,34.8123169,3.4814453125
,34.8489569,3.5498046875
,34.8492128,3.544921875
,34.8867443,3.53515625
,34.8926528,3.4375
,34.9357517,3.2763671875
,34.9360183,3.076171875
,34.9532443,2.880859375
,34.9883229,2.6904296875
,34.993675,2.5390625
,35.0294431,2.4072265625
,35.029705,2.2900390625
,35.0750059,2.20703125
,35.0752809,2.1435546875
,35.0957002,2.0556640625
,35.1136691,1.97265625
,35.1480552,1.8994140625
,35.1691346,1.8017578125
,35.1748819,1.708984375
,35.2134107,1.630859375
,35.2168213,1.54296875
,35.2366238,1.4697265625
,35.2517032,1.4013671875
,35.289818,1.376953125
,35.2943773,1.328125
,35.3147476,1.2939453125
,35.3533176,1.2451171875
,35.3551762,1.2109375
,35.3891735,1.171875
,35.4092305,1.162109375
,35.415647,1.142578125
,35.4335223,1.2744140625
,35.4522504,1.5087890625
,35.4920882,1.8994140625
,35.5130463,2.2802734375
,35.5135509,2.6611328125
,35.5492082,2.9736328125
,35.5542477,3.193359375
,35.5764185,3.33984375
,35.5927718,3.4033203125
,35.6277611,3.4375
,35.6498372,3.3935546875
,35.6551464,3.291015625
,35.6945469,3.1201171875
,35.6948961,2.919921875
,35.7393752,2.724609375
,35.7397879,2.5439453125
,35.7608341,2.3974609375
,35.7729966,2.3046875
,35.8081656,2.2119140625
,35.8126727,2.1484375
,35.8508115,2.08984375
,35.8553585,2.01171875
,35.8758452,1.93359375
,35.9121674,1.865234375
,35.9183802,1.796875
,35.9321093,1.708984375
,35.9663263,1.66015625
,35.987557,1.5966796875
,35.992759,1.552734375
,36.0276691,1.50390625
,36.0497222,1.46484375
,36.0545366,1.4208984375
,36.0971627,1.376953125
,36.0974247,1.328125
,36.1304962,1.2890625
,36.1501819,1.240234375
,36.1524476,1.279296875
,36.1905886,1.416015625
,36.1937595,1.6748046875
,36.2305119,2.0654296875
,36.2355481,2.421875
,36.2698001,2.75390625
,36.290434,3.0078125
,36.2967294,3.203125
,36.3130344,3.30078125
,36.3599191,3.369140625
,36.3604866,3.359375
,36.3808312,3.2861328125
,36.3937059,3.14453125
,36.4305687,2.96875
,36.451062,2.783203125
,36.4561254,2.6123046875
,36.4996278,2.4658203125
,36.4998718,2.3388671875
,36.5137322,2.2509765625
,36.550356,2.1875
,36.5783787,2.12890625
,36.5786644,2.060546875
,36.5960031,1.9921875
,36.6167091,1.9140625
,36.6360964,1.8359375
,36.653677,1.748046875
,36.6893606,1.7041015625
,36.6937821,1.640625
,36.736075,1.58203125
,36.7363352,1.5234375
,36.7823497,1.4794921875
,36.7826259,1.416015625
,36.7955468,1.396484375
,36.8447238,1.3427734375
,36.8449948,1.2841796875
,36.8593649,1.1865234375
,36.8742615,1.171875
,36.9109844,1.240234375
,36.9136421,1.4208984375
,36.9516055,1.77734375
,36.9540131,2.177734375
,36.9971561,2.568359375
,36.9974175,2.9052734375
,37.0176537,3.18359375
,37.0344046,3.359375
,37.0729553,3.5009765625
,37.07322,3.5498046875
,37.1183377,3.5400390625
,37.1185996,3.466796875
,37.138203,3.3203125
,37.1728357,3.125
,37.1752036,2.919921875
,37.2110147,2.7294921875
,37.2434346,2.55859375
,37.2438579,2.431640625
,37.2550015,2.314453125
,37.3063029,2.2216796875
,37.3067394,2.1484375
,37.3169957,2.0849609375
,37.3666919,1.9970703125
,37.3671212,1.9287109375
,37.3743006,1.8310546875
,37.4078406,1.77734375
,37.4285136,1.6943359375
,37.4362569,1.6552734375
,37.4752568,1.6015625
,37.4754716,1.5380859375
,37.5144164,1.484375
,37.5147554,1.4404296875
,37.5488618,1.3916015625
,37.571909,1.34765625
,37.5723346,1.3330078125
,37.6171073,1.3037109375
,37.6175859,1.2744140625
,37.6482367,1.2451171875
,37.6577487,1.2744140625
,37.6937104,1.4208984375
,37.6980112,1.7578125
,37.7417224,2.1630859375
,37.7419863,2.568359375
,37.7605253,2.9541015625
,37.7769132,3.212890625
,37.8119145,3.4423828125
,37.81477,3.5693359375
,37.8628887,3.65234375
,37.8631475,3.65234375
,37.8834018,3.603515625
,37.8963247,3.466796875
,37.9323166,3.291015625
,37.9526881,3.076171875
,37.9579111,2.91015625
,37.9770138,2.7294921875
,37.997562,2.5927734375
,38.0357682,2.4609375
,38.0362024,2.3486328125
,38.0823649,2.2314453125
,38.08263,2.1728515625
,38.1038035,2.0947265625
,38.1159172,2.0068359375
,38.1576811,1.943359375
,38.1579573,1.8603515625
,38.1931197,1.77734375
,38.1959784,1.689453125
,38.2302496,1.6064453125
,38.2514383,1.5380859375
,38.2582075,1.46484375
,38.2748464,1.396484375
,38.3099699,1.3671875
,38.3157471,1.3330078125
,38.3373515,1.298828125
,38.3706819,1.2451171875
,38.3922853,1.2060546875
,38.3969103,1.1767578125
,38.4341001,1.142578125
,38.438576,1.2060546875
,38.459977,1.40625
,38.4794363,1.728515625
,38.4956793,2.1142578125
,38.5321588,2.5732421875
,38.5376289,2.919921875
,38.5754907,3.212890625
,38.5758164,3.388671875
,38.6118024,3.515625
,38.6327569,3.544921875
,38.6390086,3.525390625
,38.6565215,3.427734375
,38.6973078,3.28125
,38.6979655,3.0810546875
,38.7450627,2.900390625
,38.7454116,2.71484375
,38.7607835,2.548828125
,38.7781261,2.4072265625
,38.8120722,2.28515625
,38.8333099,2.1826171875
,38.8369307,2.109375
,38.8846953,2.0654296875
,38.8849624,1.9970703125
,38.8979457,1.923828125
,38.935269,1.8505859375
,38.9398124,1.7724609375
,38.9790611,1.6845703125
,38.9793258,1.6357421875
,38.9970761,1.5625
,39.0314555,1.533203125
,39.0363451,1.50390625
,39.0740123,1.455078125
,39.0788092,1.4111328125
,39.1150061,1.3623046875
,39.1200406,1.3330078125
,39.1551508,1.2939453125
,39.1576937,1.279296875
,39.1757953,1.3330078125
,39.2113636,1.572265625
,39.2165388,1.9189453125
,39.2591552,2.3388671875
,39.2594175,2.67578125
,39.2787908,2.9931640625
,39.313648,3.2080078125
,39.3188376,3.3447265625
,39.3544724,3.388671875
,39.3593003,3.4033203125
,39.3986015,3.33984375
,39.3989506,3.1982421875
,39.4287069,3.02734375
,39.4368899,2.83203125
,39.4731423,2.6513671875
,39.4804543,2.5048828125
,39.516448,2.3974609375
,39.521387,2.294921875
,39.5420048,2.216796875
,39.5579965,2.1533203125
,39.5779448,2.109375
,39.6129466,2.05078125
,39.6187414,1.9921875
,39.6375999,1.923828125
,39.6763983,1.845703125
,39.6968112,1.77734375
,39.7015429,1.6845703125
,39.7206893,1.611328125
,39.7380972,1.552734375
,39.7830938,1.5283203125
,39.783351,1.484375
,39.7983628,1.4501953125
,39.8446821,1.4013671875
,39.8451069,1.3671875
,39.8647769,1.3232421875
,39.8803587,1.3037109375
,39.8969208,1.328125
,39.9322151,1.552734375
,39.9373995,1.884765625
,39.9719151,2.3193359375
,39.992405,2.6708984375
,40.0005003,3.0517578125
,40.0257449,3.3154296875
,40.0410635,3.4814453125
,40.0859779,3.57421875
,40.0862454,3.59375
,40.1070431,3.57421875
,40.1182141,3.4033203125
,40.1537802,3.28125
,40.1585045,3.10546875
,40.1912325,2.9150390625
,40.2125951,2.7392578125
,40.2204163,2.5830078125
,40.2559659,2.4462890625
,40.2618105,2.34375
,40.2796787,2.236328125
,40.3153887,2.1826171875
,40.3199831,2.12890625
,40.3562636,2.041015625
,40.3602854,1.97265625
,40.4109989,1.8798828125
,40.4112897,1.806640625
,40.4203468,1.7138671875
,40.4561229,1.640625
,40.4565611,1.5576171875
,40.4788395,1.5234375
,40.5002999,1.4697265625
,40.5341734,1.4501953125
,40.5414163,1.3916015625
,40.5810529,1.3525390625
,40.5814902,1.3037109375
,40.6150878,1.2646484375
,40.6353339,1.2158203125
,40.6376646,1.3037109375
,40.674676,1.4990234375
,40.680049,1.8359375
,40.7169871,2.275390625
,40.7212787,2.6513671875
,40.7572977,3.017578125
,40.7614264,3.2763671875
,40.7990838,3.486328125
,40.7995363,3.583984375
,40.8288029,3.65234375
,40.8403159,3.6572265625
,40.8751573,3.603515625
,40.8816651,3.466796875
,40.9233932,3.291015625
,40.9236679,3.0859375
,40.9573137,2.8857421875
,40.9601347,2.71484375
,40.9949163,2.55859375
,41.0154991,2.431640625
,41.0200622,2.314453125
,41.05474,2.24609375
,41.059838,2.1728515625
,41.0947067,2.109375
,41.1162618,2.0166015625
,41.1238894,1.9384765625
,41.1427127,1.8310546875
,41.1862027,1.748046875
,41.1866464,1.650390625
,41.2010669,1.5869140625
,41.2352563,1.5234375
,41.2403364,1.4599609375
,41.2772235,1.396484375
,41.2809622,1.357421875
,41.3164938,1.3037109375
,41.3364769,1.25
,41.3419767,1.201171875
,41.3576454,1.142578125
,41.4041616,1.1376953125
,41.4045292,1.1962890625
,41.4238529,1.4013671875
,41.4410432,1.73828125
,41.4768762,2.1875
,41.4817629,2.55859375
,41.5013266,2.919921875
,41.5192097,3.173828125
,41.553681,3.4033203125
,41.5586738,3.525390625
,41.5946068,3.583984375
,41.6149444,3.583984375
,41.6211499,3.5009765625
,41.656778,3.349609375
,41.6628962,3.154296875
,41.6987857,2.958984375
,41.6992233,2.7685546875
,41.7349422,2.6171875
,41.7408134,2.48046875
,41.7760642,2.3681640625
,41.7804074,2.2607421875
,41.8164793,2.1923828125
,41.8211104,2.109375
,41.8702018,2.0361328125
,41.8706311,1.943359375
,41.9003529,1.8603515625
,41.9006183,1.7626953125
,41.945045,1.71875
,41.9453127,1.66015625
,41.9621289,1.5869140625
,41.9970273,1.533203125
,42.0021548,1.4697265625
,42.0382831,1.416015625
,42.0428396,1.3671875
,42.0864292,1.328125
,42.086697,1.2841796875
,42.1007282,1.2646484375
,42.1356361,1.240234375
,42.1562556,1.2841796875
,42.1621822,1.4599609375
,42.212682,1.81640625
,42.2131168,2.20703125
,42.2238661,2.59765625
,42.274695,2.9443359375
,42.2749595,3.173828125
,42.2823744,3.349609375
,42.3187245,3.427734375
,42.3210892,3.4619140625
,42.3573223,3.408203125
,42.3626113,3.30078125
,42.4131696,3.1201171875
,42.4135318,2.9248046875
,42.4189818,2.7294921875
,42.4525582,2.587890625
,42.472938,2.451171875
,42.4801009,2.3486328125
,42.5157338,2.236328125
,42.5372257,2.1826171875
,42.5424431,2.099609375
,42.5830928,2.0556640625
,42.5834066,1.9921875
,42.6041329,1.9189453125
,42.6381169,1.787109375
,42.6592412,1.7236328125
,42.6618101,1.669921875
,42.6971245,1.6162109375
,42.7028367,1.5625
,42.739735,1.513671875
,42.7422494,1.4599609375
,42.7857672,1.4013671875
,42.7861899,1.3525390625
,42.8170903,1.3037109375
,42.8215487,1.2841796875
,42.8569685,1.25
,42.8616957,1.240234375
,42.8974891,1.3134765625
,42.9044516,1.513671875
,42.954139,1.904296875
,42.9544079,2.3193359375
,42.9638438,2.71484375
,42.981302,3.02734375
,43.0174165,3.2958984375
,43.0221026,3.4423828125
,43.0626463,3.5498046875
,43.0629114,3.5546875
,43.0994259,3.53515625
,43.105422,3.41796875
,43.1238958,3.2666015625
,43.1410361,3.056640625
,43.1771166,2.861328125
,43.1831983,2.67578125
,43.2191128,2.5390625
,43.2222216,2.4169921875
,43.2633575,2.3046875
,43.2636775,2.216796875
,43.2995711,2.1435546875
,43.3057241,2.0654296875
,43.320952,1.97265625
,43.3576996,1.9091796875
,43.3627061,1.826171875
,43.3817633,1.7431640625
,43.4205134,1.6552734375
,43.4207787,1.5673828125
,43.455314,1.4892578125
,43.4777052,1.42578125
,43.4847306,1.357421875
,43.5273357,1.30859375
,43.5278896,1.26953125
,43.5423404,1.2255859375
,43.5784165,1.201171875
,43.5805546,1.19140625
,43.6184426,1.1865234375
,43.624151,1.171875
,43.6608666,1.201171875
,43.6640168,1.337890625
,43.7012938,1.6650390625
,43.701737,2.080078125
,43.7450958,2.548828125
,43.7455648,2.9345703125
,43.7635539,3.26171875
,43.7847724,3.466796875
,43.8191495,3.6083984375
,43.8243054,3.662109375
,43.8625999,3.6767578125
,43.866935,3.6376953125
,43.8828764,3.515625
,43.9035404,3.3447265625
,43.9243205,3.134765625
,43.9445964,2.9296875
,43.9789737,2.7392578125
,43.9837347,2.587890625
,44.0189916,2.451171875
,44.0417785,2.333984375
,44.0420381,2.2265625
,44.0815875,2.177734375
,44.0820161,2.0947265625
,44.1205859,2.021484375
,44.1426916,1.9384765625
,44.1431233,1.845703125
,44.1824443,1.7578125
,44.182844,1.66015625
,44.2284633,1.5625
,44.228738,1.484375
,44.2591674,1.357421875
,44.263692,1.2451171875
,44.2829307,1.2548828125
,44.3199855,1.23046875
,44.3255067,1.2158203125
,44.3453264,1.1865234375
,44.3793577,1.1572265625
,44.4010479,1.123046875
,44.405903,1.09375
,44.4215362,1.0791015625
,44.4560658,1.1962890625
,44.4765877,1.4453125
,44.4841764,1.875
,44.5236768,2.3388671875
,44.5533562,2.6953125
,44.5538196,3.0419921875
,44.565788,3.2666015625
,44.6154335,3.4130859375
,44.6158143,3.4765625
,44.6233854,3.5205078125
,44.6625036,3.4716796875
,44.6925963,3.359375
,44.6928628,3.1787109375
,44.703801,2.978515625
,44.7552436,2.783203125
,44.7555176,2.6220703125
,44.7858424,2.4755859375
,44.7862654,2.373046875
,44.8032575,2.28515625
,44.8454698,2.20703125
,44.8457437,2.138671875
,44.8645202,2.0654296875
,44.9100984,2.0068359375
,44.9104445,1.923828125
,44.9283099,1.8359375
,44.9423246,1.7431640625
,44.9778612,1.6845703125
,44.9827177,1.6162109375
,45.0172084,1.5673828125
,45.038522,1.50390625
,45.0442635,1.4599609375
,45.0812036,1.4013671875
,45.0873731,1.3623046875
,45.1221925,1.3037109375
,45.1270882,1.2841796875
,45.1636855,1.25
,45.1641153,1.220703125
,45.2017292,1.2939453125
,45.2057043,1.484375
,45.2496596,1.8408203125
,45.2500894,2.2509765625
,45.2656212,2.646484375
,45.3107401,2.96875
,45.3111701,3.232421875
,45.3406393,3.3837890625
,45.3425478,3.486328125
,45.3798557,3.5107421875
,45.4027059,3.486328125
,45.4053351,3.3837890625
,45.440494,3.212890625
,45.4446384,3.0078125
,45.4785415,2.7978515625
,45.5002132,2.6318359375
,45.5035662,2.4755859375
,45.537994,2.3681640625
,45.5585925,2.265625
,45.5639808,2.197265625
,45.6071239,2.12890625
,45.6073892,2.060546875
,45.6272757,1.9921875
,45.646746,1.943359375
,45.6632128,1.8603515625
,45.700213,1.8212890625
,45.7030017,1.7529296875
,45.7468371,1.6943359375
,45.7472611,1.6064453125
,45.7767822,1.5673828125
,45.7865415,1.5087890625
,45.8372523,1.4501953125
,45.8375313,1.396484375
,45.8447571,1.3525390625
,45.8790286,1.328125
,45.8854378,1.2060546875
,45.9200242,1.2158203125
,45.9243934,1.240234375
,45.9607047,1.3623046875
,45.9930079,1.6064453125
,45.9932395,2.001953125
,46.0068954,2.4169921875
,46.0411027,2.822265625
,46.0615626,3.1298828125
,46.0639591,3.408203125
,46.0968199,3.5888671875
,46.1194379,3.6669921875
,46.1266623,3.6767578125
,46.1613452,3.6474609375
,46.1663121,3.5546875
,46.2011966,3.37890625
,46.2212215,3.173828125
,46.2239329,2.958984375
,46.2706902,2.7880859375
,46.2711417,2.63671875
,46.3006312,2.5244140625
,46.3066249,2.412109375
,46.3473587,2.3095703125
,46.3477075,2.216796875
,46.3830617,2.1484375
,46.4077901,2.060546875
,46.4080497,2.0068359375
,46.4262586,1.93359375
,46.4449881,1.845703125
,46.4820232,1.7578125
,46.5035731,1.6748046875
,46.5082232,1.5966796875
,46.5484162,1.5185546875
,46.5488438,1.4599609375
,46.5643482,1.38671875
,46.5852322,1.3525390625
,46.6201849,1.3134765625
,46.6408885,1.2744140625
,46.645679,1.23046875
,46.6819029,1.2158203125
,46.689124,1.1865234375
,46.7245531,1.2353515625
,46.7278614,1.4404296875
,46.7666733,1.767578125
,46.7711001,2.216796875
,46.7866798,2.59765625
,46.8059852,2.9833984375
,46.8417599,3.251953125
,46.8620265,3.45703125
,46.8669016,3.5595703125
,46.9019718,3.61328125
,46.9228441,3.5986328125
,46.9297093,3.53515625
,46.9460563,3.3935546875
,46.982416,3.212890625
,46.986892,3.0126953125
,47.0224115,2.8173828125
,47.026318,2.63671875
,47.0606812,2.5048828125
,47.0823022,2.3876953125
,47.0908152,2.2705078125
,47.1091016,2.1826171875
,47.1275506,2.109375
,47.1637743,2.0458984375
,47.1685687,1.962890625
,47.1884764,1.884765625
,47.2083886,1.796875
,47.2445631,1.708984375
,47.2489183,1.62109375
,47.2926743,1.5380859375
,47.2929401,1.455078125
,47.3076861,1.416015625
,47.3257159,1.3671875
,47.3466049,1.3134765625
,47.3800144,1.2841796875
,47.4018129,1.2353515625
,47.4095319,1.201171875
,47.4445776,1.1474609375
,47.4488971,1.1279296875
,47.4824484,1.11328125
,47.4848933,1.25
,47.5223456,1.5087890625
,47.5267101,1.9384765625
,47.562734,2.3388671875
,47.5684816,2.705078125
,47.61972,2.9833984375
,47.6199861,3.1982421875
,47.628562,3.3154296875
,47.6635686,3.37890625
,47.6865316,3.359375
,47.6868019,3.3447265625
,47.7308396,3.22265625
,47.7311786,3.046875
,47.7496057,2.8515625
,47.7834127,2.67578125
,47.7895596,2.5146484375
,47.8250031,2.3828125
,47.8301897,2.275390625
,47.8468904,2.197265625
,47.8813545,2.158203125
,47.9016931,2.1044921875
,47.9086272,2.0361328125
,47.9446547,1.962890625
,47.9471408,1.8896484375
,47.9949951,1.8017578125
,47.995414,1.7138671875
,48.0250819,1.650390625
,48.0253481,1.5576171875
,48.0727437,1.5185546875
,48.073044,1.46484375
,48.0885259,1.4306640625
,48.1344477,1.376953125
,48.1348647,1.3427734375
,48.1486626,1.2890625
,48.1830448,1.2451171875
,48.2040762,1.1962890625
,48.2064047,1.2255859375
,48.2456264,1.3134765625
,48.2460417,1.58203125
,48.2807587,1.9580078125
,48.3016865,2.392578125
,48.3091509,2.7294921875
,48.3523953,3.06640625
,48.3526528,3.291015625
,48.3707909,3.408203125
,48.405519,3.41796875
,48.4082892,3.4375
,48.4275985,3.4130859375
,48.4735837,3.310546875
,48.4738891,3.14453125
,48.4915171,2.94921875
,48.536377,2.75390625
,48.5367161,2.5830078125
,48.5529391,2.431640625
,48.5686651,2.3095703125
,48.6131512,2.2314453125
,48.6134349,2.158203125
,48.6275231,2.1044921875
,48.6618237,2.0458984375
,48.6826301,1.962890625
,48.6899847,1.8798828125
,48.7254473,1.7919921875
,48.7314841,1.71875
,48.746876,1.6259765625
,48.7855161,1.5673828125
,48.7903431,1.50390625
,48.8270088,1.4404296875
,48.8274406,1.3818359375
,48.8776761,1.3427734375
,48.8779338,1.3037109375
,48.8993937,1.2744140625
,48.9083335,1.2353515625
,48.9563615,1.220703125
,48.956784,1.1865234375
,48.9703095,1.1865234375
,49.0047678,1.2353515625
,49.0097487,1.4111328125
,49.0482042,1.7822265625
,49.0486365,2.197265625
,49.0946906,2.6025390625
,49.0949661,2.939453125
,49.1068177,3.251953125
,49.140694,3.4423828125
,49.1619395,3.57421875
,49.1692902,3.6083984375
,49.2041061,3.6083984375
,49.209686,3.5302734375
,49.249869,3.408203125
,49.2501665,3.2275390625
,49.2846128,3.017578125
,49.3047202,2.8271484375
,49.3065987,2.6513671875
,49.3413481,2.5146484375
,49.3625497,2.3974609375
,49.3716894,2.2998046875
,49.4059835,2.2021484375
,49.4110073,2.12890625
,49.4508087,2.0458984375
,49.4510804,1.9677734375
,49.4681782,1.875
,49.5033054,1.81640625
,49.5236201,1.728515625
,49.5302952,1.6455078125
,49.5673821,1.5673828125
,49.5702022,1.494140625
,49.6071284,1.42578125
,49.6121951,1.3818359375
,49.6301729,1.337890625
,49.6480826,1.2744140625
,49.681932,1.259765625
,49.7031169,1.2158203125
,49.7105359,1.181640625
,49.7581631,1.1474609375
,49.7585858,1.171875
,49.7712848,1.279296875
,49.8184233,1.5625
,49.8186762,1.9580078125
,49.8303814,2.4072265625
,49.8652673,2.763671875
,49.8707352,3.0859375
,49.9118464,3.2958984375
,49.9123699,3.4375
,49.9585354,3.5205078125
,49.9589771,3.515625
,49.9718276,3.4619140625
,49.9936599,3.33984375
,50.0129455,3.1103515625
,50.0311821,2.8466796875
,50.0681315,2.6904296875
,50.0684733,2.529296875
,50.1112574,2.4072265625
,50.1116802,2.28515625
,50.1476548,2.2119140625
,50.1523115,2.1337890625
,50.1889406,2.0751953125
,50.1892659,2.001953125
,50.2222636,1.953125
,50.24428,1.8798828125
,50.2518362,1.826171875
,50.2714115,1.73828125
,50.3063731,1.650390625
,50.3277296,1.572265625
,50.3327699,1.4990234375
,50.3694398,1.4453125
,50.3698595,1.38671875
,50.3915039,1.3623046875
,50.4105759,1.328125
,50.4542748,1.2841796875
,50.4546339,1.2451171875
,50.4730762,1.2109375
,50.5163755,1.1767578125
,50.5166406,1.1962890625
,50.5286239,1.30859375
,50.5798766,1.6064453125
,50.5807473,2.041015625
,50.5896896,2.4169921875
,50.6242727,2.75390625
,50.6562755,3.0029296875
,50.6567135,3.2080078125
,50.6729235,3.2861328125
,50.7187478,3.330078125
,50.7190724,3.3056640625
,50.7299377,3.2421875
,50.7652263,3.0859375
,50.7695505,2.9150390625
,50.8062562,2.7197265625
,50.8123181,2.5537109375
,50.8599627,2.412109375
,50.8603916,2.2998046875
,50.8759542,2.197265625
,50.9095442,2.1533203125
,50.9143827,2.0947265625
,50.9322476,2.021484375
,50.9497706,1.9677734375
,50.985329,1.8994140625
,51.0064592,1.8310546875
,51.0122157,1.748046875
,51.0485017,1.6796875
,51.0542559,1.6015625
,51.074257,1.5478515625
,51.0927606,1.4794921875
,51.1126212,1.4501953125
,51.1570733,1.40625
,51.1573318,1.376953125
,51.1730786,1.328125
,51.221565,1.279296875
,51.2219853,1.25
,51.2519209,1.220703125
,51.2541309,1.3037109375
,51.2697488,1.5087890625
,51.290302,1.9140625
,51.3265444,2.314453125
,51.3472349,2.6904296875
,51.3531961,2.9931640625
,51.3725528,3.232421875
,51.3941245,3.359375
,51.4397436,3.447265625
,51.440009,3.4423828125
,51.4513681,3.4130859375
,51.4857488,3.310546875
,51.5073595,3.14453125
,51.5125627,2.9541015625
,51.549152,2.7685546875
,51.554358,2.6025390625
,51.5899203,2.4462890625
,51.5960716,2.3193359375
,51.6118465,2.2119140625
,51.6565286,2.158203125
,51.6568554,2.0947265625
,51.6730563,2.03125
,51.6917627,1.953125
,51.7291641,1.8798828125
,51.750947,1.7919921875
,51.7512598,1.708984375
,51.7975142,1.62109375
,51.7979297,1.5673828125
,51.8253378,1.50390625
,51.8309543,1.46484375
,51.8672104,1.435546875
,51.8732991,1.38671875
,51.918889,1.337890625
,51.9191455,1.2939453125
,51.9333611,1.259765625
,51.968295,1.2060546875
,51.9903224,1.1865234375
,51.9908592,1.201171875
,52.0280173,1.376953125
,52.0320375,1.6845703125
,52.067847,2.12890625
,52.0890198,2.5048828125
,52.0937797,2.8759765625
,52.136053,3.154296875
,52.1363247,3.359375
,52.1521324,3.466796875
,52.1986798,3.5498046875
,52.1990227,3.5693359375
,52.2140133,3.5009765625
,52.2501667,3.3740234375
,52.2520116,3.193359375
,52.2878914,2.9833984375
,52.3077209,2.7880859375
,52.3167575,2.6220703125
,52.3321451,2.4755859375
,52.3514874,2.373046875
,52.3863663,2.275390625
,52.4067398,2.1923828125
,52.4139679,2.1142578125
,52.449408,2.041015625
,52.45552,1.962890625
,52.4741968,1.875
,52.5105969,1.8017578125
,52.5315275,1.7041015625
,52.5392753,1.5576171875
,52.552252,1.4892578125
,52.5865618,1.46484375
,52.6074323,1.4013671875
,52.6123201,1.3671875
,52.6484996,1.3134765625
,52.668301,1.26953125
,52.6752757,1.2109375
,52.7084322,1.181640625
,52.7289153,1.1328125
,52.7338414,1.123046875
,52.7682406,1.1572265625
,52.7736898,1.3330078125
,52.8199267,1.6259765625
,52.8201893,2.0703125
,52.8367184,2.4853515625
,52.8708433,2.8173828125
,52.8763272,3.1005859375
,52.8916643,3.2861328125
,52.9415628,3.41796875
,52.9418198,3.4716796875
,52.9621952,3.4814453125
,52.9740229,3.4130859375
,53.0192354,3.2763671875
,53.0195246,3.095703125
,53.0414486,2.880859375
,53.053358,2.685546875
,53.0999545,2.5341796875
,53.1003718,2.3974609375
,53.1140413,2.275390625
,53.1502489,2.2021484375
,53.1556009,2.119140625
,53.1909567,2.05078125
,53.1963822,1.9677734375
,53.2160207,1.8994140625
,53.2329915,1.81640625
,53.2849356,1.7578125
,53.2853535,1.6796875
,53.2937563,1.6162109375
,53.3309599,1.54296875
,53.3353834,1.4990234375
,53.3779245,1.4306640625
,53.3783401,1.3916015625
,53.3971448,1.34765625
,53.4394968,1.298828125
,53.4398436,1.2451171875
,53.4552097,1.2451171875
,53.5018545,1.220703125
,53.5021472,1.1962890625
,53.5143825,1.2353515625
,53.5642418,1.4013671875
,53.5647371,1.7236328125
,53.5763756,2.099609375
,53.5968895,2.4853515625
,53.6127807,2.783203125
,53.6346372,3.046875
,53.673516,3.2177734375
,53.6737744,3.3154296875
,53.7202432,3.3349609375
,53.7206574,3.310546875
,53.7352469,3.1982421875
,53.7708959,3.037109375
,53.7913722,2.861328125
,53.791638,2.67578125
,53.8276965,2.529296875
,53.8588995,2.4169921875
,53.8591761,2.333984375
,53.8760288,2.2509765625
,53.9228611,2.1923828125
,53.9232014,2.138671875
,53.9385259,2.0849609375
,53.9538962,2.01171875
,54.0011852,1.962890625
,54.0014554,1.89453125
,54.0147363,1.8212890625
,54.060209,1.7529296875
,54.0606898,1.689453125
,54.0757219,1.6259765625
,54.1125691,1.58203125
,54.1159884,1.5380859375
,54.1376239,1.4697265625
,54.1595718,1.3720703125
,54.1743258,1.279296875
,54.2099205,1.2939453125
,54.2293482,1.2890625
,54.2343935,1.318359375
,54.276075,1.4404296875
,54.2763317,1.7236328125
,54.2965251,2.099609375
,54.3181024,2.490234375
,54.3341806,2.8173828125
,54.370098,3.1396484375
,54.3749029,3.3349609375
,54.4104645,3.466796875
,54.418073,3.53515625
,54.4376509,3.5107421875
,54.4730133,3.4423828125
,54.4775599,3.3056640625
,54.5120279,3.1298828125
,54.5323769,2.9345703125
,54.535175,2.763671875
,54.5714618,2.607421875
,54.5748926,2.4755859375
,54.6175555,2.36328125
,54.6182147,2.265625
,54.6388347,2.1826171875
,54.672724,2.1142578125
,54.672975,2.0458984375
,54.7087361,1.9970703125
,54.7290271,1.923828125
,54.7366921,1.8603515625
,54.7866402,1.787109375
,54.7868934,1.7041015625
,54.7981886,1.6259765625
,54.8467031,1.5625
,54.8470083,1.5087890625
,54.8560002,1.4599609375
,54.8921197,1.4501953125
,54.8951338,1.416015625
,54.9339291,1.3916015625
,54.9343502,1.3427734375
,54.9701102,1.30859375
,54.9912326,1.2841796875
,54.9983707,1.3623046875
,55.0362187,1.552734375
,55.0366734,1.923828125
,55.0771394,2.353515625
,55.0773992,2.6953125
,55.1253076,3.0517578125
,55.1257048,3.28125
,55.1366646,3.45703125
,55.1845819,3.5400390625
,55.1848352,3.5888671875
,55.1995913,3.5595703125
,55.2464192,3.4912109375
,55.2466751,3.349609375
,55.2546532,3.18359375
,55.2941169,2.98828125
,55.3241504,2.8125
,55.3244851,2.65625
,55.3393257,2.529296875
,55.3740235,2.412109375
,55.3767262,2.32421875
,55.4115692,2.2314453125
,55.4318617,2.1533203125
,55.4359123,2.0947265625
,55.4800586,2.01171875
,55.4804859,1.943359375
,55.4971478,1.85546875
,55.5318769,1.7724609375
,55.5527103,1.689453125
,55.559987,1.6015625
,55.5773722,1.5283203125
,55.5976276,1.4794921875
,55.6340566,1.435546875
,55.6346716,1.40625
,55.6749153,1.357421875
,55.6752556,1.30859375
,55.7111408,1.2744140625
,55.7324412,1.220703125
,55.7405787,1.201171875
,55.7570421,1.23046875
,55.7808813,1.4404296875
,55.7967349,1.69921875
,55.8321077,2.1728515625
,55.8513047,2.5537109375
,55.8566877,2.9150390625
,55.8927267,3.1640625
,55.9134616,3.37890625
,55.9178132,3.486328125
,55.9532909,3.5546875
,55.988204,3.544921875
,55.9886222,3.505859375
,55.9973214,3.3740234375
,56.0335856,3.2080078125
,56.0391624,3.0029296875
,56.0820798,2.8173828125
,56.0824582,2.6416015625
,56.1001106,2.5048828125
,56.1363576,2.3779296875
,56.1367733,2.2705078125
,56.1715759,2.20703125
,56.1921033,2.138671875
,56.1982636,2.0458984375
,56.2331491,1.9677734375
,56.2531026,1.8798828125
,56.2593205,1.787109375
,56.2987452,1.7041015625
,56.2990066,1.6162109375
,56.332665,1.5625
,56.3380718,1.513671875
,56.3751894,1.455078125
,56.3756781,1.40625
,56.4127273,1.357421875
,56.4396997,1.3232421875
,56.4399629,1.2890625
,56.4613593,1.259765625
,56.4756868,1.2158203125
,56.5127182,1.2060546875
,56.518321,1.1865234375
,56.5368901,1.2451171875
,56.5798212,1.416015625
,56.5802269,1.7724609375
,56.610633,2.1630859375
,56.6213183,2.5439453125
,56.6412555,2.8515625
,56.6769935,3.115234375
,56.6800671,3.2861328125
,56.6971414,3.359375
,56.7327738,3.408203125
,56.7526991,3.3837890625
,56.7575815,3.2958984375
,56.7905638,3.134765625
,56.8122698,2.9443359375
,56.820219,2.75390625
,56.870967,2.5830078125
,56.8713816,2.44140625
,56.8763293,2.3388671875
,56.897833,2.2412109375
,56.9342289,2.20703125
,56.9645801,2.1533203125
,56.9649063,2.0947265625
,56.9820151,2.03125
,57.0266546,1.9482421875
,57.0269117,1.8701171875
,57.0387811,1.7822265625
,57.058346,1.7333984375
,57.0792961,1.6796875
,57.1213028,1.62109375
,57.1217151,1.5673828125
,57.1401773,1.5185546875
,57.1813627,1.4697265625
,57.1817339,1.42578125
,57.198763,1.3671875
,57.2442053,1.337890625
,57.2445518,1.30859375
,57.2588423,1.2890625
,57.3070358,1.3134765625
,57.3072924,1.484375
,57.3210806,1.81640625
,57.3416543,2.197265625
,57.3759312,2.587890625
,57.3763574,2.91015625
,57.4115897,3.193359375
,57.43305,3.369140625
,57.4405177,3.4912109375
,57.4768457,3.525390625
,57.4791189,3.515625
,57.5260528,3.4326171875
,57.5264685,3.2958984375
,57.5558546,3.115234375
,57.559794,2.9248046875
,57.5790445,2.744140625
,57.5991424,2.607421875
,57.633283,2.5048828125
,57.654779,2.3974609375
,57.6605354,2.3095703125
,57.6809418,2.216796875
,57.7154332,2.1484375
,57.7365109,2.060546875
,57.7415978,1.9873046875
,57.7576374,1.89453125
,57.8060352,1.8310546875
,57.8064489,1.748046875
,57.8255984,1.6796875
,57.8405019,1.6015625
,57.8823734,1.5380859375
,57.8827976,1.474609375
,57.9125818,1.4208984375
,57.9180924,1.3623046875
,57.9591714,1.3671875
,57.9594315,1.3525390625
,57.9954052,1.318359375
,57.9999435,1.2841796875
,58.0384591,1.259765625
,58.0699436,1.30859375
,58.0702371,1.494140625
,58.0810542,1.8603515625
,58.0988665,2.2705078125
,58.1193097,2.6904296875
,58.1545998,3.0322265625
,58.1757247,3.3056640625
,58.1801808,3.486328125
,58.2251103,3.5986328125
,58.225527,3.6328125
,58.2427832,3.6181640625
,58.2793168,3.57421875
,58.2824763,3.4326171875
,58.3196057,3.193359375
,58.3200134,3.0126953125
,58.3560785,2.87109375
,58.358616,2.7197265625
,58.3967261,2.59765625
,58.4238946,2.490234375
,58.4241758,2.3974609375
,58.4408754,2.2998046875
,58.4859369,2.216796875
,58.4863631,2.12890625
,58.5164728,2.080078125
,58.5190512,1.9970703125
,58.5648236,1.9189453125
,58.5650878,1.826171875
,58.5952526,1.7431640625
,58.60058,1.66015625
,58.6365406,1.5625
,58.6574958,1.4892578125
,58.6629584,1.42578125
,58.6802621,1.3916015625
,58.7156746,1.3623046875
,58.7493552,1.328125
,58.7497702,1.2939453125
,58.7640793,1.2548828125
,58.7819876,1.2158203125
,58.8198002,1.19140625
,58.8202288,1.2255859375
,58.8510081,1.4501953125
,58.8608705,1.796875
,58.8980842,2.2607421875
,58.9028008,2.666015625
,58.9393693,2.98828125
,58.9397708,3.2568359375
,58.97718,3.4228515625
,58.9823813,3.544921875
,59.0009691,3.59375
,59.0372014,3.6083984375
,59.0416892,3.5546875
,59.0775308,3.4326171875
,59.0832125,3.251953125
,59.1191102,3.0517578125
,59.1208531,2.861328125
,59.1598567,2.7001953125
,59.180162,2.568359375
,59.1847508,2.451171875
,59.2002883,2.3486328125
,59.2348897,2.2802734375
,59.2552172,2.2119140625
,59.2608358,2.12890625
,59.2976963,2.05078125
,59.302344,1.9580078125
,59.3452089,1.8798828125
,59.3454687,1.77734375
,59.3638324,1.689453125
,59.380577,1.6015625
,59.4164259,1.552734375
,59.4214244,1.4892578125
,59.4695031,1.4404296875
,59.469931,1.3916015625
,59.4900842,1.3623046875
,59.5018611,1.3134765625
,59.5237827,1.26953125
,59.5589581,1.2353515625
,59.5593963,1.19140625
,59.5943744,1.201171875
,59.6263224,1.2744140625
,59.6265859,1.5185546875
,59.642347,1.884765625
,59.6621455,2.314453125
,59.7000076,2.6513671875
,59.70248,2.96875
,59.7206571,3.173828125
,59.7555124,3.3447265625
,59.7604977,3.4228515625
,59.7965422,3.447265625
,59.8021682,3.4130859375
,59.8392812,3.310546875
,59.8427517,3.134765625
,59.8909107,2.94921875
,59.8911668,2.763671875
,59.9054326,2.6025390625
,59.9250125,2.421875
,59.9425649,2.2705078125
,59.9768039,2.2509765625
,59.9818248,2.2265625
,60.0167857,2.2021484375
,60.0375945,2.1435546875
,60.0430428,2.0849609375
,60.0903466,2.0068359375
,60.0905981,1.9287109375
,60.1014624,1.8408203125
,60.1378828,1.787109375
,60.1574488,1.7138671875
,60.1621576,1.640625
,60.1982923,1.6064453125
,60.2034435,1.5478515625
,60.238009,1.4990234375
,60.2584317,1.4306640625
,60.2642438,1.3916015625
,60.2805885,1.328125
,60.3158301,1.30859375
,60.3380217,1.279296875
,60.342055,1.318359375
,60.3639577,1.484375
,60.4149198,1.8359375
,60.4152876,2.2412109375
,60.426833,2.63671875
,60.4424443,2.94921875
,60.4763426,3.2275390625
,60.4813917,3.3935546875
,60.5161878,3.525390625
,60.5371513,3.57421875
,60.5425372,3.564453125
,60.5834805,3.4912109375
,60.5836914,3.3544921875
,60.6184949,3.1640625
,60.6386822,2.96875
,60.641245,2.7978515625
,60.676422,2.6611328125
,60.6962111,2.5390625
,60.7032873,2.431640625
,60.7244341,2.3388671875
,60.7583556,2.24609375
,60.7796444,2.16796875
,60.7861607,2.080078125
,60.821498,1.9970703125
,60.8261365,1.9189453125
,60.8424651,1.8115234375
,60.8919059,1.7431640625
,60.8923171,1.66015625
,60.9127017,1.591796875
,60.9238952,1.513671875
,60.9679412,1.4501953125
,60.9681902,1.3818359375
,60.9885061,1.3427734375
,61.0009653,1.2890625
,61.0356603,1.2939453125
,61.0570198,1.25
,61.0620839,1.2255859375
,61.0987279,1.1767578125
,61.1197378,1.19140625
,61.124526,1.2841796875
,61.1604112,1.6015625
,61.1802796,2.05078125
,61.1836793,2.4560546875
,61.2310294,2.8515625
,61.2312538,3.14453125
,61.2435811,3.37890625
,61.2927603,3.5205078125
,61.2931047,3.6083984375
,61.3249987,3.6279296875
,61.3253175,3.603515625
,61.3427659,3.505859375
,61.3888917,3.3642578125
,61.3892329,3.193359375
,61.4055365,3.0029296875
,61.4506364,2.8173828125
,61.4508896,2.6806640625
,61.4640756,2.5634765625
,61.4985614,2.451171875
,61.5184367,2.3583984375
,61.5203239,2.2607421875
,61.5550798,2.197265625
,61.5756953,2.041015625
,61.5829143,2.001953125
,61.6182635,1.9287109375
,61.6386592,1.845703125
,61.6452467,1.7431640625
,61.6659205,1.66015625
,61.7136939,1.5673828125
,61.7141576,1.4892578125
,61.7438864,1.4208984375
,61.7442713,1.3818359375
,61.7794174,1.337890625
,61.7846104,1.30859375
,61.8192202,1.26953125
,61.8396134,1.220703125
,61.8472699,1.1767578125
,61.8666049,1.15234375
,61.9129349,1.162109375
,61.9134381,1.2646484375
,61.9238249,1.591796875
,61.96171,2.001953125
,61.9921188,2.44140625
,61.9924496,2.7880859375
,62.005617900000004,3.0810546875
,62.045498800000004,3.291015625
,62.069803199999996,3.4912109375
,62.070051899999996,3.5888671875
,62.08441139999999,3.65234375
,62.13091060000001,3.662109375
,62.131129400000006,3.57421875
,62.145165399999996,3.4130859375
,62.1795599,3.2177734375
,62.2076831,3.0126953125
,62.20809319999999,2.822265625
,62.242468,2.666015625
,62.2427306,2.5439453125
,62.264324,2.451171875
,62.2999052,2.353515625
,62.3055038,2.2802734375
,62.340935099999996,2.1875
,62.344384399999996,2.1142578125
,62.3783323,2.03125
,62.3995877,1.93359375
,62.408063999999996,1.826171875
,62.4537617,1.6845703125
,62.454025400000006,1.6162109375
,62.463893,1.533203125
,62.502655700000005,1.4892578125
,62.502921099999995,1.435546875
,62.5475761,1.396484375
,62.547839499999995,1.357421875
,62.5681409,1.3330078125
,62.603808799999996,1.2939453125
,62.609065099999995,1.259765625
,62.62514,1.2060546875
,62.6438811,1.1865234375
,62.6818717,1.1865234375
,62.6859316,1.3037109375
,62.732729000000006,1.5478515625
,62.73391169999999,1.962890625
,62.763680699999995,2.40234375
,62.766091900000006,2.7197265625
,62.8022996,3.0126953125
,62.8231471,3.1982421875
,62.8259489,3.369140625
,62.8614719,3.4423828125
,62.865533400000004,3.4716796875
,62.903863799999996,3.41796875
,62.9245349,3.310546875
,62.927661400000005,3.125
,62.967020700000006,2.9345703125
,62.9672753,2.75390625
,62.984976700000004,2.6220703125
,63.0191799,2.4951171875
,63.040666099999996,2.3974609375
,63.044995799999995,2.294921875
,63.091602300000005,2.24609375
,63.0918736,2.1875
,63.1084589,2.119140625
,63.153400700000006,2.041015625
,63.153760899999995,1.9580078125
,63.1656852,1.8896484375
,63.213833300000005,1.81640625
,63.2141208,1.7431640625
,63.2258298,1.669921875
,63.275932100000006,1.5966796875
,63.2762721,1.5283203125
,63.288927599999994,1.474609375
,63.3096254,1.4306640625
,63.3536271,1.3916015625
,63.353841599999996,1.328125
,63.366969600000004,1.2890625
,63.385516100000004,1.2548828125
,63.4309901,1.2109375
,63.431291599999994,1.25
,63.4523004,1.416015625
,63.4685788,1.7919921875
,63.507599799999994,2.20703125
,63.5078434,2.59765625
,63.524311100000006,2.8955078125
,63.5615557,3.1640625
,63.584689600000004,3.3251953125
,63.584955199999996,3.45703125
,63.622514699999996,3.4912109375
,63.628855900000005,3.49609375
,63.648127900000006,3.427734375
,63.682642599999994,3.2958984375
,63.7028878,3.1005859375
,63.70582640000001,2.9296875
,63.742206100000004,2.7587890625
,63.746457500000005,2.6025390625
,63.788930199999996,2.4755859375
,63.78920599999999,2.3779296875
,63.8174387,2.28515625
,63.829838300000006,2.216796875
,63.8810333,2.1484375
,63.88141160000001,2.0751953125
,63.886503000000005,2.0068359375
,63.9220466,1.93359375
,63.9273572,1.845703125
,63.9624652,1.748046875
,63.9666893,1.66015625
,64.003431,1.572265625
,64.0080476,1.4892578125
,64.0429393,1.4306640625
,64.0657466,1.3623046875
,64.0686509,1.2548828125
,64.0845106,1.1865234375
,64.1282122,1.240234375
,64.1286325,1.2353515625
,64.1567522,1.23046875
,64.1686888,1.1962890625
,64.1879952,1.1865234375
,64.2338774,1.2158203125
,64.2342403,1.4013671875
,64.2453577,1.7236328125
,64.280612,2.197265625
,64.3027391,2.587890625
,64.3076677,2.9541015625
,64.3563421,3.2080078125
,64.3567734,3.427734375
,64.3701002,3.5498046875
,64.390215,3.603515625
,64.4345119,3.6083984375
,64.4347639,3.5595703125
,64.4462069,3.466796875
,64.4803075,3.3056640625
,64.5003994,3.1201171875
,64.5080792,2.9248046875
,64.5286367,2.7490234375
,64.564232,2.59765625
,64.5924145,2.4755859375
,64.5927514,2.36328125
,64.6075362,2.294921875
,64.6519958,2.216796875
,64.6522584,2.1435546875
,64.6689068,2.060546875
,64.7040661,1.9580078125
,64.7094163,1.865234375
,64.744877,1.767578125
,64.7528023,1.689453125
,64.7654339,1.591796875
,64.7999018,1.533203125
,64.8210295,1.46484375
,64.8265473,1.4111328125
,64.8627866,1.3623046875
,64.8697467,1.328125
,64.9164709,1.2841796875
,64.9168076,1.240234375
,64.9321153,1.19140625
,64.9516043,1.15234375
,64.9674044,1.0986328125
,65.0039767,1.1083984375
,65.0068904,1.1669921875
,65.043277,1.3525390625
,65.0742718,1.7431640625
,65.0745853,2.1826171875
,65.0911148,2.5927734375
,65.1103306,2.9248046875
,65.144728,3.212890625
,65.165832,3.3837890625
,65.1662465,3.5205078125
,65.2108115,3.5693359375
,65.211082,3.5791015625
,65.2315045,3.5107421875
,65.250291,3.3935546875
,65.2872742,3.203125
,65.2900579,2.9931640625
,65.3257152,2.79296875
,65.3501792,2.6171875
,65.3505558,2.490234375
,65.3700093,2.3828125
,65.388953,2.314453125
,65.4271221,2.2265625
,65.4296746,2.158203125
,65.4732291,2.0703125
,65.4735511,1.9873046875
,65.4876746,1.8896484375
,65.5367142,1.8212890625
,65.5369758,1.728515625
,65.5480867,1.6455078125
,65.5992422,1.5625
,65.5995016,1.4892578125
,65.6114595,1.416015625
,65.647372,1.3818359375
,65.6521862,1.3330078125
,65.6723262,1.2841796875
,65.692204,1.181640625
,65.7095458,1.0888671875
,65.7300637,1.1083984375
,65.7495557,1.09375
,65.7861978,1.1181640625
,65.7893337,1.2158203125
,65.8110879,1.484375
,65.8460026,1.8798828125
,65.8517248,2.3095703125
,65.8681102,2.63671875
,65.9062288,2.96875
,65.9086833,3.1689453125
,65.9447121,3.3056640625
,65.9648871,3.37890625
,65.9703883,3.3642578125
,66.0150066,3.2958984375
,66.0153462,3.1640625
,66.0321633,2.9833984375
,66.0473452,2.7783203125
,66.0815542,2.607421875
,66.1011423,2.4609375
,66.1086811,2.3486328125
,66.1434116,2.24609375
,66.1654725,2.20703125
,66.170957,2.1533203125
,66.2085567,2.109375
,66.2089824,2.0361328125
,66.2459675,1.982421875
,66.246232,1.8994140625
,66.2916461,1.8408203125
,66.2920777,1.748046875
,66.3222735,1.6552734375
,66.3294288,1.572265625
,66.3687298,1.5087890625
,66.3899227,1.4501953125
,66.3903573,1.396484375
,66.4306793,1.38671875
,66.4309382,1.3623046875
,66.4489076,1.318359375
,66.4831134,1.2841796875
,66.5041382,1.240234375
,66.5125256,1.2158203125
,66.5330413,1.2646484375
,66.5695068,1.455078125
,66.5724508,1.8359375
,66.6179767,2.2900390625
,66.6183256,2.6416015625
,66.6298331,2.9931640625
,66.6662329,3.2373046875
,66.6695297,3.4326171875
,66.7028849,3.5205078125
,66.7233025,3.5546875
,66.7306675,3.5205078125
,66.7667284,3.4326171875
,66.7866779,3.271484375
,66.7888377,3.10546875
,66.8330944,2.9150390625
,66.8333481,2.7392578125
,66.8534152,2.587890625
,66.8734399,2.4658203125
,66.8920999,2.3583984375
,66.9409655,2.294921875
,66.9414161,2.20703125
,66.95033,2.1337890625
,66.9902037,2.080078125
,66.99046,2.0068359375
,67.0256583,1.923828125
,67.0315666,1.8310546875
,67.0658571,1.7431640625
,67.0703735,1.66015625
,67.1064449,1.58203125
,67.1274678,1.5087890625
,67.1278284,1.4697265625
,67.173811,1.4208984375
,67.1740703,1.396484375
,67.1946246,1.357421875
,67.2116252,1.3232421875
,67.2514932,1.2939453125
,67.2517591,1.25
,67.2895148,1.2353515625
,67.2898988,1.298828125
,67.3301143,1.5673828125
,67.3304478,1.9580078125
,67.3498642,2.4169921875
,67.3934904,2.783203125
,67.3939027,3.1201171875
,67.4120883,3.359375
,67.4469788,3.544921875
,67.4532116,3.6279296875
,67.4722908,3.6669921875
,67.4900645,3.65234375
,67.5327429,3.6083984375
,67.5330139,3.486328125
,67.5668531,3.330078125
,67.5721947,3.14453125
,67.6088988,2.9638671875
,67.6109732,2.8173828125
,67.6565721,2.6904296875
,67.6568302,2.5927734375
,67.6753066,2.4951171875
,67.6911475,2.4267578125
,67.726446,2.333984375
,67.7511915,2.24609375
,67.7515994,2.1533203125
,67.7989407,2.060546875
,67.7997753,1.953125
,67.8124685,1.875
,67.8291414,1.7724609375
,67.8645781,1.7138671875
,67.8697699,1.6552734375
,67.9054544,1.591796875
,67.9261211,1.533203125
,67.9320053,1.4794921875
,67.9671199,1.42578125
,67.9716585,1.357421875
,68.0143922,1.298828125
,68.0147346,1.240234375
,68.0361741,1.25
,68.0505945,1.328125
,68.0874391,1.611328125
,68.0923372,1.9970703125
,68.1285227,2.421875
,68.1330109,2.744140625
,68.1726271,3.02734375
,68.1730437,3.212890625
,68.2175002,3.33984375
,68.2177583,3.447265625
,68.232032,3.4765625
,68.2808959,3.4814453125
,68.2811663,3.41796875
,68.2925533,3.2666015625
,68.3305007,3.1005859375
,68.3349904,2.919921875
,68.3699612,2.7490234375
,68.3749708,2.607421875
,68.3924562,2.490234375
,68.4275871,2.4072265625
,68.4322189,2.3291015625
,68.4677432,2.24609375
,68.4727118,2.1728515625
,68.5090698,2.08984375
,68.5144547,2.0166015625
,68.5613386,1.9189453125
,68.5615921,1.8212890625
,68.57013,1.7236328125
,68.6091545,1.669921875
,68.6383462,1.6015625
,68.6386048,1.54296875
,68.6529893,1.474609375
,68.7001309,1.4208984375
,68.7004209,1.3525390625
,68.721677,1.3330078125
,68.7315867,1.26953125
,68.7669357,1.2646484375
,68.7716496,1.240234375
,68.8061233,1.30859375
,68.8280474,1.494140625
,68.8323863,1.8896484375
,68.8679746,2.3046875
,68.9012086,2.6171875
,68.9016458,2.900390625
,68.9113597,3.1005859375
,68.9466247,3.2470703125
,68.9667554,3.3154296875
,68.9717393,3.349609375
,69.0091238,3.3154296875
,69.0312143,3.2177734375
,69.0316899,3.056640625
,69.0662521,2.87109375
,69.0871569,2.705078125
,69.0968309,2.55859375
,69.1112036,2.431640625
,69.1454606,2.3486328125
,69.1662241,2.28515625
,69.1725942,2.20703125
,69.2082174,2.1533203125
,69.2137462,2.0849609375
,69.2497179,2.0166015625
,69.2545409,1.9384765625
,69.2910804,1.85546875
,69.2913951,1.7626953125
,69.3262954,1.69921875
,69.3472215,1.6162109375
,69.3521324,1.5576171875
,69.3872334,1.484375
,69.4079563,1.4404296875
,69.4142531,1.3818359375
,69.4505144,1.328125
,69.4708497,1.259765625
,69.4714089,1.2548828125
,69.509944,1.2255859375
,69.5127672,1.2255859375
,69.5334249,1.3623046875
,69.5680707,1.640625
,69.5892742,2.0703125
,69.5948205,2.44140625
,69.6311785,2.7734375
,69.6314587,3.0029296875
,69.6664216,3.212890625
,69.6861553,3.330078125
,69.692714,3.408203125
,69.7273409,3.4130859375
,69.7481194,3.388671875
,69.7535886,3.271484375
,69.7906391,3.1103515625
,69.7964141,2.9248046875
,69.8162239,2.744140625
,69.836331,2.529296875
,69.8534559,2.3486328125
,69.8990335,2.3046875
,69.8994566,2.24609375
,69.9298873,2.2119140625
,69.9351262,2.1533203125
,69.9758472,2.0751953125
,69.9761088,1.9921875
,70.0120768,1.9189453125
,70.03214,1.81640625
,70.032404,1.7431640625
,70.0699878,1.66015625
,70.0744808,1.58203125
,70.113209,1.4990234375
,70.1159953,1.4404296875
,70.1597193,1.3818359375
,70.1601323,1.318359375
,70.1760435,1.279296875
,70.1934378,1.2158203125
,70.2295289,1.19140625
,70.2344137,1.162109375
,70.2544308,1.15234375
,70.2889995,1.1376953125
,70.3095358,1.1962890625
,70.3171526,1.376953125
,70.3367809,1.7529296875
,70.3537728,2.177734375
,70.3893745,2.607421875
,70.394333,2.9248046875
,70.4319355,3.1884765625
,70.4346523,3.388671875
,70.4729634,3.486328125
,70.4733794,3.5400390625
,70.512987,3.53515625
,70.544101,3.505859375
,70.5445518,3.388671875
,70.5536383,3.2421875
,70.604758,3.056640625
,70.6050116,2.8857421875
,70.6152743,2.7294921875
,70.6519344,2.6123046875
,70.6538459,2.4951171875
,70.688531,2.4072265625
,70.7147654,2.3046875
,70.715121,2.2119140625
,70.7326029,2.109375
,70.7677984,2.0654296875
,70.7885542,1.9873046875
,70.7967723,1.89453125
,70.8147832,1.796875
,70.8506241,1.69921875
,70.8723376,1.5966796875
,70.8767333,1.50390625
,70.9164249,1.4208984375
,70.9167653,1.3525390625
,70.9629656,1.3134765625
,70.9632323,1.26953125
,70.9756247,1.23046875
,71.0249626,1.1865234375
,71.0252185,1.162109375
,71.0379731,1.1328125
,71.085307,1.103515625
,71.0856179,1.0986328125
,71.0931396,1.1376953125
,71.1323908,1.38671875
,71.1349221,1.767578125
,71.1715987,2.24609375
,71.174184,2.6025390625
,71.2120579,2.919921875
,71.2392971,3.134765625
,71.2395785,3.3154296875
,71.2530968,3.4033203125
,71.2898904,3.4912109375
,71.3180295,3.4912109375
,71.3184386,3.4375
,71.366066,3.3056640625
,71.3663158,3.125
,71.3778623,2.919921875
,71.4150461,2.7490234375
,71.4154571,2.587890625
,71.4570389,2.4462890625
,71.4573099,2.2705078125
,71.4928996,2.138671875
,71.4933278,2.1240234375
,71.5309612,2.0751953125
,71.5364133,2.0166015625
,71.5815995,1.943359375
,71.5819733,1.85546875
,71.6017087,1.7626953125
,71.6199092,1.6552734375
,71.6355722,1.5625
,71.6733561,1.4990234375
,71.6736141,1.4208984375
,71.7078993,1.3525390625
,71.7291076,1.3134765625
,71.7370339,1.25
,71.7735761,1.2060546875
,71.7769772,1.162109375
,71.8286586,1.1376953125
,71.8290766,1.0986328125
,71.8337506,1.083984375
,71.8706917,1.044921875
,71.8761028,1.0595703125
,71.9121103,1.162109375
,71.9175048,1.4697265625
,71.9546459,1.8701171875
,71.9563372,2.314453125
,71.973771,2.6318359375
,72.014079,2.9443359375
,72.0143333,3.134765625
,72.0343058,3.28125
,72.0720895,3.33984375
,72.0768545,3.330078125
,72.0969588,3.28125
,72.1388391,3.1494140625
,72.1391616,2.978515625
,72.1580936,2.783203125
,72.1744174,2.6220703125
,72.217952,2.4755859375
,72.2182713,2.353515625
,72.2474881,2.24609375
,72.2569825,2.1728515625
,72.2938359,2.119140625
,72.2984344,2.0849609375
,72.3404215,2.021484375
,72.3406743,1.9482421875
,72.3594437,1.875
,72.3743668,1.77734375
,72.4095598,1.71875
,72.4361942,1.6455078125
,72.4364602,1.5771484375
,72.4725617,1.50390625
,72.4794503,1.435546875
,72.5159518,1.3720703125
,72.5177274,1.328125
,72.5363873,1.279296875
,72.5746594,1.279296875
,72.5750592,1.25
,72.6139859,1.2158203125
,72.6362173,1.1767578125
,72.6365628,1.162109375
,72.6840969,1.1962890625
,72.6843509,1.416015625
,72.7139032,1.796875
,72.7141575,2.20703125
,72.7619719,2.6220703125
,72.7622626,2.9345703125
,72.7786228,3.1884765625
,72.8259494,3.33984375
,72.8263408,3.45703125
,72.8407343,3.4912109375
,72.8855159,3.4716796875
,72.8860993,3.3837890625
,72.8974121,3.2568359375
,72.917384,3.076171875
,72.9517599,2.880859375
,72.9567429,2.6904296875
,72.9920494,2.529296875
,73.0122816,2.4072265625
,73.0183518,2.2998046875
,73.0391512,2.20703125
,73.0547149,2.138671875
,73.090197,2.099609375
,73.1109359,2.021484375
,73.1182722,1.953125
,73.1624121,1.85546875
,73.1628355,1.7724609375
,73.1790079,1.669921875
,73.2251926,1.5966796875
,73.2256092,1.5087890625
,73.2447593,1.435546875
,73.2578333,1.3525390625
,73.2936855,1.3134765625
,73.2967773,1.26953125
,73.3325869,1.2646484375
,73.3368893,1.240234375
,73.3728387,1.2109375
,73.3944829,1.181640625
,73.40027,1.1474609375
,73.4361408,1.11328125
,73.4365361,1.0791015625
,73.4711928,1.1474609375
,73.4752569,1.3330078125
,73.5179955,1.7041015625
,73.5184116,2.1484375
,73.539626,2.5732421875
,73.5748272,2.9296875
,73.5964648,3.232421875
,73.5967688,3.4228515625
,73.6181744,3.5595703125
,73.6586164,3.6328125
,73.6588893,3.6181640625
,73.6783981,3.5693359375
,73.719771,3.4375
,73.720129,3.2666015625
,73.7564424,3.056640625
,73.7591862,2.8662109375
,73.7765521,2.6904296875
,73.8128998,2.5634765625
,73.8184705,2.44140625
,73.8536084,2.3583984375
,73.8738294,2.2509765625
,73.879266,2.1826171875
,73.9134803,2.099609375
,73.9336525,2.0166015625
,73.9409528,1.9189453125
,73.9593044,1.7822265625
,73.9965819,1.6552734375
,74.0170353,1.591796875
,74.0174462,1.552734375
,74.0552302,1.4892578125
,74.0760875,1.4306640625
,74.0806472,1.376953125
,74.1159286,1.328125
,74.1213746,1.2890625
,74.1579046,1.25
,74.1581817,1.2158203125
,74.19385,1.201171875
,74.1986193,1.1767578125
,74.2328718,1.1572265625
,74.2533002,1.1328125
,74.2612625,1.1083984375
,74.3064276,1.1669921875
,74.3068294,1.337890625
,74.3209071,1.708984375
,74.3372367,2.1484375
,74.3829094,2.6171875
,74.3833167,2.978515625
,74.3997131,3.2763671875
,74.4363689,3.4521484375
,74.4411712,3.57421875
,74.4883594,3.6083984375
,74.4886449,3.603515625
,74.4963321,3.525390625
,74.5345886,3.4130859375
,74.5391352,3.22265625
,74.5822697,3.017578125
,74.5827322,2.8125
,74.6287548,2.6513671875
,74.6291857,2.5048828125
,74.641249,2.3779296875
,74.6906877,2.265625
,74.6910071,2.1728515625
,74.7210313,2.1142578125
,74.7213743,2.0458984375
,74.7561492,1.9873046875
,74.7580252,1.904296875
,74.7980905,1.8115234375
,74.8181651,1.71875
,74.821252,1.6259765625
,74.860965,1.533203125
,74.861221,1.4697265625
,74.8796929,1.396484375
,74.9145517,1.3671875
,74.9198182,1.337890625
,74.9542522,1.2939453125
,74.9596574,1.2646484375
,75.0000054,1.220703125
,75.0003687,1.201171875
,75.0384263,1.162109375
,75.0431045,1.1279296875
,75.0580074,1.083984375
,75.0941191,1.1328125
,75.0992705,1.2744140625
,75.1359801,1.6064453125
,75.1413005,2.0068359375
,75.1874326,2.44140625
,75.1878477,2.783203125
,75.202671,3.0810546875
,75.2180732,3.2568359375
,75.251654,3.408203125
,75.2721857,3.4619140625
,75.2793691,3.4423828125
,75.3148883,3.3642578125
,75.3364045,3.212890625
,75.3417595,3.0126953125
,75.3773011,2.8076171875
,75.3816991,2.63671875
,75.3995271,2.4853515625
,75.4347243,2.3828125
,75.4392605,2.28515625
,75.4781153,2.2119140625
,75.4802288,2.1435546875
,75.5259416,2.0947265625
,75.5261952,2.021484375
,75.5566952,1.953125
,75.5618872,1.8798828125
,75.5825402,1.796875
,75.6049517,1.6650390625
,75.6205338,1.552734375
,75.6397992,1.552734375
,75.6781283,1.5185546875
,75.6978331,1.4892578125
,75.6998848,1.4404296875
,75.7400296,1.4111328125
,75.7613204,1.3671875
,75.761575,1.337890625
,75.7807516,1.279296875
,75.7993861,1.2744140625
,75.8471455,1.2451171875
,75.847433,1.2353515625
,75.8666117,1.2890625
,75.8816896,1.533203125
,75.9192333,1.9287109375
,75.9260457,2.333984375
,75.9739843,2.734375
,75.9741901,3.0517578125
,75.9801202,3.3251953125
,76.0179114,3.4765625
,76.0232655,3.5693359375
,76.0414655,3.5888671875
,76.0766335,3.5595703125
,76.0976776,3.4521484375
,76.1029028,3.2861328125
,76.1193832,3.0859375
,76.157015,2.900390625
,76.1619819,2.734375
,76.1803382,2.578125
,76.2194357,2.4658203125
,76.219834,2.3486328125
,76.2567814,2.2607421875
,76.2775717,2.177734375
,76.2838403,2.1142578125
,76.3008032,2.0263671875
,76.3373343,1.982421875
,76.3419059,1.904296875
,76.3909684,1.8310546875
,76.3913946,1.7529296875
,76.4019629,1.69921875
,76.4374409,1.6259765625
,76.4586859,1.572265625
,76.4649859,1.4990234375
,76.5163699,1.4404296875
,76.5166374,1.3818359375
,76.519309,1.3818359375
,76.5547273,1.357421875
,76.5749124,1.318359375
,76.5818285,1.2841796875
,76.6181085,1.25
,76.6222575,1.2060546875
,76.6566456,1.2060546875
,76.6776365,1.3427734375
,76.6809053,1.6259765625
,76.7009601,2.080078125
,76.750754,2.5048828125
,76.7509687,2.900390625
,76.7616498,3.212890625
,76.8127707,3.45703125
,76.8132073,3.5888671875
,76.8435205,3.662109375
,76.8438726,3.6767578125
,76.8609509,3.642578125
,76.9046765,3.5595703125
,76.9049293,3.3984375
,76.9343893,3.212890625
,76.9431722,3.0078125
,76.9811415,2.8271484375
,76.9836328,2.6708984375
,77.0190703,2.5439453125
,77.0435443,2.431640625
,77.0439952,2.3583984375
,77.0634557,2.2607421875
,77.0826709,2.1923828125
,77.1177856,2.109375
,77.1231402,2.0263671875
,77.1692343,1.93359375
,77.1696494,1.8603515625
,77.19926,1.7724609375
,77.1996665,1.6845703125
,77.2442536,1.6259765625
,77.2446655,1.4794921875
,77.2789761,1.455078125
,77.2808058,1.42578125
,77.3162023,1.3916015625
,77.3373136,1.357421875
,77.3441532,1.3232421875
,77.3847568,1.279296875
,77.3850174,1.240234375
,77.4056248,1.201171875
,77.4222486,1.2109375
,77.4624294,1.23046875
,77.462682,1.376953125
,77.4840905,1.7041015625
,77.5238165,2.109375
,77.5240811,2.5439453125
,77.5616546,2.900390625
,77.5648475,3.2080078125
,77.5813842,3.4033203125
,77.6180384,3.5595703125
,77.6224676,3.623046875
,77.6599506,3.642578125
,77.662572,3.5986328125
,77.6990838,3.4912109375
,77.7040983,3.3251953125
,77.7379555,3.134765625
,77.7583834,2.9296875
,77.7615022,2.7685546875
,77.7976377,2.626953125
,77.8171955,2.5244140625
,77.8220363,2.421875
,77.8632228,2.32421875
,77.8920223,2.2412109375
,77.8922954,2.1630859375
,77.9048275,2.0849609375
,77.9234076,1.9970703125
,77.9591572,1.943359375
,77.962102,1.8603515625
,78.0001864,1.7919921875
,78.0212445,1.6943359375
,78.0238071,1.6259765625
,78.0591749,1.552734375
,78.0664775,1.50390625
,78.1072073,1.4453125
,78.1074607,1.34765625
,78.1257025,1.3330078125
,78.1426009,1.298828125
,78.1852456,1.2939453125
,78.1856313,1.279296875
,78.2063639,1.2744140625
,78.2250768,1.3037109375
,78.2595977,1.494140625
,78.2826929,1.806640625
,78.2873787,2.236328125
,78.3018574,2.587890625
,78.3417855,2.9541015625
,78.3420381,3.1884765625
,78.3629364,3.3740234375
,78.3993498,3.45703125
,78.4195942,3.49609375
,78.4255986,3.466796875
,78.4462055,3.4228515625
,78.4830429,3.2861328125
,78.483338,3.10546875
,78.5025796,2.939453125
,78.5458309,2.7978515625
,78.5462452,2.6611328125
,78.566714,2.55859375
,78.5859228,2.48046875
,78.6236553,2.3974609375
,78.6259048,2.3095703125
,78.642504,2.2216796875
,78.6780806,2.1630859375
,78.6833918,2.0947265625
,78.7195688,2.021484375
,78.7237289,1.9384765625
,78.7593087,1.845703125
,78.7802813,1.7822265625
,78.7845857,1.6845703125
,78.8198875,1.6162109375
,78.8402354,1.552734375
,78.842775,1.533203125
,78.8795609,1.484375
,78.8830716,1.4501953125
,78.9332897,1.396484375
,78.9336288,1.3671875
,78.946307,1.3134765625
,78.9809727,1.3232421875
,79.0093064,1.4013671875
,79.0095686,1.6748046875
,79.0246045,2.060546875
,79.0614459,2.5
,79.0658108,2.8515625
,79.0863987,3.1689453125
,79.1213501,3.37890625
,79.1258165,3.5009765625
,79.164062,3.564453125
,79.1666132,3.57421875
,79.2038337,3.53515625
,79.204267,3.4375
,79.2379858,3.310546875
,79.2596223,3.14453125
,79.2664684,2.9541015625
,79.3027981,2.7978515625
,79.3058126,2.6611328125
,79.3403261,2.5390625
,79.3602097,2.4560546875
,79.362612,2.3583984375
,79.4018401,2.275390625
,79.4021188,2.2265625
,79.4393891,2.138671875
,79.459642,2.0654296875
,79.4646497,1.97265625
,79.5057978,1.89453125
,79.506169,1.8017578125
,79.5270926,1.7138671875
,79.5436508,1.6162109375
,79.5784586,1.5673828125
,79.5989586,1.5087890625
,79.6038272,1.46484375
,79.6489935,1.40625
,79.6493291,1.3671875
,79.6796171,1.318359375
,79.6867816,1.26953125
,79.7070614,1.2109375
,79.7283041,1.1279296875
,79.7635694,1.09375
,79.763993,1.23046875
,79.8051508,1.5771484375
,79.8054261,2.021484375
,79.8387647,2.48046875
,79.8598165,2.8369140625
,79.8681436,3.154296875
,79.8891586,3.3544921875
,79.9087613,3.505859375
,79.924606,3.57421875
,79.9626815,3.623046875
,79.9630922,3.603515625
,80.0061649,3.544921875
,80.0067338,3.408203125
,80.0268395,3.2373046875
,80.0668145,3.056640625
,80.0670746,2.8857421875
,80.0883478,2.734375
,80.1033126,2.607421875
,80.1434672,2.5244140625
,80.1437202,2.421875
,80.1906455,2.3291015625
,80.1910614,2.2265625
,80.2105307,2.1435546875
,80.2278724,2.041015625
,80.2644865,1.9580078125
,80.2648104,1.85546875
,80.3104342,1.7724609375
,80.3108469,1.6845703125
,80.3276652,1.6064453125
,80.3465615,1.5087890625
,80.388222,1.4501953125
,80.3886396,1.3818359375
,80.4173671,1.3134765625
,80.4276002,1.26953125
,80.4438433,1.2158203125
,80.4787509,1.2060546875
,80.4991189,1.1767578125
,80.5066681,1.171875
,80.5413778,1.1376953125
,80.5453687,1.123046875
,80.5797173,1.15234375
,80.6010114,1.3623046875
,80.6081471,1.71875
,80.6486861,2.197265625
,80.6490974,2.587890625
,80.6661495,2.9638671875
,80.7023083,3.2568359375
,80.7053218,3.427734375
,80.7423604,3.53515625
,80.7730522,3.57421875
,80.7734351,3.5791015625
,80.7904155,3.515625
,80.8096014,3.388671875
,80.825767,3.203125
,80.8604654,3.0224609375
,80.88127,2.83203125
,80.8872857,2.685546875
,80.9217934,2.548828125
,80.9278239,2.4462890625
,80.9612239,2.3486328125
,80.9821093,2.255859375
,80.985652,2.16796875
,81.0231321,2.1435546875
,81.0278048,2.0751953125
,81.0458063,1.9970703125
,81.0852634,1.904296875
,81.0878956,1.806640625
,81.1233341,1.7138671875
,81.1292476,1.630859375
,81.1781991,1.5673828125
,81.178532,1.494140625
,81.1875954,1.4501953125
,81.2078821,1.416015625
,81.2443859,1.3671875
,81.2474423,1.3330078125
,81.2824129,1.298828125
,81.2875895,1.2548828125
,81.324754,1.2109375
,81.3292655,1.1962890625
,81.3507182,1.2060546875
,81.3700603,1.3232421875
,81.385419,1.6162109375
,81.4184513,2.12890625
,81.4408471,2.529296875
,81.4484158,2.880859375
,81.4860218,3.1201171875
,81.4886147,3.3056640625
,81.5237029,3.3837890625
,81.5305268,3.4423828125
,81.5460266,3.4228515625
,81.5936479,3.369140625
,81.5941446,3.2373046875
,81.6079977,3.046875
,81.6456445,2.8564453125
,81.6503196,2.6953125
,81.6698675,2.548828125
,81.7038166,2.4267578125
,81.7252398,2.333984375
,81.7255957,2.2412109375
,81.760842,2.1923828125
,81.781584,2.138671875
,81.7866146,2.0703125
,81.8231337,1.9873046875
,81.8446192,1.89453125
,81.8502104,1.806640625
,81.8865138,1.708984375
,81.8870294,1.611328125
,81.9238923,1.5576171875
,81.9270419,1.484375
,81.9661028,1.416015625
,81.9683956,1.376953125
,82.0034594,1.3232421875
,82.0083309,1.2890625
,82.043577,1.240234375
,82.0763229,1.220703125
,82.0765762,1.171875
,82.088322,1.162109375
,82.1228542,1.1376953125
,82.1281814,1.162109375
,82.1639335,1.2890625
,82.1700513,1.62109375
,82.1895222,2.0361328125
,82.2088841,2.48046875
,82.2490507,2.822265625
,82.2493652,3.1201171875
,82.2666711,3.3056640625
,82.3019682,3.466796875
,82.3225141,3.544921875
,82.3280787,3.544921875
,82.371762,3.5107421875
,82.3720654,3.3984375
,82.3897009,3.232421875
,82.43476,3.02734375
,82.4350132,2.841796875
,82.4497686,2.67578125
,82.4691161,2.5439453125
,82.487929,2.4365234375
,82.5229902,2.34375
,82.5445508,2.2509765625
,82.5497328,2.197265625
,82.5876087,2.12890625
,82.5894799,2.05078125
,82.6340905,1.9775390625
,82.6343574,1.8798828125
,82.6539454,1.806640625
,82.6693876,1.708984375
,82.7043856,1.630859375
,82.7118561,1.533203125
,82.7298554,1.4599609375
,82.7735616,1.376953125
,82.7739812,1.328125
,82.7881888,1.26953125
,82.8346215,1.259765625
,82.8350397,1.23046875
,82.8490337,1.2109375
,82.8858171,1.1767578125
,82.8881682,1.1474609375
,82.9247545,1.103515625
,82.9447202,1.1181640625
,82.9497689,1.23046875
,82.9693602,1.4990234375
,83.0047855,1.982421875
,83.0071936,2.3583984375
,83.0532563,2.79296875
,83.053912,3.1201171875
,83.0700266,3.3935546875
,83.1053845,3.5498046875
,83.1256266,3.65234375
,83.1329563,3.6767578125
,83.177383,3.6572265625
,83.1777966,3.57421875
,83.1881765,3.447265625
,83.2236352,3.26171875
,83.2282867,3.06640625
,83.265902,2.8857421875
,83.2711289,2.7294921875
,83.3168014,2.5927734375
,83.3172187,2.4853515625
,83.3324684,2.392578125
,83.3480794,2.2802734375
,83.3843037,2.2021484375
,83.3897052,2.1240234375
,83.4266834,2.0361328125
,83.4297905,1.943359375
,83.4657515,1.8505859375
,83.4868057,1.748046875
,83.4915948,1.650390625
,83.5075764,1.552734375
,83.5281539,1.4892578125
,83.5778343,1.4208984375
,83.578088,1.38671875
,83.5913616,1.3427734375
,83.6268104,1.2890625
,83.6313362,1.25
,83.6707211,1.2158203125
,83.6711173,1.181640625
,83.6912452,1.1376953125
,83.7089095,1.1181640625
,83.7444802,1.09375
,83.7500089,1.103515625
,83.7939159,1.2109375
,83.7941767,1.513671875
,83.8099339,1.9384765625
,83.8576818,2.4072265625
,83.8581404,2.7734375
,83.8875347,3.0322265625
,83.8947547,3.2861328125
,83.9110168,3.4228515625
,83.9462224,3.525390625
,83.9488706,3.5400390625
,83.9878882,3.5107421875
,83.9937532,3.3935546875
,84.0293818,3.2275390625
,84.0318301,3.0322265625
,84.0732571,2.8369140625
,84.0738305,2.6611328125
,84.0952138,2.548828125
,84.1109166,2.4267578125
,84.1460981,2.333984375
,84.1662112,2.24609375
,84.1720654,2.1728515625
,84.2091266,2.08984375
,84.2117455,2.021484375
,84.2470835,1.9384765625
,84.2669671,1.845703125
,84.2689794,1.77734375
,84.3047529,1.69921875
,84.3359612,1.6162109375
,84.3362175,1.5380859375
,84.3525507,1.474609375
,84.3966841,1.4111328125
,84.3969467,1.3623046875
,84.4115661,1.3232421875
,84.430888,1.298828125
,84.4499292,1.26953125
,84.4853917,1.2451171875
,84.5078043,1.2060546875
,84.5124801,1.162109375
,84.5474888,1.15234375
,84.5529801,1.1474609375
,84.5976862,1.2841796875
,84.5980028,1.58203125
,84.61914,2.0849609375
,84.6313384,2.490234375
,84.6747259,2.87109375
,84.6751411,3.1396484375
,84.6927453,3.3447265625
,84.7287874,3.4375
,84.7333948,3.4912109375
,84.7680268,3.466796875
,84.7748466,3.388671875
,84.7904807,3.2421875
,84.8269143,3.0615234375
,84.8329264,2.8662109375
,84.8671511,2.6904296875
,84.872872,2.548828125
,84.9073067,2.4267578125
,84.9291331,2.3291015625
,84.9347567,2.24609375
,84.9538659,2.1728515625
,84.9712434,2.109375
,85.0182191,2.060546875
,85.0187548,1.9921875
,85.0335616,1.9189453125
,85.0804099,1.8359375
,85.0809885,1.7529296875
,85.0933492,1.669921875
,85.129167,1.611328125
,85.1588197,1.5380859375
,85.1592782,1.4892578125
,85.1719694,1.46484375
,85.2204117,1.4111328125
,85.2206762,1.376953125
,85.2332973,1.337890625
,85.2835121,1.30859375
,85.2838459,1.259765625
,85.2941006,1.220703125
,85.3095922,1.1865234375
,85.3577722,1.1962890625
,85.3580299,1.259765625
,85.3772657,1.5283203125
,85.3916379,1.9091796875
,85.4275584,2.36328125
,85.4471248,2.734375
,85.452086,3.0712890625
,85.4750965,3.28125
,85.4945864,3.3935546875
,85.5161046,3.4423828125
,85.5328167,3.4228515625
,85.5517425,3.466796875
,85.5877015,3.41796875
,85.5923467,3.2861328125
,85.6278739,3.1103515625
,85.648634,2.9345703125
,85.6536554,2.763671875
,85.6874062,2.626953125
,85.708953,2.509765625
,85.7125065,2.421875
,85.7602397,2.32421875
,85.7604919,2.24609375
,85.7742657,2.16796875
,85.8228965,2.0947265625
,85.8232474,2.0166015625
,85.8362627,1.923828125
,85.8712723,1.826171875
,85.8716882,1.728515625
,85.9051992,1.66015625
,85.9270973,1.58203125
,85.9342107,1.5087890625
,85.9686985,1.4306640625
,85.9729157,1.3720703125
,86.0049969,1.318359375
,86.0261363,1.2939453125
,86.0308423,1.2451171875
,86.0526348,1.23046875
,86.1004826,1.201171875
,86.1010568,1.181640625
,86.1135747,1.1376953125
,86.1632406,1.15234375
,86.1636524,1.2353515625
,86.1747445,1.4599609375
,86.2112713,1.8798828125
,86.2117025,2.3193359375
,86.2468963,2.7392578125
,86.2723014,3.076171875
,86.2727204,3.349609375
,86.3194738,3.5107421875
,86.3198975,3.6083984375
,86.3479252,3.6474609375
,86.3537718,3.6376953125
,86.3897837,3.564453125
,86.3949864,3.427734375
,86.4123362,3.2373046875
,86.4499785,3.0517578125
,86.4544838,2.8759765625
,86.504407,2.7099609375
,86.5048274,2.578125
,86.5130645,2.4658203125
,86.5473865,2.36328125
,86.5676086,2.265625
,86.5756682,2.177734375
,86.5918404,2.08984375
,86.6266026,2.03125
,86.648373,1.953125
,86.6549086,1.8896484375
,86.6908694,1.8017578125
,86.6936472,1.7236328125
,86.7285658,1.6357421875
,86.7505321,1.552734375
,86.7508963,1.474609375
,86.7876001,1.4453125
,86.7928138,1.396484375
,86.8398072,1.3525390625
,86.8400641,1.3134765625
,86.8601949,1.279296875
,86.8754795,1.2451171875
,86.8949864,1.201171875
,86.9291285,1.1669921875
,86.9503349,1.1376953125
,86.9527762,1.1962890625
,86.9874488,1.3623046875
,87.0079129,1.71875
,87.0131107,2.1484375
,87.0355699,2.5732421875
,87.0707988,2.9150390625
,87.076014,3.193359375
,87.1191866,3.388671875
,87.1198466,3.4716796875
,87.1384591,3.466796875
,87.1527219,3.4033203125
,87.1863915,3.4130859375
,87.21078,3.30078125
,87.214908,3.1396484375
,87.2505459,2.94921875
,87.254544,2.7783203125
,87.2922218,2.6123046875
,87.2969522,2.4951171875
,87.3122393,2.3779296875
,87.3485479,2.3095703125
,87.3537234,2.236328125
,87.3990672,2.177734375
,87.3995795,2.099609375
,87.4147909,2.0458984375
,87.4482636,1.962890625
,87.4702266,1.875
,87.4776579,1.787109375
,87.4954713,1.6943359375
,87.5396102,1.6357421875
,87.5398725,1.5673828125
,87.5556744,1.5185546875
,87.6051423,1.46484375
,87.6058136,1.416015625
,87.6155088,1.3671875
,87.6516217,1.3232421875
,87.6519128,1.2841796875
,87.6720158,1.2890625
,87.7069976,1.259765625
,87.7264732,1.240234375
,87.7357142,1.2890625
,87.7741074,1.46484375
,87.7743581,1.826171875
,87.8199502,2.216796875
,87.8202293,2.59765625
,87.8388125,2.900390625
,87.8535403,3.154296875
,87.8964237,3.3056640625
,87.8968768,3.3984375
,87.9166155,3.41796875
,87.9349973,3.3935546875
,87.9718029,3.291015625
,88.0047307,3.1298828125
,88.0049904,2.939453125
,88.0189454,2.7490234375
,88.034288,2.578125
,88.0710786,2.4658203125
,88.0742817,2.3681640625
,88.1090905,2.275390625
,88.1296229,2.2119140625
,88.1346562,2.1484375
,88.17027,2.0849609375
,88.1890297,2.0068359375
,88.1988367,1.9384765625
,88.2143901,1.85546875
,88.2359762,1.796875
,88.2815492,1.71875
,88.2818149,1.6455078125
,88.2963886,1.5673828125
,88.3338759,1.50390625
,88.3371377,1.4404296875
,88.3760009,1.3916015625
,88.3762882,1.357421875
,88.3951089,1.30859375
,88.4309064,1.2890625
,88.4360209,1.259765625
,88.4701577,1.240234375
,88.4899753,1.2109375
,88.4954386,1.2109375
,88.5434038,1.3134765625
,88.5438264,1.6162109375
,88.5645302,2.001953125
,88.5767642,2.4560546875
,88.5963308,2.7978515625
,88.615197,3.10546875
,88.6508126,3.30078125
,88.6811995,3.4375
,88.681456,3.4765625
,88.6973391,3.515625
,88.7175204,3.4765625
,88.7355125,3.3642578125
,88.7721186,3.212890625
,88.776805,2.9541015625
,88.8204164,2.7978515625
,88.8206697,2.6513671875
,88.8392819,2.5244140625
,88.8576447,2.4267578125
,88.8940174,2.333984375
,88.8965017,2.2509765625
,88.941784,2.1728515625
,88.9420469,2.099609375
,88.9622803,2.05078125
,88.9771864,1.982421875
,89.0114443,1.904296875
,89.0183676,1.8310546875
,89.065962,1.7333984375
,89.0665145,1.650390625
,89.078443,1.5673828125
,89.1270307,1.5087890625
,89.1273834,1.4404296875
,89.1367375,1.4111328125
,89.155471,1.3623046875
,89.1912741,1.3232421875
,89.2180136,1.2744140625
,89.2182795,1.25
,89.2537733,1.2060546875
,89.2599365,1.1865234375
,89.2746703,1.19140625
,89.3103483,1.357421875
,89.340728,1.66015625
,89.3409923,2.119140625
,89.3579791,2.529296875
,89.4053331,2.8759765625
,89.4057549,3.1591796875
,89.4206716,3.3544921875
,89.4401124,3.4765625
,89.4555556,3.53515625
,89.4975433,3.564453125
,89.4978833,3.5400390625
,89.530318,3.4375
,89.536983,3.28125
,89.5747456,3.0810546875
,89.5768025,2.8955078125
,89.6108592,2.724609375
,89.6329897,2.578125
,89.6397276,2.392578125
,89.6752173,2.265625
,89.7007194,2.1923828125
,89.7011371,2.1630859375
,89.7171389,2.1142578125
,89.7530206,2.05078125
,89.7574051,1.97265625
,89.7951565,1.8896484375
,89.8149044,1.787109375
,89.8201854,1.708984375
,89.8371879,1.6162109375
,89.8730895,1.572265625
,89.8776423,1.50390625
,89.9156649,1.4599609375
,89.9160204,1.4013671875
,89.9609212,1.357421875
,89.9611784,1.2939453125
,89.9821588,1.2646484375
,89.9999295,1.2255859375
,90.0163116,1.181640625
,90.0544802,1.1669921875
,90.072895,1.1572265625
,90.0792945,1.25
,90.1162001,1.494140625
,90.1165783,1.8994140625
,90.1531006,2.3046875
,90.1735722,2.666015625
,90.17426,2.9541015625
,90.2119553,3.1982421875
,90.2429981,3.33984375
,90.2434143,3.4423828125
,90.258261,3.45703125
,90.2941695,3.4228515625
,90.2983012,3.3349609375
,90.3346033,3.1689453125
,90.3658251,2.9833984375
,90.366131,2.79296875
,90.3750548,2.65625
,90.4125646,2.529296875
,90.4154115,2.4267578125
,90.4643105,2.32421875
,90.4646196,2.24609375
,90.4869456,2.16796875
,90.499432,2.1044921875
,90.5449863,2.021484375
,90.5453373,1.943359375
,90.574727,1.85546875
,90.5751414,1.7822265625
,90.6096835,1.6943359375
,90.631487,1.6259765625
,90.6393544,1.5625
,90.6796146,1.484375
,90.6800396,1.4453125
,90.7279054,1.396484375
,90.7283182,1.357421875
,90.7592814,1.3134765625
,90.7596889,1.3134765625
,90.8057881,1.2939453125
,90.8062038,1.279296875
,90.8180509,1.2548828125
,90.8524609,1.3134765625
,90.8739915,1.4892578125
,90.8812766,1.85546875
,90.8976793,2.24609375
,90.945339,2.6416015625
,90.9456227,2.9833984375
,90.9584392,3.203125
,91.0084669,3.359375
,91.0088035,3.4423828125
,91.0186849,3.486328125
,91.0571229,3.4619140625
,91.0618615,3.3837890625
,91.0792613,3.2373046875
,91.1138881,3.076171875
,91.1188501,2.9052734375
,91.1553892,2.744140625
,91.1613244,2.6025390625
,91.2082107,2.490234375
,91.2085409,2.3876953125
,91.2198624,2.3046875
,91.2415994,2.216796875
,91.2626701,2.1142578125
,91.2822041,2.0068359375
,91.2984894,1.89453125
,91.3328665,1.875
,91.3540241,1.8212890625
,91.3596107,1.7578125
,91.4113306,1.6796875
,91.4117536,1.611328125
,91.421997,1.5380859375
,91.4578151,1.4892578125
,91.458128,1.42578125
,91.4937606,1.3916015625
,91.5191246,1.357421875
,91.5195455,1.3232421875
,91.567042,1.2744140625
,91.5673535,1.240234375
,91.5821937,1.2158203125
,91.6153562,1.2109375
,91.6214096,1.357421875
,91.6379761,1.6357421875
,91.6727603,2.08984375
,91.693327,2.4755859375
,91.7003527,2.83203125
,91.7199702,3.0810546875
,91.7687697,3.2861328125
,91.7690216,3.3935546875
,91.7834027,3.4716796875
,91.798684,3.4765625
,91.846596,3.466796875
,91.846926,3.3740234375
,91.859812,3.232421875
,91.9084804,3.0517578125
,91.9089953,2.880859375
,91.9208585,2.7197265625
,91.955936,2.5927734375
,91.9784337,2.4853515625
,91.9788664,2.3876953125
,91.997615,2.3095703125
,92.0357923,2.2314453125
,92.0375211,2.16796875
,92.0771,2.080078125
,92.107322,1.9970703125
,92.1077373,1.9091796875
,92.1221818,1.8115234375
,92.1694628,1.7138671875
,92.1699334,1.62109375
,92.1997453,1.533203125
,92.2000781,1.474609375
,92.2351119,1.4453125
,92.2401744,1.3916015625
,92.2767048,1.357421875
,92.2823154,1.30859375
,92.3011731,1.2890625
,92.3395107,1.2353515625
,92.3446378,1.2060546875
,92.3591099,1.1669921875
,92.3802156,1.2060546875
,92.4188931,1.3232421875
,92.4209369,1.630859375
,92.4558988,2.021484375
,92.4606939,2.4462890625
,92.4969432,2.7734375
,92.5017211,3.0615234375
,92.5189708,3.2421875
,92.5534499,3.4130859375
,92.5741541,3.49609375
,92.5796997,3.505859375
,92.6146894,3.4814453125
,92.6360371,3.388671875
,92.6436787,3.2373046875
,92.6792525,3.0517578125
,92.6826507,2.8662109375
,92.6985149,2.7001953125
,92.7473744,2.5830078125
,92.7476714,2.4658203125
,92.7679122,2.373046875
,92.7818568,2.2900390625
,92.8008527,2.2265625
,92.8397645,2.1533203125
,92.8416978,2.0849609375
,92.8755289,2.01171875
,92.8961232,1.9140625
,92.9032855,1.8359375
,92.9214025,1.6748046875
,92.9562533,1.6259765625
,92.9622007,1.552734375
,93.0102877,1.494140625
,93.0105378,1.435546875
,93.0221763,1.396484375
,93.0579601,1.34765625
,93.0782789,1.318359375
,93.0786887,1.2744140625
,93.1186869,1.2646484375
,93.1475104,1.2353515625
,93.1477762,1.201171875
,93.1611518,1.1669921875
,93.1970427,1.201171875
,93.2189848,1.3525390625
,93.2240963,1.6455078125
,93.2427561,2.0654296875
,93.2603551,2.4365234375
,93.2957371,2.7734375
,93.3159736,3.017578125
,93.3205772,3.2177734375
,93.3544419,3.3203125
,93.3752176,3.3740234375
,93.3829864,3.359375
,93.4276092,3.291015625
,93.4278698,3.1640625
,93.4421267,3.0126953125
,93.4611149,2.8369140625
,93.49471,2.6806640625
,93.5143102,2.5537109375
,93.5222324,2.44140625
,93.5683308,2.3486328125
,93.5685989,2.255859375
,93.584081,2.1923828125
,93.5992055,2.1240234375
,93.6324472,2.08984375
,93.653231,2.021484375
,93.6633642,1.9384765625
,93.6836421,1.845703125
,93.7020752,1.7626953125
,93.7375633,1.669921875
,93.7574179,1.5966796875
,93.7640583,1.513671875
,93.814459,1.3916015625
,93.8147097,1.357421875
,93.8202142,1.376953125
,93.857652,1.3720703125
,93.861557,1.337890625
,93.8962191,1.3134765625
,93.9164525,1.2841796875
,93.9240296,1.259765625
,93.9580653,1.2353515625
,93.9791911,1.2890625
,93.9796104,1.4599609375
,94.0135071,1.826171875
,94.0359442,2.236328125
,94.04274,2.607421875
,94.0939085,2.9052734375
,94.0942133,3.154296875
,94.1038097,3.30078125
,94.1397774,3.3837890625
,94.1447599,3.4228515625
,94.159587,3.3935546875
,94.1956433,3.3349609375
,94.2153732,3.203125
,94.2221049,3.037109375
,94.2575247,2.8466796875
,94.2639684,2.6904296875
,94.3090593,2.5537109375
,94.3093153,2.4462890625
,94.3383066,2.3583984375
,94.3427619,2.3046875
,94.3786839,2.2314453125
,94.380378,2.1875
,94.4176821,2.109375
,94.4470508,2.0361328125
,94.4474844,1.93359375
,94.4649634,1.85546875
,94.5097946,1.7578125
,94.510099,1.6650390625
,94.5212231,1.5966796875
,94.5599684,1.5283203125
,94.5627815,1.4697265625
,94.5989562,1.416015625
,94.601875,1.3818359375
,94.6367793,1.3330078125
,94.6577954,1.298828125
,94.6649012,1.2646484375
,94.7134563,1.220703125
,94.7137136,1.1767578125
,94.7236765,1.1669921875
,94.7744768,1.2060546875
,94.774739,1.396484375
,94.7818859,1.767578125
,94.8223921,2.1728515625
,94.8534273,2.568359375
,94.8536875,2.900390625
,94.8673093,3.193359375
,94.8838081,3.3642578125
,94.902426,3.5107421875
,94.9396119,3.5546875
,94.942523,3.5693359375
,94.9818869,3.505859375
,94.9822961,3.3984375
,95.0239579,3.212890625
,95.0553044,3.0322265625
,95.055783,2.8466796875
,95.0635732,2.71484375
,95.0834095,2.5830078125
,95.1189886,2.5048828125
,95.1235844,2.4169921875
,95.1596305,2.3193359375
,95.1653835,2.2314453125
,95.2011659,2.1435546875
,95.2052467,2.0556640625
,95.2219283,1.962890625
,95.2575967,1.89453125
,95.262408,1.806640625
,95.2968836,1.7138671875
,95.31757,1.62109375
,95.3229156,1.533203125
,95.3655723,1.455078125
,95.3659918,1.4111328125
,95.3860846,1.3525390625
,95.4067086,1.2451171875
,95.4433453,1.1767578125
,95.4437093,1.1669921875
,95.4776691,1.1767578125
,95.5058057,1.1669921875
,95.5062302,1.162109375
,95.5255992,1.15234375
,95.5615841,1.2255859375
,95.5641999,1.4501953125
,95.5990544,1.8505859375
,95.6210348,2.2607421875
,95.621446,2.67578125
,95.6593699,2.98828125
,95.6805342,3.2470703125
,95.6846984,3.408203125
,95.7202,3.515625
,95.7407756,3.5400390625
,95.7464187,3.5498046875
,95.7826912,3.4765625
,95.7831138,3.330078125
,95.8190657,3.1640625
,95.8391721,2.9833984375
,95.8453661,2.7978515625
,95.8920241,2.6513671875
,95.8923594,2.5439453125
,95.9210646,2.4267578125
,95.9264071,2.333984375
,95.9426174,2.2265625
,95.9772564,2.1728515625
,95.9987079,2.0947265625
,96.0066283,2.0263671875
,96.0254785,1.9287109375
,96.0610036,1.8408203125
,96.0656949,1.7578125
,96.1079588,1.6552734375
,96.1085563,1.572265625
,96.1237521,1.4990234375
,96.1615252,1.455078125
,96.1619419,1.40625
,96.1990017,1.3720703125
,96.2063372,1.3330078125
,96.2486257,1.298828125
,96.2491687,1.259765625
,96.2663615,1.2353515625
,96.3101671,1.1865234375
,96.3104896,1.162109375
,96.3253644,1.1669921875
,96.3719511,1.3232421875
,96.3722916,1.6064453125
,96.3845662,2.0458984375
,96.4194144,2.4609375
,96.4393968,2.7685546875
,96.4465907,3.046875
,96.482386,3.212890625
,96.4889149,3.3251953125
,96.5041019,3.369140625
,96.5404758,3.3935546875
,96.5430624,3.330078125
,96.5817013,3.1982421875
,96.5874791,3.0224609375
,96.6227001,2.8271484375
,96.6257946,2.65625
,96.6650886,2.529296875
,96.6655037,2.4072265625
,96.6996291,2.3291015625
,96.7047884,2.255859375
,96.7405879,2.1923828125
,96.7451361,2.1337890625
,96.7808343,2.060546875
,96.8010187,1.9921875
,96.8050234,1.8994140625
,96.8399091,1.81640625
,96.8605689,1.728515625
,96.8656726,1.6748046875
,96.9147354,1.6064453125
,96.915163,1.5869140625
,96.9240448,1.5380859375
,96.9578217,1.5087890625
,96.9771091,1.4599609375
,96.9857085,1.42578125
,97.0200167,1.3720703125
,97.0283463,1.376953125
,97.0497465,1.259765625
,97.0643881,1.171875
,97.1132598,1.220703125
,97.1135156,1.3232421875
,97.1347158,1.5869140625
,97.1479279,1.97265625
,97.1926446,2.40234375
,97.1930324,2.7490234375
,97.2080138,3.056640625
,97.2253806,3.271484375
,97.2693221,3.4228515625
,97.2699184,3.49609375
,97.2864237,3.5400390625
,97.3222486,3.505859375
,97.3275683,3.408203125
,97.3636711,3.26171875
,97.3926663,3.0712890625
,97.3930904,2.890625
,97.4061052,2.7294921875
,97.4538616,2.626953125
,97.4541967,2.509765625
,97.4682991,2.4267578125
,97.5150268,2.32421875
,97.5154683,2.236328125
,97.5277001,2.1484375
,97.5627675,2.080078125
,97.5648862,1.9775390625
,97.601759,1.9189453125
,97.6041264,1.8310546875
,97.6541069,1.7529296875
,97.6545571,1.6552734375
,97.6838362,1.5966796875
,97.6864134,1.5283203125
,97.7219015,1.4697265625
,97.7427103,1.4306640625
,97.7462087,1.3818359375
,97.7663069,1.3623046875
,97.7859428,1.3330078125
,97.8231238,1.3134765625
,97.8252237,1.2744140625
,97.8709959,1.240234375
,97.8713374,1.2255859375
,97.8908973,1.30859375
,97.9098068,1.533203125
,97.945405,1.962890625
,97.9458419,2.3681640625
,97.9809072,2.75390625
,98.0031535,3.0908203125
,98.0078413,3.3056640625
,98.0586858,3.4619140625
,98.0591107,3.544921875
,98.0695607,3.5888671875
,98.1048842,3.57421875
,98.1075021,3.5009765625
,98.1263916,3.359375
,98.1678295,3.203125
,98.1681774,3.0224609375
,98.1860772,2.8662109375
,98.2212467,2.724609375
,98.242172,2.6123046875
,98.2496571,2.509765625
,98.2837071,2.4169921875
,98.2841606,2.3095703125
,98.3207102,2.24609375
,98.3421942,2.1728515625
,98.3462764,2.080078125
,98.3836023,2.001953125
,98.3876043,1.8994140625
,98.4284831,1.8115234375
,98.4287364,1.7138671875
,98.4653498,1.640625
,98.4656368,1.5673828125
,98.4855765,1.5283203125
,98.5389225,1.474609375
,98.5394157,1.4404296875
,98.5471455,1.38671875
,98.5855195,1.3623046875
,98.6165125,1.3134765625
,98.6168387,1.26953125
,98.6325794,1.240234375
,98.6473264,1.201171875
,98.6823734,1.259765625
,98.6864878,1.3623046875
,98.7216528,1.77734375
,98.7411802,2.2119140625
,98.7489384,2.6123046875
,98.7881822,2.9248046875
,98.7885979,3.1787109375
,98.8247151,3.3349609375
,98.8480879,3.447265625
,98.8483747,3.4814453125
,98.8842332,3.5009765625
,98.886941,3.447265625
,98.9215794,3.3251953125
,98.9422264,3.154296875
,98.9479622,2.998046875
,98.9841022,2.8369140625
,99.0066511,2.7001953125
,99.0120901,2.587890625
,99.0283775,2.490234375
,99.0479082,2.4169921875
,99.0826081,2.3388671875
,99.0873383,2.2509765625
,99.1223593,2.16796875
,99.1421214,2.08984375
,99.1502977,2.001953125
,99.1864835,1.9091796875
,99.1868605,1.8212890625
