fs,t,y
51.36541095358689,0.8670100000000001,1.4892578125
,0.8967678000000001,1.54296875
,0.8970275000000001,1.6064453125
,0.9056353000000001,1.708984375
,0.9453567,1.787109375
,0.9456120000000001,1.875
,0.9663160999999998,1.9384765625
,1.0079297,2.0068359375
,1.0084008,2.0361328125
,1.0437218000000001,2.0703125
,1.0440036,2.080078125
,1.0781006,2.1044921875
,1.0991106,2.099609375
,1.1071699000000002,2.099609375
,1.1432332,2.0751953125
,1.1482206000000001,2.041015625
,1.1676015999999998,2.021484375
,1.2107339000000001,1.9873046875
,1.2111496000000002,1.9580078125
,1.2313663,1.9287109375
,1.2463376,1.923828125
,1.2875492999999998,1.904296875
,1.2879283,1.8798828125
,1.3360035,1.85546875
,1.3362585999999999,1.8212890625
,1.3463638000000002,1.7822265625
,1.369358,1.7578125
,1.4148678000000001,1.71875
,1.4152665999999998,1.6796875
,1.4317247000000002,1.66015625
,1.4483111000000002,1.62109375
,1.4661700999999998,1.6015625
,1.4997026999999998,1.58203125
,1.5200074,1.5771484375
,1.5283354,1.552734375
,1.5651685,1.5283203125
,1.5693218,1.4990234375
,1.5900792,1.474609375
,1.6053030000000001,1.4501953125
,1.6498518,1.455078125
,1.6500987999999999,1.4306640625
,1.6802768000000001,1.4208984375
,1.6875469,1.4111328125
,1.7275071,1.416015625
,1.7277497,1.4501953125
,1.7480763000000001,1.5380859375
,1.7839493000000002,1.6259765625
,1.8044901000000002,1.69921875
,1.8070103,1.7919921875
,1.8413317,1.865234375
,1.8691042000000002,1.923828125
,1.8695029,1.9580078125
,1.9052177000000001,1.9970703125
,1.9082900999999999,2.0068359375
,1.9450335,2.021484375
,1.9455912999999998,2.0166015625
,1.9804039000000002,2.0166015625
,2.0011354,1.9970703125
,2.0063537,1.9921875
,2.0426586999999996,1.9580078125
,2.0495241,1.93359375
,2.0856728999999996,1.904296875
,2.1161611000000002,1.8701171875
,2.1164104000000004,1.8359375
,2.1270990000000003,1.8017578125
,2.1644129000000003,1.7919921875
,2.1648050999999997,1.7041015625
,2.2012520999999996,1.689453125
,2.2220171000000004,1.66015625
,2.2275126,1.640625
,2.2644228,1.611328125
,2.2842135,1.5966796875
,2.2897885999999996,1.5673828125
,2.3359924000000003,1.5478515625
,2.3363196999999998,1.5234375
,2.3486746,1.513671875
,2.3855310000000003,1.494140625
,2.3884631,1.4892578125
,2.4241193,1.474609375
,2.4291131000000004,1.455078125
,2.4652411,1.435546875
,2.4700074,1.4111328125
,2.5073741,1.3916015625
,2.507765,1.376953125
,2.5508143,1.3818359375
,2.5512239,1.3916015625
,2.5717649,1.4306640625
,2.5895588,1.484375
,2.6258327,1.5576171875
,2.6284025,1.6357421875
,2.6501368999999997,1.7138671875
,2.668386,1.7724609375
,2.7039248000000002,1.8408203125
,2.7080402,1.8994140625
,2.7421625,1.923828125
,2.7626475,1.9482421875
,2.7701997,1.9580078125
,2.8191072000000004,1.9775390625
,2.8193472,1.962890625
,2.8308657999999998,1.9482421875
,2.8471649,1.9189453125
,2.8692843999999997,1.9140625
,2.9061576000000002,1.8896484375
,2.906569,1.8798828125
,2.9432763,1.85546875
,2.974406,1.8408203125
,2.9746778000000003,1.81640625
,2.9913948,1.7919921875
,3.0123377,1.7578125
,3.0317415,1.7041015625
,3.0506189,1.650390625
,3.0700545000000004,1.6015625
,3.1159401000000004,1.6162109375
,3.1163174,1.6162109375
,3.1310038000000002,1.611328125
,3.1775122,1.5966796875
,3.1777667999999997,1.5869140625
,3.1900981,1.5673828125
,3.2249,1.5478515625
,3.255623,1.5283203125
,3.2560141,1.513671875
,3.2710514999999996,1.5087890625
,3.3066801999999997,1.50390625
,3.3098906,1.494140625
,3.3508772000000002,1.4794921875
,3.3512788000000002,1.474609375
,3.3870487999999996,1.4697265625
,3.3929712,1.494140625
,3.4096802999999998,1.533203125
,3.4313537,1.62109375
,3.4489181,1.6943359375
,3.4843016999999996,1.77734375
,3.5064206999999996,1.826171875
,3.5109060000000003,1.875
,3.5474305,1.8994140625
,3.5520905000000003,1.9384765625
,3.5684559,1.9482421875
,3.5885434,1.97265625
,3.6315470000000003,1.9775390625
,3.6318979999999996,1.9677734375
,3.6625904,1.943359375
,3.6719358,1.9287109375
,3.6915099,1.8994140625
,3.7262287,1.8701171875
,3.7468926,1.8359375
,3.7473763,1.8017578125
,3.7825233999999996,1.787109375
,3.8034261000000003,1.767578125
,3.8098565000000004,1.767578125
,3.8447696999999996,1.73828125
,3.8656846,1.7138671875
,3.8727605,1.6845703125
,3.9094859,1.66015625
,3.913645,1.6259765625
,3.9318117,1.6064453125
,3.9487653,1.572265625
,3.9881462,1.5625
,4.0070043,1.5478515625
,4.0087345,1.5283203125
,4.050062,1.5087890625
,4.0503094,1.4892578125
,4.0706995,1.484375
,4.1138207,1.4599609375
,4.1142151,1.4453125
,4.1299713,1.42578125
,4.1659151,1.4208984375
,4.170496,1.40625
,4.2059282,1.396484375
,4.2113166,1.38671875
,4.2317957,1.40625
,4.2680117,1.4453125
,4.2734937,1.5185546875
,4.2896198,1.5869140625
,4.3271917,1.689453125
,4.3317231,1.7724609375
,4.3509393,1.8212890625
,4.3855877,1.875
,4.3908033,1.89453125
,4.4263375,1.9189453125
,4.431949,1.9189453125
,4.4679556,1.93359375
,4.4683622,1.9140625
,4.5030618,1.9091796875
,4.5236038,1.8896484375
,4.5310217,1.8701171875
,4.5765174,1.8408203125
,4.5767684,1.826171875
,4.5911091,1.7919921875
,4.6264932,1.7724609375
,4.6562887,1.7578125
,4.6566815,1.7236328125
,4.6705308,1.7138671875
,4.705533,1.689453125
,4.7087875,1.6796875
,4.745194,1.650390625
,4.7639378,1.630859375
,4.7715697,1.6015625
,4.8072329,1.58203125
,4.8119712,1.5625
,4.8449485,1.5625
,4.8661761,1.5478515625
,4.8719111,1.552734375
,4.9186433,1.533203125
,4.9190397,1.5234375
,4.9320507,1.4990234375
,4.9671372,1.494140625
,4.972249,1.4794921875
,5.0107427,1.4599609375
,5.0153015,1.4453125
,5.0298107,1.42578125
,5.0667427,1.42578125
,5.0865187,1.4404296875
,5.0916144,1.494140625
,5.129497,1.5625
,5.1339188,1.6357421875
,5.1820128,1.708984375
,5.1826572,1.77734375
,5.1906623,1.8310546875
,5.2252117,1.8798828125
,5.2309044,1.9091796875
,5.2498471,1.9287109375
,5.2844246,1.9482421875
,5.3054565,1.943359375
,5.3122125,1.9384765625
,5.3497593,1.9140625
,5.3540012,1.9091796875
,5.3710207,1.8798828125
,5.4082586,1.875
,5.4085072,1.85546875
,5.44525,1.845703125
,5.4651582,1.826171875
,5.4722576,1.81640625
,5.5092039,1.7822265625
,5.513756,1.7724609375
,5.5310619,1.73828125
,5.5708915,1.728515625
,5.5712625,1.6455078125
,5.5916256,1.66015625
,5.6297415,1.6552734375
,5.6301901,1.640625
,5.6656094,1.62109375
,5.6865233,1.6015625
,5.6939513,1.5869140625
,5.7418419,1.5673828125
,5.7421035,1.552734375
,5.761962,1.533203125
,5.771382,1.533203125
,5.8063359,1.5234375
,5.8115486,1.513671875
,5.845758,1.4990234375
,5.8658173,1.5087890625
,5.8732671,1.50390625
,5.9080398,1.513671875
,5.928903,1.5576171875
,5.9311926,1.611328125
,5.9745734,1.69921875
,5.9749674,1.77734375
,5.9938345,1.8603515625
,6.0296076,1.9140625
,6.0346153000000005,1.962890625
,6.082993800000001,1.9873046875
,6.083240699999999,2.01171875
,6.0923543,2.0166015625
,6.112514300000001,2.0361328125
,6.148505999999999,2.03125
,6.1534984,2.021484375
,6.1898097,1.9970703125
,6.191811899999999,1.9775390625
,6.238813800000001,1.9482421875
,6.2390551,1.9287109375
,6.268370300000001,1.9091796875
,6.270368400000001,1.8798828125
,6.306193199999999,1.875
,6.3265622,1.8505859375
,6.332632,1.8310546875
,6.377832,1.8017578125
,6.3781281,1.787109375
,6.393811299999999,1.7578125
,6.439933699999999,1.73828125
,6.4403278,1.708984375
,6.460278199999999,1.640625
,6.4719397999999995,1.6259765625
,6.518056700000001,1.630859375
,6.518418799999999,1.6162109375
,6.5347332,1.6064453125
,6.553291,1.5966796875
,6.594010600000001,1.572265625
,6.5942545,1.5625
,6.6155633,1.54296875
,6.6505446,1.533203125
,6.6508915,1.513671875
,6.689057099999999,1.513671875
,6.7191954,1.4990234375
,6.719441,1.494140625
,6.7345998,1.484375
,6.770576500000001,1.50390625
,6.775171200000001,1.5478515625
,6.8118897,1.6162109375
,6.8122799,1.6845703125
,6.841562400000001,1.7724609375
,6.851911899999999,1.8310546875
,6.887218300000001,1.9091796875
,6.9076591,1.962890625
,6.915100300000001,1.9921875
,6.9508323999999995,2.0166015625
,6.954077699999999,2.021484375
,6.9976416,2.0166015625
,6.9979639,2.001953125
,7.0303193,1.9970703125
,7.030594799999999,1.97265625
,7.0768162,1.9482421875
,7.0772273000000006,1.9189453125
,7.1073988,1.884765625
,7.114397500000001,1.85546875
,7.154632400000001,1.8310546875
,7.1548734,1.8017578125
,7.1721796,1.787109375
,7.207171799999999,1.7724609375
,7.2273944,1.7431640625
,7.2332144,1.7138671875
,7.269390700000001,1.6845703125
,7.273591700000001,1.669921875
,7.3093597,1.6357421875
,7.3439613,1.6162109375
,7.3443836000000005,1.5869140625
,7.3578174999999995,1.5625
,7.3741422,1.533203125
,7.4193695,1.533203125
,7.419697299999999,1.5185546875
,7.4354136,1.513671875
,7.4702053,1.4990234375
,7.4748743,1.484375
,7.4945933,1.4697265625
,7.528747900000001,1.46484375
,7.5492740000000005,1.4501953125
,7.552694000000001,1.435546875
,7.589025599999999,1.455078125
,7.5942794,1.494140625
,7.6400855,1.5576171875
,7.640474899999999,1.6259765625
,7.6546742000000005,1.69921875
,7.6892888,1.7578125
,7.709494599999999,1.806640625
,7.710086,1.8408203125
,7.748581100000001,1.875
,7.7769797,1.8994140625
,7.7772273,1.9140625
,7.8116758,1.9189453125
,7.8142239,1.9140625
,7.855016900000001,1.9091796875
,7.8552596,1.875
,7.8757435000000005,1.865234375
,7.893845300000001,1.845703125
,7.928626400000001,1.85546875
,7.9336462,1.8408203125
,7.9684398000000005,1.8359375
,7.974971200000001,1.8115234375
,8.0117471,1.8017578125
,8.0169796,1.7724609375
,8.0563686,1.7578125
,8.0565998,1.7236328125
,8.0736385,1.7138671875
,8.1095551,1.6943359375
,8.1143926,1.6748046875
,8.1498491,1.650390625
,8.1553256,1.6455078125
,8.1758837,1.630859375
,8.2110076,1.611328125
,8.2311409,1.5966796875
,8.2357254,1.572265625
,8.2731189,1.5576171875
,8.2735737,1.533203125
,8.2929919,1.5283203125
,8.3377467,1.5185546875
,8.3380305,1.5087890625
,8.3677571,1.4990234375
,8.3754592,1.513671875
,8.4097821,1.5380859375
,8.432255,1.6064453125
,8.4326475,1.66015625
,8.4762179,1.73828125
,8.4766781,1.8115234375
,8.5073831,1.8603515625
,8.516577,1.8994140625
,8.5524947,1.9189453125
,8.555804,1.943359375
,8.5930673,1.953125
,8.5976481,1.9580078125
,8.6135869,1.943359375
,8.6499072,1.9482421875
,8.6789922,1.9287109375
,8.6793904,1.9140625
,8.6968307,1.8896484375
,8.7407709,1.865234375
,8.7411692,1.8359375
,8.7590866,1.81640625
,8.7734415,1.787109375
,8.8095691,1.7822265625
,8.8335311,1.767578125
,8.8338258,1.73828125
,8.868352,1.71875
,8.8885407,1.689453125
,8.8965665,1.669921875
,8.9318268,1.650390625
,8.9518536,1.6455078125
,8.9586729,1.630859375
,8.9786031,1.572265625
,8.9947253,1.533203125
,9.0320875,1.552734375
,9.0379836,1.5576171875
,9.0562746,1.5625
,9.1014325,1.552734375
,9.1018234,1.54296875
,9.1210108,1.533203125
,9.1380324,1.513671875
,9.1733126,1.4990234375
,9.1936053,1.4794921875
,9.1940375,1.5087890625
,9.229425,1.5380859375
,9.2505401,1.591796875
,9.2582295,1.6455078125
,9.2779012,1.708984375
,9.3141176,1.7626953125
,9.3181239,1.826171875
,9.3349938,1.85546875
,9.3798716,1.9091796875
,9.3802168,1.9287109375
,9.3978591,1.9580078125
,9.4421899,1.9580078125
,9.4424335,1.9775390625
,9.4582111,1.97265625
,9.4951104,1.9482421875
,9.4986026,1.9189453125
,9.5153583,1.89453125
,9.5663655,1.8798828125
,9.5666624,1.8603515625
,9.5781361,1.845703125
,9.61483,1.8212890625
,9.6152254,1.796875
,9.6608415,1.7724609375
,9.6612469,1.748046875
,9.6815489,1.71875
,9.6960585,1.708984375
,9.7390181,1.689453125
,9.7392897,1.6748046875
,9.7737828,1.6650390625
,9.7765873,1.6357421875
,9.8171713,1.611328125
,9.8174426,1.5869140625
,9.8539237,1.572265625
,9.8601342,1.5478515625
,9.9086922,1.533203125
,9.9089967,1.50390625
,9.9175436,1.4990234375
,9.9526911,1.4892578125
,9.9565498,1.4990234375
,9.9917869,1.4892578125
,10.0196277,1.4990234375
,10.0200217,1.5087890625
,10.0667502,1.5478515625
,10.067146,1.591796875
,10.0758216,1.6748046875
,10.1107809,1.73828125
,10.1317319,1.7822265625
,10.1369307,1.8212890625
,10.1736593,1.8408203125
,10.1937861,1.865234375
,10.1981235,1.875
,10.231123,1.8896484375
,10.2518778,1.884765625
,10.2559357,1.8896484375
,10.2916059,1.8798828125
,10.2966006,1.865234375
,10.3332597,1.85546875
,10.3377227,1.8408203125
,10.3790711,1.826171875
,10.3794655,1.8115234375
,10.4093572,1.8017578125
,10.415358,1.7724609375
,10.4560257,1.767578125
,10.4564013,1.7529296875
,10.4791017,1.748046875
,10.4983653,1.728515625
,10.5333972,1.7138671875
,10.5389298,1.6943359375
,10.5584199,1.6796875
,10.5770721,1.6552734375
,10.6124383,1.66015625
,10.6155083,1.640625
,10.6528981,1.6357421875
,10.6578186,1.6162109375
,10.6933731,1.6064453125
,10.6988774,1.5869140625
,10.7395888,1.58203125
,10.7399771,1.572265625
,10.7713967,1.5576171875
,10.7801688,1.5478515625
,10.7965716,1.54296875
,10.832418,1.58203125
,10.8615143,1.6259765625
,10.8618222,1.689453125
,10.8794333,1.748046875
,10.8986381,1.8017578125
,10.93586,1.8359375
,10.9416796,1.865234375
,10.9588945,1.8896484375
,10.9942463,1.9384765625
,10.9988973,1.962890625
,11.0181942,1.9775390625
,11.065504,1.9873046875
,11.0657507,1.9677734375
,11.0868721,1.9580078125
,11.1011807,1.9287109375
,11.1200844,1.9091796875
,11.1381129,1.8798828125
,11.1579016,1.875
,11.1943034,1.85546875
,11.1972132,1.845703125
,11.2393089,1.826171875
,11.2397043,1.8115234375
,11.2595116,1.787109375
,11.3009125,1.767578125
,11.3011684,1.73828125
,11.3191642,1.728515625
,11.337048,1.708984375
,11.3807188,1.69921875
,11.3811128,1.689453125
,11.4101209,1.669921875
,11.4196837,1.66015625
,11.4545388,1.6357421875
,11.4754543,1.62109375
,11.4759278,1.611328125
,11.5136025,1.6162109375
,11.518484,1.5576171875
,11.5535351,1.5673828125
,11.5589094,1.5673828125
,11.5797722,1.5673828125
,11.6137623,1.5576171875
,11.6340494,1.5625
,11.6422455,1.5869140625
,11.6757658,1.6357421875
,11.6799757,1.6943359375
,11.7142897,1.748046875
,11.7194597,1.81640625
,11.7538997,1.8603515625
,11.7844684,1.9091796875
,11.7848115,1.93359375
,11.801839,1.962890625
,11.8482657,1.97265625
,11.848586,1.9873046875
,11.8582417,1.9775390625
,11.8930104,1.9873046875
,11.9143524,1.97265625
,11.9196295,1.9580078125
,11.9546142,1.9287109375
,11.959786,1.904296875
,12.0010871,1.8798828125
,12.0013697,1.8798828125
,12.0225417,1.865234375
,12.040116,1.8310546875
,12.0580177,1.8212890625
,12.1079141,1.8017578125
,12.108163,1.7822265625
,12.1189059,1.7529296875
,12.1544589,1.7333984375
,12.1754548,1.7138671875
,12.1805654,1.6845703125
,12.1972969,1.6552734375
,12.2331259,1.6455078125
,12.2539,1.630859375
,12.2589672,1.6259765625
,12.2955761,1.6064453125
,12.2996991,1.5966796875
,12.3407378,1.5869140625
,12.3409889,1.5673828125
,12.3879274,1.5625
,12.3881789,1.54296875
,12.401575,1.4892578125
,12.4181272,1.4892578125
,12.4661582,1.50390625
,12.4664084,1.5087890625
,12.487559,1.552734375
,12.4985566,1.6015625
,12.546028,1.6748046875
,12.5464252,1.7333984375
,12.5758714,1.796875
,12.5777212,1.8359375
,12.622475,1.884765625
,12.6227985,1.9091796875
,12.6404106,1.9384765625
,12.6749068,1.9482421875
,12.6818479,1.953125
,12.7175136,1.9482421875
,12.7201437,1.93359375
,12.7559274,1.9140625
,12.7777928,1.8994140625
,12.77819,1.89453125
,12.8138354,1.884765625
,12.8341833,1.875
,12.8401376,1.8603515625
,12.8768961,1.845703125
,12.8982206,1.8212890625
,12.9042417,1.806640625
,12.9200069,1.7822265625
,12.9652331,1.77734375
,12.965487,1.767578125
,12.9801409,1.7431640625
,13.01539,1.728515625
,13.0450964,1.71875
,13.045494,1.728515625
,13.0614977,1.71875
,13.10717,1.7138671875
,13.1074108,1.6943359375
,13.1278206,1.69921875
,13.139337,1.6845703125
,13.1747095,1.6796875
,13.1967096,1.66015625
,13.201573,1.6455078125
,13.2211097,1.6259765625
,13.2563058,1.62109375
,13.276507,1.6064453125
,13.2826655,1.640625
,13.3204024,1.6796875
,13.3207974,1.7236328125
,13.3571401,1.796875
,13.3617374,1.8603515625
,13.4040913,1.9140625
,13.4043317,1.9482421875
,13.4245396,1.9775390625
,13.4666578,1.9921875
,13.4671109,2.0068359375
,13.4798409,2.0068359375
,13.5165587,2.0166015625
,13.522028,2.01171875
,13.5589636,2.01171875
,13.561963,1.9873046875
,13.5818937,1.9677734375
,13.6165798,1.962890625
,13.6373106,1.9384765625
,13.6419618,1.904296875
,13.677952,1.8798828125
,13.6782428,1.8798828125
,13.7154402,1.8603515625
,13.7461561,1.845703125
,13.7464221,1.8115234375
,13.763092,1.796875
,13.7817755,1.7724609375
,13.8181069,1.7578125
,13.8184464,1.7333984375
,13.8563848,1.7236328125
,13.8860078,1.708984375
,13.8864043,1.69921875
,13.9028006,1.6748046875
,13.9227057,1.669921875
,13.9581397,1.6552734375
,13.9639204,1.6259765625
,14.0114002,1.611328125
,14.0117269,1.591796875
,14.020759000000002,1.58203125
,14.0719207,1.572265625
,14.0721745,1.58203125
,14.0832433,1.572265625
,14.1171328,1.5771484375
,14.123104000000001,1.591796875
,14.157545500000001,1.630859375
,14.1633466,1.6796875
,14.1993389,1.748046875
,14.1999024,1.8017578125
,14.241876000000001,1.8603515625
,14.242285800000001,1.9140625
,14.272289,1.9482421875
,14.2819228,1.97265625
,14.318317400000002,1.9873046875
,14.323639400000001,2.0068359375
,14.358160600000001,2.001953125
,14.3797073,2.0068359375
,14.380098499999999,1.982421875
,14.417763399999998,1.97265625
,14.4218865,1.953125
,14.472681000000001,1.9384765625
,14.473136499999999,1.904296875
,14.483760700000001,1.8896484375
,14.518919499999999,1.865234375
,14.5520159,1.845703125
,14.5524417,1.8115234375
,14.559970199999999,1.8115234375
,14.5984871,1.7919921875
,14.628022900000001,1.7724609375
,14.628272299999999,1.748046875
,14.643574300000001,1.7236328125
,14.677828000000002,1.69921875
,14.682858,1.669921875
,14.718243099999999,1.640625
,14.7379864,1.6162109375
,14.741050099999999,1.6015625
,14.7778575,1.5869140625
,14.782515100000001,1.5673828125
,14.802191700000002,1.5478515625
,14.8382653,1.54296875
,14.844097300000001,1.5234375
,14.8806601,1.50390625
,14.8834001,1.4990234375
,14.904115000000001,1.4794921875
,14.9251033,1.4208984375
,14.9426798,1.3720703125
,14.9767641,1.40625
,14.983488300000001,1.4306640625
,15.0178634,1.494140625
,15.0387877,1.552734375
,15.043809799999998,1.6357421875
,15.079436099999999,1.7041015625
,15.100031099999999,1.7919921875
,15.1027837,1.8310546875
,15.138911,1.884765625
,15.1416976,1.9189453125
,15.1842315,1.943359375
,15.184468899999999,1.9482421875
,15.231175499999999,1.9677734375
,15.231773,1.953125
,15.244607899999998,1.93359375
,15.281167400000001,1.9140625
,15.281563299999998,1.8896484375
,15.316303099999999,1.8798828125
,15.3374676,1.8603515625
,15.3435138,1.85546875
,15.387124700000001,1.8359375
,15.3876901,1.8212890625
,15.406001499999999,1.8017578125
,15.449735,1.7822265625
,15.4500575,1.7578125
,15.459950800000001,1.7578125
,15.4948668,1.73828125
,15.5153475,1.71875
,15.523208100000002,1.7138671875
,15.573438,1.689453125
,15.573854999999998,1.6796875
,15.593873599999998,1.66015625
,15.6053946,1.66015625
,15.6208919,1.6357421875
,15.667138000000001,1.640625
,15.667533299999999,1.630859375
,15.6877815,1.6259765625
,15.703353799999999,1.6064453125
,15.738931999999998,1.6015625
,15.761028199999998,1.58203125
,15.763569100000002,1.572265625
,15.7860668,1.5625
,15.824776799999999,1.5185546875
,15.8251675,1.5478515625
,15.843806699999998,1.6259765625
,15.8800037,1.7041015625
,15.882887100000001,1.7724609375
,15.9345942,1.845703125
,15.9350077,1.8896484375
,15.944274400000001,1.93359375
,15.9803353,1.953125
,16.0005928,1.982421875
,16.0008378,1.982421875
,16.042417,1.9970703125
,16.0427331,1.9970703125
,16.0627817,1.9921875
,16.1053057,1.9677734375
,16.1055517,1.9677734375
,16.1505664,1.943359375
,16.1508145,1.9189453125
,16.1664773,1.9091796875
,16.1828829,1.884765625
,16.2176735,1.8701171875
,16.2376203,1.8603515625
,16.2432226,1.8408203125
,16.2798356,1.81640625
,16.3085466,1.7919921875
,16.3087982,1.7626953125
,16.3269955,1.7431640625
,16.3422852,1.71875
,16.3872515,1.708984375
,16.387501,1.689453125
,16.4189346,1.669921875
,16.4270085,1.6455078125
,16.4443797,1.62109375
,16.4806339,1.5966796875
,16.5109207,1.5869140625
,16.5111725,1.5673828125
,16.5239456,1.54296875
,16.5741363,1.5380859375
,16.5745326,1.5283203125
,16.5856634,1.513671875
,16.6357454,1.50390625
,16.6360503,1.4990234375
,16.647076,1.4990234375
,16.6975881,1.5234375
,16.6979931,1.5673828125
,16.7067787,1.6259765625
,16.7246861,1.6796875
,16.7739728,1.7578125
,16.7743656,1.806640625
,16.7847067,1.8603515625
,16.8208536,1.8994140625
,16.8406728,1.9091796875
,16.8459348,1.9287109375
,16.8838634,1.9287109375
,16.9040079,1.93359375
,16.9043264,1.9189453125
,16.9415284,1.9140625
,16.9469643,1.8896484375
,16.9655604,1.875
,17.0079114,1.845703125
,17.0083136,1.826171875
,17.0441192,1.796875
,17.0445857,1.77734375
,17.0863696,1.748046875
,17.0867518,1.7431640625
,17.1038539,1.7138671875
,17.1493272,1.71875
,17.1496649,1.708984375
,17.1784672,1.689453125
,17.1868904,1.6650390625
,17.226653,1.6455078125
,17.2269028,1.62109375
,17.2430649,1.5966796875
,17.2807556,1.5869140625
,17.2861627,1.572265625
,17.3046662,1.552734375
,17.3433569,1.54296875
,17.3438298,1.5234375
,17.3820453,1.50390625
,17.4022569,1.494140625
,17.4025003,1.474609375
,17.4370604,1.46484375
,17.457859,1.474609375
,17.4653343,1.396484375
,17.5081834,1.40625
,17.5084262,1.416015625
,17.5247579,1.4599609375
,17.557643,1.50390625
,17.5787976,1.5771484375
,17.5893819,1.6357421875
,17.633825,1.6943359375
,17.6340919,1.728515625
,17.6442829,1.7919921875
,17.6789,1.81640625
,17.6996215,1.845703125
,17.7070895,1.85546875
,17.756883,1.8603515625
,17.7571419,1.845703125
,17.7682425,1.8408203125
,17.8196631,1.8212890625
,17.8199096,1.7919921875
,17.8254535,1.7822265625
,17.8666714,1.7724609375
,17.8670027,1.7626953125
,17.8879809,1.748046875
,17.9238094,1.73828125
,17.9263179,1.7236328125
,17.9621858,1.708984375
,17.9914192,1.689453125
,17.9916804,1.6796875
,18.0042328,1.6650390625
,18.0562736,1.66015625
,18.0566245,1.6357421875
,18.0871993,1.62109375
,18.0875264,1.6162109375
,18.1317689,1.5966796875
,18.132085,1.58203125
,18.1449814,1.5673828125
,18.1769954,1.58203125
,18.1977966,1.58203125
,18.2062934,1.5771484375
,18.2432207,1.5673828125
,18.2477209,1.5625
,18.2831815,1.54296875
,18.2883971,1.5380859375
,18.3082585,1.5234375
,18.3288248,1.484375
,18.3461604,1.4794921875
,18.3980159,1.5625
,18.3983016,1.640625
,18.4068213,1.7333984375
,18.4411653,1.806640625
,18.4613548,1.8505859375
,18.466797,1.89453125
,18.4881184,1.9189453125
,18.537395,1.9384765625
,18.5376393,1.9384765625
,18.5665457,1.9580078125
,18.566786,1.9580078125
,18.6021378,1.953125
,18.6066027,1.93359375
,18.6443329,1.9189453125
,18.6762856,1.89453125
,18.6766762,1.884765625
,18.6859078,1.85546875
,18.7203901,1.8505859375
,18.7269833,1.845703125
,18.7706243,1.8212890625
,18.7709367,1.8017578125
,18.787158,1.77734375
,18.8311635,1.7578125
,18.8314057,1.7333984375
,18.851807,1.7138671875
,18.866959,1.6943359375
,18.8874013,1.6845703125
,18.922079,1.66015625
,18.9276323,1.6552734375
,18.9721545,1.630859375
,18.9724737,1.62109375
,18.988903,1.5966796875
,19.0240268,1.5869140625
,19.024389,1.5625
,19.0604667,1.5673828125
,19.0820969,1.5576171875
,19.0866056,1.54296875
,19.1220692,1.533203125
,19.1275589,1.5185546875
,19.1645352,1.50390625
,19.1697175,1.5185546875
,19.2213502,1.5625
,19.2217337,1.62109375
,19.2303538,1.689453125
,19.2459779,1.7529296875
,19.2833898,1.8212890625
,19.2863596,1.865234375
,19.3210057,1.904296875
,19.3412964,1.9287109375
,19.3494435,1.9482421875
,19.3838004,1.9677734375
,19.3890583,1.9677734375
,19.4249741,1.9580078125
,19.4253145,1.943359375
,19.4635296,1.9384765625
,19.4677471,1.9140625
,19.5025609,1.8994140625
,19.523004,1.875
,19.5292145,1.8603515625
,19.5642068,1.826171875
,19.5854171,1.81640625
,19.5858976,1.787109375
,19.6273015,1.77734375
,19.6276205,1.7626953125
,19.6732187,1.748046875
,19.6734673,1.7138671875
,19.689126,1.708984375
,19.7257302,1.6845703125
,19.7310768,1.66015625
,19.7665536,1.6357421875
,19.7669428,1.6162109375
,19.7891397,1.5966796875
,19.8070047,1.5771484375
,19.8460601,1.5673828125
,19.8770019,1.552734375
,19.8772559,1.5380859375
,19.8890687,1.5234375
,19.9401085,1.50390625
,19.9405306,1.484375
,19.9467112,1.4892578125
,19.9679188,1.4794921875
,20.0164024,1.474609375
,20.0167281,1.484375
,20.0300511,1.494140625
,20.0671489,1.5380859375
,20.0675417,1.591796875
,20.1113224,1.6650390625
,20.1115986,1.7138671875
,20.141713,1.7724609375
,20.1488339,1.806640625
,20.1870188,1.85546875
,20.1874231,1.8798828125
,20.2351194,1.9140625
,20.2355138,1.923828125
,20.2648218,1.93359375
,20.2705764,1.923828125
,20.3056482,1.9140625
,20.3059507,1.8896484375
,20.340634,1.8896484375
,20.361418,1.8798828125
,20.3691691,1.865234375
,20.4213086,1.8505859375
,20.4217009,1.8359375
,20.4300712,1.8212890625
,20.4657042,1.8017578125
,20.471191,1.787109375
,20.4889701,1.7578125
,20.507718,1.748046875
,20.5422379,1.7333984375
,20.5638101,1.71875
,20.5688774,1.6943359375
,20.6084659,1.6845703125
,20.6087114,1.6650390625
,20.6431636,1.650390625
,20.6632147,1.6455078125
,20.6684426,1.6259765625
,20.7164551,1.6259765625
,20.7166988,1.62109375
,20.7292038,1.6259765625
,20.7660217,1.611328125
,20.768739,1.6064453125
,20.8073672,1.591796875
,20.8118233,1.58203125
,20.8290774,1.5771484375
,20.874027,1.6162109375
,20.874272,1.6162109375
,20.888882,1.708984375
,20.9221984,1.7822265625
,20.943088,1.85546875
,20.9502966,1.8994140625
,20.9706503,1.9482421875
,21.004652,1.9873046875
,21.0261319,1.9970703125
,21.0315229,2.01171875
,21.0484115,2.01171875
,21.0908225,2.021484375
,21.091219,1.9970703125
,21.1211199,1.9921875
,21.129137,1.9677734375
,21.1657485,1.9482421875
,21.1725578,1.9287109375
,21.2090511,1.9091796875
,21.2095763,1.884765625
,21.2452418,1.89453125
,21.2493615,1.884765625
,21.2699401,1.8798828125
,21.2915301,1.875
,21.325077,1.845703125
,21.3455055,1.826171875
,21.3519237,1.796875
,21.3727679,1.77734375
,21.3888975,1.7431640625
,21.4232848,1.7333984375
,21.4439018,1.7138671875
,21.4493218,1.708984375
,21.4856436,1.6796875
,21.4914878,1.669921875
,21.5267162,1.6455078125
,21.5311106,1.630859375
,21.5462194,1.6064453125
,21.5861115,1.6064453125
,21.6175921,1.5869140625
,21.6179918,1.58203125
,21.6310721,1.5771484375
,21.680785,1.5673828125
,21.6811808,1.5869140625
,21.6926921,1.6259765625
,21.7415542,1.689453125
,21.7418042,1.748046875
,21.7515346,1.7724609375
,21.7702496,1.8359375
,21.7893163,1.89453125
,21.836131,1.9384765625
,21.8365253,1.9677734375
,21.8533639,1.9873046875
,21.8729559,2.001953125
,21.9091118,1.9970703125
,21.9140392,1.9873046875
,21.9589346,1.97265625
,21.9591826,1.943359375
,21.9713716,1.9287109375
,21.990251,1.9091796875
,22.0367617,1.8994140625
,22.0370792,1.8701171875
,22.0683911,1.85546875
,22.072904,1.8212890625
,22.1084156,1.8017578125
,22.1089775,1.7626953125
,22.1450228,1.748046875
,22.1506223,1.71875
,22.1874985,1.69921875
,22.1933682,1.669921875
,22.2118028,1.650390625
,22.2548808,1.6162109375
,22.2551427,1.611328125
,22.2908823,1.5966796875
,22.2916964,1.572265625
,22.3110533,1.572265625
,22.3462284,1.5576171875
,22.3525931,1.552734375
,22.3876161,1.5380859375
,22.390885,1.533203125
,22.4287155,1.513671875
,22.4330871,1.50390625
,22.44966,1.484375
,22.4879628,1.484375
,22.5091257,1.4892578125
,22.5094181,1.533203125
,22.5494298,1.572265625
,22.5519997,1.6455078125
,22.588611,1.71875
,22.5926039,1.7724609375
,22.6145963,1.81640625
,22.6505577,1.8408203125
,22.6524615,1.8701171875
,22.668729,1.8798828125
,22.7124892,1.904296875
,22.7127276,1.9091796875
,22.7334003,1.9091796875
,22.7669332,1.89453125
,22.7877395,1.8896484375
,22.7934286,1.8701171875
,22.8285226,1.85546875
,22.8287795,1.826171875
,22.8709688,1.826171875
,22.8714053,1.8017578125
,22.9015518,1.796875
,22.911535,1.77734375
,22.9483326,1.7529296875
,22.9699027,1.73828125
,22.9746097,1.71875
,23.0115068,1.6943359375
,23.0119134,1.6748046875
,23.0303485,1.669921875
,23.0674558,1.6552734375
,23.0733339,1.650390625
,23.1075142,1.6357421875
,23.1122358,1.6259765625
,23.1487664,1.6064453125
,23.15535,1.6015625
,23.1700483,1.5771484375
,23.2046897,1.58203125
,23.2265242,1.58203125
,23.2311766,1.572265625
,23.2704623,1.5673828125
,23.2729873,1.572265625
,23.3091845,1.591796875
,23.3144043,1.6064453125
,23.348627,1.6455078125
,23.34903,1.69921875
,23.3691831,1.7822265625
,23.4118193,1.8359375
,23.4121821,1.89453125
,23.4429275,1.93359375
,23.4544155,1.962890625
,23.4903646,1.982421875
,23.4950906,2.001953125
,23.5307774,1.9970703125
,23.5337836,2.01171875
,23.5691568,1.9970703125
,23.5894407,1.9775390625
,23.5926403,1.97265625
,23.6119763,1.953125
,23.647583,1.93359375
,23.6527863,1.9091796875
,23.6879397,1.8896484375
,23.6958523,1.865234375
,23.7303279,1.845703125
,23.730733,1.81640625
,23.771038,1.8017578125
,23.8005397,1.787109375
,23.8007852,1.7822265625
,23.813523,1.7626953125
,23.8507513,1.7431640625
,23.8553565,1.728515625
,23.8936652,1.6943359375
,23.893916,1.6796875
,23.9426175,1.6552734375
,23.9430004,1.650390625
,23.9523794,1.6357421875
,23.9885152,1.6259765625
,24.0194547,1.6015625
,24.0196965,1.591796875
,24.0362619,1.5673828125
,24.0808981,1.5576171875
,24.0811806,1.533203125
,24.0932101,1.533203125
,24.1286372,1.5185546875
,24.1313513,1.5234375
,24.1677511,1.5283203125
,24.1734545,1.5771484375
,24.2119334,1.6357421875
,24.2123094,1.6796875
,24.248721,1.7333984375
,24.2702608,1.7724609375
,24.2754646,1.767578125
,24.2919586,1.7626953125
,24.3432067,1.8310546875
,24.3437721,1.865234375
,24.3728781,1.89453125
,24.3731306,1.89453125
,24.4076725,1.89453125
,24.4287703,1.8798828125
,24.4362445,1.865234375
,24.4531571,1.8359375
,24.4884527,1.8310546875
,24.4940877,1.8212890625
,24.5290287,1.7919921875
,24.5351479,1.77734375
,24.5718342,1.7529296875
,24.5747279,1.73828125
,24.6100672,1.7041015625
,24.6307512,1.6845703125
,24.6345034,1.6552734375
,24.6534644,1.650390625
,24.7023345,1.62109375
,24.7025891,1.6064453125
,24.7148222,1.5869140625
,24.7493559,1.572265625
,24.7704854,1.552734375
,24.7755626,1.54296875
,24.7920421,1.5185546875
,24.8268088,1.5283203125
,24.8321893,1.533203125
,24.8680554,1.5185546875
,24.8886656,1.513671875
,24.893394,1.4990234375
,24.93051,1.494140625
,24.9509638,1.474609375
,24.955692,1.46484375
,24.973927,1.4453125
,25.0096308,1.4501953125
,25.0126142,1.4599609375
,25.0497356,1.4990234375
,25.0531532,1.54296875
,25.0936405,1.6064453125
,25.0939633,1.650390625
,25.1402292,1.69921875
,25.1404817,1.73828125
,25.1561762,1.7578125
,25.2025094,1.77734375
,25.2027601,1.77734375
,25.222845,1.796875
,25.2347877,1.796875
,25.2710494,1.7919921875
,25.2749809,1.7822265625
,25.3105621,1.767578125
,25.3310247,1.7578125
,25.3359589,1.7578125
,25.371242,1.748046875
,25.3719988,1.7578125
,25.4101847,1.7529296875
,25.4148694,1.7529296875
,25.4670738,1.7333984375
,25.4673128,1.7333984375
,25.4772477,1.71875
,25.5133823,1.6943359375
,25.5152811,1.6796875
,25.5594181,1.66015625
,25.5598138,1.66015625
,25.5750987,1.650390625
,25.621082,1.640625
,25.6213216,1.630859375
,25.635653,1.6259765625
,25.6707709,1.611328125
,25.6905089,1.6064453125
,25.6936304,1.5869140625
,25.7147444,1.5869140625
,25.752338,1.5771484375
,25.752734,1.572265625
,25.7906617,1.572265625
,25.7952054,1.5625
,25.8384988,1.552734375
,25.8388903,1.552734375
,25.8680139,1.5869140625
,25.8743696,1.630859375
,25.9166076,1.7041015625
,25.9170108,1.7529296875
,25.9351058,1.806640625
,25.9774428,1.8359375
,25.9778359,1.875
,25.9983493,1.89453125
,26.0167698,1.9091796875
,26.0514314,1.9140625
,26.0737421,1.9189453125
,26.0740244,1.904296875
,26.1181386,1.9189453125
,26.118462,1.9091796875
,26.1490547,1.884765625
,26.1566065,1.875
,26.1958595,1.85546875
,26.1961782,1.8359375
,26.2423388,1.8115234375
,26.2425984,1.796875
,26.2633196,1.7822265625
,26.2760938,1.7724609375
,26.320224,1.7529296875
,26.3204969,1.73828125
,26.3364081,1.7236328125
,26.3842513,1.7236328125
,26.3853149,1.708984375
,26.3982504,1.6943359375
,26.4466426,1.6796875
,26.447041,1.6552734375
,26.4557575,1.6552734375
,26.4917545,1.6357421875
,26.4949889,1.630859375
,26.5382546,1.611328125
,26.5386659,1.5966796875
,26.5724982,1.572265625
,26.5933539,1.5673828125
,26.5938849,1.54296875
,26.6294137,1.552734375
,26.6344525,1.5380859375
,26.6698044,1.54296875
,26.6905729,1.5576171875
,26.6960501,1.5966796875
,26.7331524,1.640625
,26.7382534,1.708984375
,26.7742141,1.7626953125
,26.7744547,1.8017578125
,26.8000437,1.8505859375
,26.8143199,1.826171875
,26.8510923,1.875
,26.871487,1.904296875
,26.87663,1.93359375
,26.9251439,1.943359375
,26.9255091,1.943359375
,26.9468741,1.9287109375
,26.9601969,1.9091796875
,26.9762551,1.884765625
,27.0172421,1.8798828125
,27.0174859,1.8603515625
,27.0515701,1.845703125
,27.0575749,1.8359375
,27.0945479,1.8115234375
,27.0971673,1.7919921875
,27.13261,1.767578125
,27.1527702,1.748046875
,27.1547214,1.7236328125
,27.1922714,1.71875
,27.197782,1.69921875
,27.2165959,1.689453125
,27.2676024,1.6650390625
,27.2679993,1.650390625
,27.2788652,1.6259765625
,27.3157712,1.6162109375
,27.3161756,1.5966796875
,27.3614393,1.591796875
,27.3618322,1.5771484375
,27.3924899,1.591796875
,27.3969428,1.5966796875
,27.4337976,1.5771484375
,27.4533421,1.5673828125
,27.4583626,1.5576171875
,27.4781567,1.5478515625
,27.4949579,1.54296875
,27.530252,1.5869140625
,27.552088,1.6357421875
,27.5565024,1.69921875
,27.5958573,1.748046875
,27.5961114,1.8017578125
,27.6432458,1.8359375
,27.6436381,1.875
,27.6683554,1.8896484375
,27.6805922,1.8701171875
,27.7302056,1.8603515625
,27.7306117,1.8798828125
,27.7377406,1.904296875
,27.777067,1.8994140625
,27.7774424,1.8994140625
,27.8142244,1.884765625
,27.8194901,1.8701171875
,27.8691466,1.8505859375
,27.8695433,1.8359375
,27.8751328,1.81640625
,27.9157571,1.81640625
,27.9456664,1.8115234375
,27.9459217,1.8017578125
,27.9577855,1.77734375
,27.9939289,1.7626953125
,28.0000849,1.7431640625
,28.0366474,1.7333984375
,28.0387307,1.71875
,28.0725259,1.6943359375
,28.077765,1.6943359375
,28.1192394,1.6845703125
,28.1195574,1.6748046875
,28.1399154,1.6552734375
,28.1589024,1.650390625
,28.1944288,1.630859375
,28.1991479,1.6259765625
,28.216127,1.611328125
,28.2524146,1.611328125
,28.2570608,1.6015625
,28.3062592,1.6015625
,28.3066571,1.6064453125
,28.3187673,1.6455078125
,28.3684725,1.7041015625
,28.3688711,1.7529296875
,28.3798512,1.8115234375
,28.3975639,1.865234375
,28.4165942,1.9287109375
,28.453569,1.9580078125
,28.4590119,1.9970703125
,28.4950654,2.01171875
,28.5003125,2.03125
,28.5196534,2.021484375
,28.5530644,2.021484375
,28.5748941,1.9970703125
,28.5803752,1.982421875
,28.5976996,1.953125
,28.6329667,1.943359375
,28.6373135,1.9189453125
,28.6709786,1.9091796875
,28.6923847,1.8896484375
,28.6978698,1.865234375
,28.734546,1.8408203125
,28.7392079,1.81640625
,28.775561,1.787109375
,28.8061181,1.7578125
,28.8063633,1.7529296875
,28.8169975,1.7333984375
,28.8666891,1.71875
,28.8669327,1.69921875
,28.8862691,1.6748046875
,28.8993769,1.66015625
,28.9441883,1.650390625
,28.9444322,1.630859375
,28.974837,1.62109375
,28.9780172,1.6259765625
,29.0151061,1.6064453125
,29.0197553,1.5966796875
,29.069081,1.572265625
,29.0694208,1.5673828125
,29.0816934,1.5478515625
,29.1167524,1.54296875
,29.11699,1.54296875
,29.1522566,1.591796875
,29.1582589,1.6455078125
,29.1937407,1.71875
,29.1995626,1.7724609375
,29.2191629,1.8408203125
,29.2538388,1.8798828125
,29.2748834,1.9189453125
,29.277677,1.9384765625
,29.3175274,1.97265625
,29.3177925,1.9970703125
,29.3551771,1.9970703125
,29.3592274,1.9921875
,29.394493,1.97265625
,29.3994256,1.953125
,29.4186029,1.943359375
,29.4535387,1.943359375
,29.4751197,1.9287109375
,29.481997,1.9189453125
,29.4984078,1.8994140625
,29.5177702,1.8896484375
,29.5518487,1.875
,29.5732166,1.8603515625
,29.5808826,1.8359375
,29.6180374,1.8115234375
,29.6230244,1.787109375
,29.6418178,1.7529296875
,29.6759696,1.728515625
,29.69732,1.7041015625
,29.700284,1.708984375
,29.7354088,1.6845703125
,29.7384021,1.6748046875
,29.7711739,1.6552734375
,29.7923019,1.640625
,29.8023881,1.6162109375
,29.8486376,1.6064453125
,29.8490525,1.58203125
,29.8571592,1.58203125
,29.8919305,1.5673828125
,29.9122852,1.552734375
,29.9196187,1.5380859375
,29.9553482,1.5625
,29.9599688,1.5966796875
,29.9965611,1.640625
,30.000788800000002,1.708984375
,30.0186663,1.767578125
,30.053992299999997,1.8359375
,30.0590981,1.8798828125
,30.1090308,1.9287109375
,30.1092821,1.953125
,30.120844599999998,1.97265625
,30.1590517,1.9775390625
,30.159461999999998,1.9775390625
,30.202897800000002,1.962890625
,30.2031487,1.97265625
,30.217632100000003,1.8994140625
,30.2539496,1.9091796875
,30.2594694,1.9140625
,30.2960443,1.89453125
,30.3019093,1.884765625
,30.337735199999997,1.865234375
,30.3422426,1.8603515625
,30.378161900000002,1.8359375
,30.381646099999998,1.8212890625
,30.3989088,1.7919921875
,30.4203743,1.787109375
,30.439605999999998,1.767578125
,30.472514699999998,1.7626953125
,30.4941276,1.748046875
,30.501386099999998,1.728515625
,30.547663999999997,1.708984375
,30.5480559,1.689453125
,30.5587601,1.669921875
,30.609761900000002,1.6796875
,30.610194399999997,1.6748046875
,30.619286700000004,1.6552734375
,30.654815399999997,1.6455078125
,30.6747904,1.630859375
,30.6824412,1.6162109375
,30.719386900000003,1.5966796875
,30.724593900000002,1.6015625
,30.740364900000003,1.6015625
,30.7765179,1.650390625
,30.780851900000002,1.7041015625
,30.826662499999998,1.7724609375
,30.827021000000002,1.8359375
,30.8423046,1.9091796875
,30.879743499999996,1.9580078125
,30.8801008,1.9970703125
,30.9204693,2.0361328125
,30.920887999999998,2.0458984375
,30.942614399999997,2.0703125
,30.961463000000002,2.0751953125
,30.9802795,2.080078125
,31.015433899999998,2.060546875
,31.0449105,2.0458984375
,31.045229399999997,2.0166015625
,31.062920300000002,1.9970703125
,31.0831046,1.9580078125
,31.105690099999997,1.9091796875
,31.121006199999997,1.845703125
,31.139404,1.865234375
,31.1739283,1.865234375
,31.194800299999997,1.8603515625
,31.2022897,1.8310546875
,31.2384292,1.8212890625
,31.243510899999997,1.8017578125
,31.280748799999998,1.7724609375
,31.28452,1.748046875
,31.301240999999997,1.71875
,31.335515100000002,1.708984375
,31.341458799999998,1.689453125
,31.377231199999997,1.6748046875
,31.3821887,1.66015625
,31.4289931,1.640625
,31.429463400000003,1.62109375
,31.444352199999997,1.6015625
,31.460231899999997,1.58203125
,31.4943801,1.591796875
,31.514881699999997,1.591796875
,31.5220908,1.58203125
,31.5411862,1.5869140625
,31.576493399999997,1.591796875
,31.5987225,1.6357421875
,31.603213500000003,1.6845703125
,31.647075299999997,1.7626953125
,31.647471799999998,1.81640625
,31.6761939,1.8994140625
,31.6823129,1.9482421875
,31.703076000000003,1.9970703125
,31.7433049,2.021484375
,31.743700099999998,2.05078125
,31.790399299999997,2.05078125
,31.790796,2.0556640625
,31.7995182,2.0458984375
,31.837805799999998,2.0361328125
,31.8421674,2.01171875
,31.8785138,1.9970703125
,31.8817053,1.97265625
,31.9314622,1.9384765625
,31.9318702,1.9091796875
,31.9436728,1.8798828125
,31.9817538,1.8505859375
,31.982153599999997,1.81640625
,32.0247104,1.796875
,32.0251076,1.767578125
,32.0449053,1.7529296875
,32.0637943,1.728515625
,32.0831073,1.708984375
,32.1177472,1.6796875
,32.1239555,1.6650390625
,32.1653111,1.6357421875
,32.1657091,1.6162109375
,32.2126227,1.6015625
,32.2130191,1.5673828125
,32.2215479,1.5576171875
,32.2593073,1.54296875
,32.2641004,1.5380859375
,32.2994126,1.5185546875
,32.3019901,1.5087890625
,32.3368831,1.4892578125
,32.3664055,1.4794921875
,32.3667298,1.4697265625
,32.3810702,1.50390625
,32.4291453,1.54296875
,32.4296004,1.611328125
,32.4432991,1.6796875
,32.4794932,1.748046875
,32.4838287,1.8017578125
,32.5220988,1.865234375
,32.5224784,1.9091796875
,32.5686815,1.9287109375
,32.5689313,1.962890625
,32.5825462,1.97265625
,32.6182553,1.9775390625
,32.6243843,1.962890625
,32.6447438,1.9580078125
,32.6795176,1.9384765625
,32.6842712,1.9189453125
,32.7008294,1.89453125
,32.7365608,1.8896484375
,32.7568765,1.8701171875
,32.7633807,1.865234375
,32.802973,1.845703125
,32.8032214,1.826171875
,32.8493657,1.8017578125
,32.8496122,1.77734375
,32.8648908,1.7529296875
,32.9002615,1.728515625
,32.9278976,1.708984375
,32.9282576,1.6748046875
,32.9446354,1.669921875
,32.9628957,1.6455078125
,33.0056102,1.6357421875
,33.0058618,1.611328125
,33.024475,1.6015625
,33.0611337,1.5771484375
,33.0648648,1.5625
,33.0817733,1.54296875
,33.1283554,1.5380859375
,33.1286128,1.5283203125
,33.1432952,1.533203125
,33.19073,1.5380859375
,33.1909795,1.5576171875
,33.2044624,1.611328125
,33.2539084,1.669921875
,33.2541481,1.748046875
,33.275229,1.8115234375
,33.2820488,1.89453125
,33.3027942,1.943359375
,33.3479879,1.9873046875
,33.3486246,2.01171875
,33.3785426,2.0263671875
,33.3862101,2.0263671875
,33.4215801,2.03125
,33.4218244,2.01171875
,33.4581965,2.0068359375
,33.4637509,1.9970703125
,33.4993512,1.9677734375
,33.5015259,1.9482421875
,33.5358448,1.93359375
,33.5561819,1.93359375
,33.5645768,1.9091796875
,33.5851013,1.89453125
,33.6192981,1.865234375
,33.6247823,1.8017578125
,33.6418718,1.7333984375
,33.6761889,1.7578125
,33.6965834,1.748046875
,33.7039823,1.7431640625
,33.7385989,1.7236328125
,33.758545,1.7041015625
,33.7678636,1.6796875
,33.8115084,1.6748046875
,33.8117517,1.650390625
,33.8217383,1.630859375
,33.8599889,1.62109375
,33.8645654,1.6064453125
,33.9067286,1.5869140625
,33.9070043,1.5673828125
,33.9260215,1.5576171875
,33.9462066,1.54296875
,33.9822722,1.533203125
,33.9826862,1.54296875
,34.0294239,1.58203125
,34.0297438,1.6455078125
,34.0435371,1.728515625
,34.0779435,1.8017578125
,34.1078205,1.8701171875
,34.1082163,1.93359375
,34.1272466,1.962890625
,34.1616867,1.9970703125
,34.1619356,2.01171875
,34.1985579,2.0458984375
,34.2196386,2.05078125
,34.2245558,2.0458984375
,34.2627949,2.021484375
,34.2632014,2.001953125
,34.2966345,1.9677734375
,34.3180177,1.9482421875
,34.3237353,1.9091796875
,34.3740865,1.8994140625
,34.3744821,1.8701171875
,34.3856625,1.845703125
,34.4337468,1.8115234375
,34.4340042,1.7919921875
,34.4448086,1.7578125
,34.4650277,1.7236328125
,34.5108442,1.6943359375
,34.5110957,1.66015625
,34.5279682,1.630859375
,34.5447573,1.6015625
,34.5668186,1.6015625
,34.6028271,1.58203125
,34.6032119,1.5673828125
,34.6489355,1.54296875
,34.649188,1.5185546875
,34.665394,1.494140625
,34.6994868,1.474609375
,34.7204329,1.4501953125
,34.725594,1.4453125
,34.7753669,1.4404296875
,34.7756082,1.416015625
,34.7869578,1.40625
,34.8237598,1.4013671875
,34.8240018,1.4404296875
,34.858688,1.4892578125
,34.8792475,1.5576171875
,34.8847387,1.62109375
,34.9298513,1.69921875
,34.9300961,1.7578125
,34.9445366,1.806640625
,34.9773053,1.8310546875
,34.9978694,1.85546875
,35.0073715,1.8603515625
,35.0419882,1.8603515625
,35.0449742,1.845703125
,35.080582,1.8505859375
,35.0850894,1.845703125
,35.132058,1.826171875
,35.1323443,1.8115234375
,35.1461163,1.787109375
,35.1675488,1.7724609375
,35.2096189,1.748046875
,35.2098812,1.73828125
,35.223467,1.7138671875
,35.259336,1.708984375
,35.2649754,1.6943359375
,35.3005031,1.6796875
,35.3078371,1.66015625
,35.3431709,1.6455078125
,35.3460395,1.62109375
,35.3810419,1.6015625
,35.4022241,1.591796875
,35.4078519,1.5673828125
,35.4441378,1.5576171875
,35.46304,1.533203125
,35.4654967,1.5380859375
,35.4857944,1.5234375
,35.5199708,1.5185546875
,35.5420819,1.4990234375
,35.5469089,1.4892578125
,35.5844921,1.4794921875
,35.6148215,1.494140625
,35.6151795,1.5087890625
,35.626532,1.5576171875
,35.6608412,1.611328125
,35.664934,1.6845703125
,35.7022547,1.73828125
,35.7224718,1.81640625
,35.7278976,1.8701171875
,35.7658084,1.8994140625
,35.7662557,1.9287109375
,35.8141813,1.9482421875
,35.8144312,1.9677734375
,35.8272924,1.97265625
,35.8643544,1.97265625
,35.8646844,1.9580078125
,35.9089579,1.9384765625
,35.9091982,1.9140625
,35.9305512,1.8896484375
,35.9445035,1.865234375
,35.9787389,1.8603515625
,35.9984773,1.845703125
,36.0055248,1.8212890625
,36.0395088,1.806640625
,36.0605579,1.77734375
,36.0656133,1.7529296875
,36.0997316,1.7236328125
,36.12143,1.7138671875
,36.1262049,1.6796875
,36.1756407,1.669921875
,36.1758925,1.5966796875
,36.1873003,1.611328125
,36.2075501,1.591796875
,36.2426543,1.5966796875
,36.2500131,1.58203125
,36.2846303,1.5771484375
,36.290046,1.552734375
,36.3091465,1.54296875
,36.3273552,1.513671875
,36.3632323,1.5234375
,36.36816,1.513671875
,36.4115584,1.4990234375
,36.411829,1.4892578125
,36.4284279,1.4892578125
,36.4479171,1.5087890625
,36.4823818,1.5576171875
,36.5024428,1.62109375
,36.504246,1.6845703125
,36.5394673,1.748046875
,36.5609813,1.806640625
,36.566578,1.8505859375
,36.6007762,1.884765625
,36.6229775,1.923828125
,36.629985,1.93359375
,36.6735874,1.943359375
,36.6738289,1.943359375
,36.687824,1.9189453125
,36.7374631,1.9140625
,36.73786,1.8994140625
,36.7472049,1.8896484375
,36.7838595,1.865234375
,36.7871479,1.845703125
,36.8312327,1.81640625
,36.8315506,1.796875
,36.8523333,1.7724609375
,36.8659065,1.7626953125
,36.9080142,1.7431640625
,36.9082545,1.7236328125
,36.9275759,1.69921875
,36.9618656,1.669921875
,36.9825025,1.6357421875
,36.9882072,1.62109375
,37.0258942,1.6015625
,37.0303752,1.572265625
,37.0669744,1.513671875
,37.06732,1.50390625
,37.0994063,1.50390625
,37.1085797,1.50390625
,37.1584777,1.50390625
,37.1587342,1.494140625
,37.1691439,1.4892578125
,37.1901233,1.4794921875
,37.2112347,1.46484375
,37.2269125,1.455078125
,37.2607655,1.4794921875
,37.281944,1.513671875
,37.2892509,1.5771484375
,37.3303692,1.650390625
,37.3306484,1.708984375
,37.3648567,1.767578125
,37.3694374,1.81640625
,37.4088262,1.865234375
,37.4090696,1.884765625
,37.4410838,1.923828125
,37.4485299,1.9384765625
,37.4867832,1.943359375
,37.4922729,1.9384765625
,37.5097386,1.9287109375
,37.5476511,1.9140625
,37.5480199,1.89453125
,37.5664436,1.875
,37.602496,1.865234375
,37.607701,1.845703125
,37.6448651,1.8505859375
,37.6489875,1.845703125
,37.6885306,1.8310546875
,37.6887812,1.81640625
,37.7091419,1.7919921875
,37.7517802,1.7724609375
,37.7521756,1.748046875
,37.7819655,1.7431640625
,37.7881482,1.728515625
,37.8235752,1.7138671875
,37.8284197,1.689453125
,37.8632411,1.669921875
,37.8836003,1.650390625
,37.8890441,1.6357421875
,37.9399608,1.611328125
,37.9402094,1.591796875
,37.9604649,1.5869140625
,37.9678905,1.5625
,38.01072,1.5576171875
,38.0109996,1.54296875
,38.0421256,1.5478515625
,38.0495178,1.533203125
,38.0861403,1.552734375
,38.0901439,1.5771484375
,38.1222805,1.640625
,38.142639,1.6943359375
,38.1489175,1.77734375
,38.1699523,1.8408203125
,38.2045028,1.89453125
,38.2100642,1.9287109375
,38.2445788,1.9580078125
,38.2497416,1.9677734375
,38.2888832,1.9873046875
,38.2914151,1.982421875
,38.3078049,1.97265625
,38.3451897,1.962890625
,38.3499247,1.943359375
,38.3707899,1.923828125
,38.4159526,1.8994140625
,38.4162687,1.884765625
,38.4321108,1.865234375
,38.476708,1.845703125
,38.4769599,1.81640625
,38.4871584,1.8017578125
,38.5394846,1.7822265625
,38.5398131,1.767578125
,38.5507529,1.748046875
,38.5847796,1.7236328125
,38.5897138,1.708984375
,38.6326461,1.669921875
,38.6329833,1.6552734375
,38.6635001,1.6259765625
,38.6688556,1.630859375
,38.7043798,1.6064453125
,38.7093948,1.6015625
,38.7444465,1.572265625
,38.7647252,1.5673828125
,38.7702111,1.5380859375
,38.8042835,1.533203125
,38.8249355,1.513671875
,38.8323192,1.50390625
,38.8486376,1.4794921875
,38.8950139,1.4794921875
,38.895273,1.474609375
,38.9099486,1.513671875
,38.9560018,1.572265625
,38.956396,1.630859375
,38.9873814,1.69921875
,38.9917661,1.748046875
,39.0324618,1.806640625
,39.0327037,1.8359375
,39.0503762,1.8798828125
,39.0863033,1.9091796875
,39.0893075,1.93359375
,39.1111409,1.9384765625
,39.1469058,1.9384765625
,39.1511041,1.923828125
,39.1880161,1.9189453125
,39.1883735,1.8896484375
,39.2361447,1.884765625
,39.236391,1.8798828125
,39.2562961,1.85546875
,39.2708462,1.8408203125
,39.3135397,1.8212890625
,39.3137922,1.8017578125
,39.3321895,1.77734375
,39.3704776,1.7578125
,39.3708754,1.728515625
,39.4090862,1.7236328125
,39.4094204,1.7041015625
,39.4457249,1.689453125
,39.4525219,1.669921875
,39.4872984,1.650390625
,39.4930189,1.6259765625
,39.5278582,1.611328125
,39.5282833,1.5869140625
,39.5632338,1.5869140625
,39.5833314,1.5234375
,39.5890529,1.474609375
,39.6259187,1.4892578125
,39.6313485,1.4892578125
,39.6519004,1.4990234375
,39.6865562,1.4990234375
,39.6925033,1.513671875
,39.7127421,1.5234375
,39.7511826,1.552734375
,39.7515778,1.5966796875
,39.7724107,1.669921875
,39.7917092,1.73828125
,39.8282801,1.81640625
,39.8307309,1.8603515625
,39.8657884,1.89453125
,39.8880614,1.923828125
,39.8932924,1.9287109375
,39.9293207,1.9384765625
,39.9298872,1.93359375
,39.9693191,1.9384765625
,39.9696507,1.923828125
,40.005168,1.9091796875
,40.0321453,1.8896484375
,40.0323881,1.8798828125
,40.0788464,1.8505859375
,40.0790869,1.8359375
,40.0989494,1.81640625
,40.1089948,1.8115234375
,40.1431889,1.796875
,40.1646066,1.7822265625
,40.1708579,1.7578125
,40.219366,1.7578125
,40.219617,1.7431640625
,40.2328539,1.71875
,40.2698619,1.6943359375
,40.2701018,1.669921875
,40.2907505,1.66015625
,40.3100786,1.6552734375
,40.343962,1.650390625
,40.3648188,1.6357421875
,40.3736154,1.62109375
,40.4065998,1.6015625
,40.414549,1.5869140625
,40.4330261,1.5673828125
,40.4680173,1.5185546875
,40.4876485,1.5185546875
,40.4937757,1.5283203125
,40.5096785,1.54296875
,40.5437856,1.552734375
,40.5656947,1.6064453125
,40.5732241,1.66015625
,40.6241912,1.7333984375
,40.6246013,1.787109375
,40.6546079,1.8359375
,40.6549066,1.865234375
,40.6714029,1.9091796875
,40.7166474,1.93359375
,40.716906,1.97265625
,40.7321843,1.9775390625
,40.7683414,1.982421875
,40.7738122,1.9677734375
,40.8103825,1.953125
,40.8108171,1.923828125
,40.8598792,1.923828125
,40.8602359,1.9189453125
,40.8741734,1.8994140625
,40.9099633,1.8896484375
,40.9128713,1.875
,40.9493838,1.85546875
,40.9542563,1.8310546875
,40.9983653,1.8115234375
,40.9986081,1.7919921875
,41.0108688,1.7822265625
,41.0462546,1.767578125
,41.0511217,1.7431640625
,41.0920507,1.728515625
,41.1223446,1.7138671875
,41.1227427,1.6943359375
,41.1335456,1.6748046875
,41.1703036,1.66015625
,41.1706965,1.6357421875
,41.215943,1.630859375
,41.2161833,1.611328125
,41.2375149,1.611328125
,41.2526856,1.5869140625
,41.2959526,1.572265625
,41.2962562,1.552734375
,41.314131,1.54296875
,41.3582902,1.5234375
,41.358734,1.5380859375
,41.3711352,1.5673828125
,41.4086228,1.6357421875
,41.4127071,1.7041015625
,41.4473747,1.77734375
,41.4684284,1.826171875
,41.4740136,1.875
,41.5117128,1.9091796875
,41.5124613,1.923828125
,41.5480397,1.9384765625
,41.5695057,1.93359375
,41.5723852,1.9482421875
,41.5933238,1.9384765625
,41.6444211,1.93359375
,41.6447732,1.9091796875
,41.653214,1.8896484375
,41.6897003,1.8603515625
,41.694403,1.8408203125
,41.7116529,1.81640625
,41.7318297,1.8212890625
,41.7684429,1.81640625
,41.7726152,1.806640625
,41.8088429,1.8017578125
,41.8307417,1.77734375
,41.8353949,1.7529296875
,41.8857751,1.728515625
,41.8860956,1.7138671875
,41.8928923,1.6845703125
,41.9119637,1.669921875
,41.9486205,1.6552734375
,41.9777019,1.640625
,41.9779487,1.6162109375
,41.9915321,1.6015625
,42.0409608,1.58203125
,42.0412106,1.5673828125
,42.0631648,1.5478515625
,42.0729324,1.5380859375
,42.1174213,1.5234375
,42.1176679,1.533203125
,42.132998,1.533203125
,42.1693271,1.5283203125
,42.1890426,1.5625
,42.1940775,1.6064453125
,42.2298517,1.669921875
,42.2494034,1.728515625
,42.2573334,1.796875
,42.2735798,1.8359375
,42.31823,1.884765625
,42.3186275,1.9091796875
,42.3341253,1.9287109375
,42.3553431,1.93359375
,42.3904651,1.943359375
,42.3970336,1.9384765625
,42.4177591,1.923828125
,42.4531274,1.9091796875
,42.4536088,1.884765625
,42.488437,1.8798828125
,42.4943497,1.865234375
,42.5301332,1.8603515625
,42.5360581,1.8408203125
,42.5715301,1.8212890625
,42.5746974,1.7919921875
,42.6107265,1.77734375
,42.6110758,1.748046875
,42.6307793,1.7529296875
,42.6739448,1.7236328125
,42.6743578,1.71875
,42.694801,1.69921875
,42.7370335,1.6796875
,42.7372988,1.6552734375
,42.7549933,1.6552734375
,42.7902523,1.6455078125
,42.8109014,1.6259765625
,42.8134083,1.62109375
,42.8495875,1.611328125
,42.8544361,1.6015625
,42.8752077,1.5869140625
,42.9126892,1.58203125
,42.9167443,1.5673828125
,42.9514165,1.552734375
,42.9578288,1.5380859375
,42.9781666,1.5087890625
,42.9946509,1.513671875
,43.030284,1.6162109375
,43.0332754,1.689453125
,43.067426,1.7626953125
,43.088185,1.826171875
,43.0959182,1.85546875
,43.1314562,1.884765625
,43.1366265,1.89453125
,43.1708126,1.9140625
,43.190881,1.9140625
,43.1934036,1.923828125
,43.2309341,1.9091796875
,43.2351996,1.8994140625
,43.2706398,1.875
,43.2752184,1.865234375
,43.3095379,1.8408203125
,43.3296422,1.8310546875
,43.3320676,1.8017578125
,43.353041,1.796875
,43.3889017,1.77734375
,43.411137,1.7724609375
,43.4158247,1.7529296875
,43.457438,1.728515625
,43.4578302,1.708984375
,43.4778837,1.6845703125
,43.5140887,1.66015625
,43.5144993,1.6357421875
,43.5654014,1.6259765625
,43.5663444,1.62109375
,43.5767417,1.6064453125
,43.6133216,1.5869140625
,43.613683,1.5771484375
,43.6584975,1.5576171875
,43.6587423,1.5478515625
,43.678147,1.533203125
,43.6936699,1.5283203125
,43.7307963,1.5283203125
,43.7353577,1.5185546875
,43.7701264,1.513671875
,43.7989907,1.513671875
,43.7992473,1.5380859375
,43.8178315,1.572265625
,43.8507903,1.630859375
,43.8716456,1.6796875
,43.8805877,1.7431640625
,43.8945408,1.77734375
,43.94095,1.8359375
,43.9412734,1.8603515625
,43.9567214,1.8896484375
,44.0010851,1.89453125
,44.0014493,1.904296875
,44.0169836,1.89453125
,44.0525075,1.89453125
,44.0729631,1.8798828125
,44.0732076,1.85546875
,44.1119566,1.8505859375
,44.1145318,1.8310546875
,44.1501636,1.81640625
,44.1702929,1.8017578125
,44.1775968,1.7919921875
,44.2197891,1.7724609375
,44.2201831,1.7578125
,44.2495837,1.7333984375
,44.2565013,1.728515625
,44.2959387,1.708984375
,44.2961889,1.69921875
,44.3423414,1.6796875
,44.3425894,1.669921875
,44.3578826,1.6552734375
,44.3920328,1.630859375
,44.4137664,1.611328125
,44.4142639,1.5869140625
,44.4509223,1.5869140625
,44.4570202,1.5771484375
,44.4937939,1.5625
,44.4941746,1.5478515625
,44.5296419,1.533203125
,44.5498851,1.5087890625
,44.5579117,1.4990234375
,44.5755201,1.4794921875
,44.5952197,1.494140625
,44.6303047,1.5185546875
,44.6529951,1.5673828125
,44.657793,1.6162109375
,44.6766407,1.6845703125
,44.7162522,1.7333984375
,44.7165578,1.7626953125
,44.7372086,1.7919921875
,44.7702657,1.806640625
,44.7905289,1.826171875
,44.7962814,1.8310546875
,44.8320756,1.845703125
,44.8354385,1.845703125
,44.8731213,1.845703125
,44.9047822,1.8310546875
,44.9051782,1.81640625
,44.9183579,1.8017578125
,44.9539716,1.7919921875
,44.9543137,1.7724609375
,44.9908617,1.7724609375
,44.9961291,1.767578125
,45.0455101,1.748046875
,45.0458954,1.73828125
,45.0592931,1.7236328125
,45.0785159,1.7138671875
,45.1214308,1.6845703125
,45.12168,1.6748046875
,45.1364901,1.6455078125
,45.1718465,1.6455078125
,45.1762348,1.6357421875
,45.2150635,1.630859375
,45.2153048,1.611328125
,45.2631504,1.6064453125
,45.2634693,1.5869140625
,45.2928305,1.5771484375
,45.2930746,1.5576171875
,45.3407591,1.5673828125
,45.3409954,1.572265625
,45.3724372,1.5625
,45.3770253,1.5625
,45.4171662,1.5673828125
,45.4174621,1.6015625
,45.4365703,1.6455078125
,45.4794031,1.7041015625
,45.479644,1.748046875
,45.4993298,1.748046875
,45.5179857,1.7431640625
,45.5535229,1.8017578125
,45.5560512,1.8359375
,45.591509,1.865234375
,45.6139187,1.8798828125
,45.619737,1.8798828125
,45.6681129,1.8798828125
,45.6684587,1.8603515625
,45.6817769,1.845703125
,45.6971544,1.8212890625
,45.7311862,1.8212890625
,45.7508495,1.806640625
,45.7590506,1.806640625
,45.7803574,1.7822265625
,45.7994058,1.7724609375
,45.8345979,1.7529296875
,45.8543018,1.7626953125
,45.8566879,1.73828125
,45.8995759,1.748046875
,45.8998324,1.7333984375
,45.9329461,1.728515625
,45.937823,1.69921875
,45.9740958,1.69921875
,45.9800688,1.6845703125
,46.015535,1.66015625
,46.0201962,1.6455078125
,46.0367099,1.630859375
,46.087563,1.6259765625
,46.0879605,1.6162109375
,46.0989587,1.611328125
,46.1478099,1.5966796875
,46.1480111,1.58203125
,46.1592996,1.5673828125
,46.1933567,1.552734375
,46.2153159,1.552734375
,46.2155942,1.5966796875
,46.2573573,1.6357421875
,46.2576592,1.689453125
,46.3046077,1.7529296875
,46.3050067,1.787109375
,46.3201857,1.806640625
,46.3658896,1.8310546875
,46.3661378,1.85546875
,46.3810168,1.85546875
,46.4294925,1.865234375
,46.429815,1.865234375
,46.4391163,1.8798828125
,46.4901273,1.875
,46.4903744,1.875
,46.498549,1.85546875
,46.5212141,1.8359375
,46.5410251,1.81640625
,46.5834714,1.796875
,46.5837125,1.767578125
,46.6033087,1.77734375
,46.6186594,1.767578125
,46.6596938,1.7431640625
,46.6600895,1.7333984375
,46.6940939,1.708984375
,46.6985028,1.6943359375
,46.7334158,1.669921875
,46.7531704,1.66015625
,46.7566439,1.6357421875
,46.8003725,1.630859375
,46.8006635,1.6162109375
,46.8467598,1.611328125
,46.8471542,1.5966796875
,46.8603674,1.5966796875
,46.8958182,1.5771484375
,46.9007153,1.5625
,46.9371205,1.552734375
,46.937512,1.533203125
,46.986914,1.5283203125
,46.9871769,1.5234375
,47.0064913,1.513671875
,47.0208852,1.513671875
,47.0553551,1.5283203125
,47.0596733,1.5625
,47.0941852,1.611328125
,47.1153985,1.6552734375
,47.1158044,1.71875
,47.1596509,1.7529296875
,47.1598877,1.787109375
,47.1808667,1.806640625
,47.2222971,1.8212890625
,47.2225724,1.8212890625
,47.2680299,1.8359375
,47.2685927,1.8359375
,47.2834943,1.81640625
,47.3313505,1.806640625
,47.3318978,1.787109375
,47.3379185,1.7822265625
,47.3770145,1.7724609375
,47.3975109,1.767578125
,47.3996014,1.7529296875
,47.4353687,1.7431640625
,47.4555097,1.728515625
,47.4608469,1.7138671875
,47.476775,1.69921875
,47.5142839,1.7041015625
,47.5486777,1.689453125
,47.5490374,1.6845703125
,47.559955,1.6796875
,47.5979066,1.66015625
,47.6027006,1.650390625
,47.6216239,1.630859375
,47.6438959,1.6162109375
,47.6600931,1.5966796875
,47.6947267,1.6015625
,47.6996952,1.591796875
,47.7339608,1.5869140625
,47.754236,1.5771484375
,47.7612584,1.572265625
,47.7943506,1.552734375
,47.8155316,1.552734375
,47.8173395,1.5478515625
,47.8523351,1.5869140625
,47.873138,1.62109375
,47.8808649,1.7041015625
,47.9252715,1.7626953125
,47.9255289,1.806640625
,47.9397476,1.845703125
,47.9732742,1.8701171875
,47.9946331,1.8896484375
,47.9969611,1.8994140625
,48.0327122,1.9189453125
,48.066778,1.923828125
,48.066983,1.9189453125
,48.0799555,1.904296875
,48.1163746,1.8896484375
,48.1216716,1.8701171875
,48.1582894,1.8603515625
,48.1612016,1.8359375
,48.1946596,1.81640625
,48.2165011,1.806640625
,48.219475,1.7822265625
,48.2667316,1.7822265625
,48.266984,1.767578125
,48.2811821,1.767578125
,48.3288627,1.7431640625
,48.32911,1.728515625
,48.3494455,1.7138671875
,48.3616107,1.69921875
,48.3794775,1.6748046875
,48.3990061,1.6748046875
,48.4370154,1.6650390625
,48.4681667,1.66015625
,48.4684883,1.6455078125
,48.4804331,1.6357421875
,48.5155772,1.6064453125
,48.5359927,1.6064453125
,48.5433924,1.591796875
,48.5593492,1.572265625
,48.5806061,1.5673828125
,48.6243642,1.5625
,48.6251696,1.5625
,48.6413318,1.572265625
,48.6757663,1.6015625
,48.6966745,1.640625
,48.7017512,1.689453125
,48.719048,1.728515625
,48.7637543,1.77734375
,48.7641082,1.806640625
,48.7807609,1.8408203125
,48.8162901,1.8505859375
,48.8366502,1.865234375
,48.8434211,1.8798828125
,48.8629647,1.875
,48.9043536,1.8701171875
,48.9047433,1.8603515625
,48.9255436,1.81640625
,48.9409634,1.767578125
,48.9756254,1.7919921875
,48.9969402,1.8017578125
,49.0023111,1.806640625
,49.0218869,1.7919921875
,49.0599997,1.787109375
,49.0808688,1.7724609375
,49.0827351,1.7529296875
,49.09971,1.7333984375
,49.1384405,1.7333984375
,49.1409992,1.7138671875
,49.1856823,1.7041015625
,49.1860836,1.6845703125
,49.20689,1.6650390625
,49.223749,1.650390625
,49.2578747,1.630859375
,49.2648114,1.6162109375
,49.2816131,1.5966796875
,49.3262525,1.6015625
,49.3265032,1.5869140625
,49.3417514,1.5771484375
,49.376624,1.5576171875
,49.3837397,1.5478515625
,49.4212903,1.5283203125
,49.4234556,1.533203125
,49.4405403,1.5185546875
,49.4835221,1.5380859375
,49.483763,1.58203125
,49.5026478,1.630859375
,49.5374934,1.6845703125
,49.5427978,1.7333984375
,49.5781876,1.7724609375
,49.5849488,1.796875
,49.6048521,1.8212890625
,49.6200428,1.826171875
,49.6562018,1.8505859375
,49.6840031,1.8505859375
,49.6842535,1.85546875
,49.7036949,1.8408203125
,49.7462847,1.8310546875
,49.7467001,1.81640625
,49.7622914,1.8017578125
,49.784011,1.77734375
,49.8210846,1.7333984375
,49.8239088,1.7333984375
,49.8421733,1.7236328125
,49.8790592,1.728515625
,49.8848216,1.728515625
,49.9040843,1.71875
,49.9385579,1.71875
,49.9452139,1.7236328125
,49.9649721,1.7138671875
,50.0137397,1.708984375
,50.0139898,1.69921875
,50.0207704,1.69921875
,50.0559814,1.689453125
,50.0763772,1.689453125
,50.0823278,1.6748046875
,50.1218809,1.6552734375
,50.1222801,1.650390625
,50.1607533,1.630859375
,50.1652815,1.6162109375
,50.182964,1.5966796875
,50.2165989,1.6064453125
,50.2218775,1.591796875
,50.2567373,1.5966796875
,50.2766376,1.6015625
,50.2846566,1.640625
,50.3186073,1.6796875
,50.3384992,1.7431640625
,50.3432916,1.7822265625
,50.3632368,1.8359375
,50.3975837,1.875
,50.404208,1.904296875
,50.4239055,1.9091796875
,50.4654739,1.9384765625
,50.4657679,1.9482421875
,50.4938561,1.943359375
,50.505649,1.9384765625
,50.5218148,1.9189453125
,50.5572259,1.9091796875
,50.562439,1.89453125
,50.597665,1.8798828125
,50.6038267,1.865234375
,50.6510063,1.845703125
,50.6514011,1.826171875
,50.6811406,1.806640625
,50.6857643,1.7822265625
,50.7053127,1.767578125
,50.7225702,1.73828125
,50.7572967,1.7333984375
,50.7772138,1.7333984375
,50.7825501,1.7138671875
,50.820024,1.69921875
,50.8249004,1.6796875
,50.861158,1.6748046875
,50.8644262,1.650390625
,50.901249,1.640625
,50.9216126,1.62109375
,50.9221776,1.62109375
,50.9626883,1.611328125
,50.9944075,1.6162109375
,50.9946851,1.6015625
,51.0058353,1.591796875
,51.0264332,1.5771484375
,51.0699782,1.5625
,51.0702207,1.5478515625
,51.0823506,1.5771484375
,51.1316747,1.6162109375
,51.1321232,1.66015625
,51.1439398,1.71875
,51.1800637,1.7626953125
,51.1855565,1.806640625
,51.227141,1.8310546875
,51.227576,1.865234375
,51.257183,1.865234375
,51.2620365,1.89453125
,51.298212,1.9091796875
,51.3040908,1.9140625
,51.340976,1.904296875
,51.3462097,1.9091796875
,51.3833711,1.884765625
,51.3836153,1.865234375
,51.4295465,1.8505859375
,51.4298368,1.8310546875
,51.4497281,1.7724609375
,51.4627224,1.71875
,51.50782,1.748046875
,51.508221,1.748046875
,51.5262127,1.748046875
,51.5607191,1.7333984375
,51.5658549,1.7236328125
,51.5988566,1.7041015625
,51.6197721,1.6943359375
,51.6225922,1.669921875
,51.664141,1.66015625
,51.6645783,1.650390625
,51.6854371,1.640625
,51.7203225,1.6162109375
,51.7262696,1.611328125
,51.7454468,1.6015625
,51.7820549,1.5771484375
,51.78785,1.5673828125
,51.8032271,1.552734375
,51.850388,1.552734375
,51.8506373,1.5478515625
,51.8805083,1.5478515625
,51.8853862,1.5380859375
,51.921044,1.552734375
,51.9260584,1.5771484375
,51.9772045,1.6259765625
,51.9774573,1.6748046875
,51.9844197,1.7529296875
,52.0213237,1.796875
,52.0264865,1.8310546875
,52.0627443,1.865234375
,52.0654434,1.8701171875
,52.1009134,1.8798828125
,52.1058088,1.8798828125
,52.1411361,1.884765625
,52.1618649,1.865234375
,52.1648212,1.875
,52.2101051,1.8603515625
,52.2103555,1.85546875
,52.2250285,1.8359375
,52.2630152,1.8310546875
,52.2660602,1.8115234375
,52.2880894,1.806640625
,52.3068603,1.787109375
,52.3281728,1.7333984375
,52.3445536,1.6796875
,52.3810859,1.708984375
,52.3841103,1.71875
,52.4191327,1.7138671875
,52.4390813,1.708984375
,52.4463614,1.69921875
,52.4926419,1.6796875
,52.4929636,1.669921875
,52.5086845,1.669921875
,52.5255685,1.66015625
,52.5598722,1.66015625
,52.5665819,1.6552734375
,52.6011417,1.6455078125
,52.6058599,1.630859375
,52.6484373,1.630859375
,52.6486792,1.6162109375
,52.6700565,1.6064453125
,52.688221,1.6162109375
,52.7054221,1.6162109375
,52.7404675,1.6650390625
,52.7458802,1.7138671875
,52.7661825,1.7724609375
,52.806031,1.8017578125
,52.8062861,1.8359375
,52.842069,1.8505859375
,52.8617299,1.875
,52.8641183,1.875
,52.9152755,1.904296875
,52.9155239,1.9091796875
,52.9272442,1.9189453125
,52.9775272,1.904296875
,52.977921,1.8994140625
,52.9867414,1.875
,53.0393581,1.8701171875
,53.0396487,1.85546875
,53.0441102,1.8408203125
,53.0849623,1.8359375
,53.0852298,1.826171875
,53.1289971,1.81640625
,53.1292125,1.796875
,53.150531,1.77734375
,53.165865,1.748046875
,53.1994897,1.728515625
,53.2215315,1.708984375
,53.2284178,1.689453125
,53.2464751,1.66015625
,53.2835322,1.6552734375
,53.2855803,1.640625
,53.3299505,1.630859375
,53.3302874,1.62109375
,53.3467239,1.6064453125
,53.3912475,1.591796875
,53.3914682,1.5771484375
,53.4127116,1.5673828125
,53.4248477,1.5478515625
,53.4704613,1.5478515625
,53.4708202,1.5380859375
,53.4870253,1.5380859375
,53.508579,1.5380859375
,53.528552,1.58203125
,53.5634768,1.6162109375
,53.5679357,1.6748046875
,53.5854337,1.71875
,53.6253391,1.77734375
,53.6255599,1.806640625
,53.6706718,1.845703125
,53.6710469,1.8701171875
,53.6884134,1.8798828125
,53.7074094,1.8896484375
,53.7495243,1.884765625
,53.7498441,1.8798828125
,53.7645419,1.8603515625
,53.810575,1.8603515625
,53.8109257,1.8408203125
,53.8316649,1.8310546875
,53.8477592,1.806640625
,53.8679359,1.7919921875
,53.9184783,1.7724609375
,53.9186859,1.7578125
,53.9270395,1.7333984375
,53.9472513,1.728515625
,53.9679322,1.7236328125
,53.9870414,1.7041015625
,54.024904,1.689453125
,54.0270008,1.6748046875
,54.0641893,1.6748046875
,54.0667294,1.66015625
,54.1011114,1.650390625
,54.1230362,1.640625
,54.1309506,1.6259765625
,54.1455164,1.6064453125
,54.181966,1.6064453125
,54.20174,1.591796875
,54.2070847,1.5869140625
,54.2540593,1.572265625
,54.2544234,1.5576171875
,54.2758196,1.533203125
,54.2897071,1.5234375
,54.3277427,1.5234375
,54.3280355,1.5283203125
,54.3464937,1.5673828125
,54.3943895,1.62109375
,54.394716,1.6796875
,54.4078038,1.728515625
,54.4559363,1.7724609375
,54.4562115,1.8017578125
,54.4719812,1.8212890625
,54.4865905,1.8212890625
,54.5326392,1.8408203125
,54.5330295,1.8505859375
,54.5477152,1.8603515625
,54.5943751,1.8505859375
,54.5946012,1.8359375
,54.6158872,1.8310546875
,54.6310144,1.806640625
,54.6670918,1.796875
,54.6673726,1.7724609375
,54.6884737,1.77734375
,54.7085149,1.7578125
,54.751733,1.7529296875
,54.7520056,1.7333984375
,54.7684913,1.728515625
,54.8135933,1.708984375
,54.8138053,1.69921875
,54.825739,1.669921875
,54.8737455,1.6748046875
,54.8740286,1.6015625
,54.8937269,1.6162109375
,54.9088452,1.611328125
,54.9568468,1.62109375
,54.9571648,1.6162109375
,54.9692262,1.6015625
,55.0056471,1.591796875
,55.0346493,1.58203125
,55.0348519,1.572265625
,55.0477645,1.5625
,55.0683733,1.572265625
,55.1129989,1.572265625
,55.1132937,1.58203125
,55.132158,1.5966796875
,55.1503055,1.6357421875
,55.1855477,1.6796875
,55.1897775,1.73828125
,55.205857,1.7724609375
,55.2287565,1.81640625
,55.2498942,1.8603515625
,55.3000861,1.8798828125
,55.3004064,1.8994140625
,55.3111149,1.8994140625
,55.3299334,1.904296875
,55.3679719,1.8896484375
,55.3700298,1.8798828125
,55.388292,1.8505859375
,55.4082664,1.8505859375
,55.4444119,1.826171875
,55.4488588,1.8212890625
,55.4850701,1.8017578125
,55.4879467,1.7919921875
,55.5251058,1.77734375
,55.5307031,1.7626953125
,55.5461512,1.73828125
,55.5839924,1.73828125
,55.5888439,1.7333984375
,55.6239269,1.7138671875
,55.6290161,1.69921875
,55.6500431,1.6748046875
,55.6867453,1.66015625
,55.6893828,1.630859375
,55.711535,1.6162109375
,55.7313895,1.591796875
,55.7691104,1.5380859375
,55.769481,1.533203125
,55.7881418,1.54296875
,55.8256535,1.5380859375
,55.8309355,1.54296875
,55.8513188,1.5283203125
,55.8912579,1.5185546875
,55.891498,1.5185546875
,55.9257044,1.5185546875
,55.9466099,1.533203125
,55.9469285,1.5576171875
,55.9854887,1.62109375
,56.0057416,1.6748046875
,56.0113254,1.728515625
,56.0300596,1.767578125
,56.0804574,1.8017578125
,56.0808497,1.8212890625
,56.0916518,1.85546875
,56.1090815,1.865234375
,56.14655,1.884765625
,56.1467525,1.89453125
,56.1958903,1.89453125
,56.1963093,1.875
,56.2262036,1.8701171875
,56.2302494,1.8505859375
,56.271672,1.8212890625
,56.2719308,1.8017578125
,56.2895446,1.7822265625
,56.3254978,1.77734375
,56.3284654,1.7626953125
,56.3648101,1.7578125
,56.3705364,1.73828125
,56.4085493,1.7236328125
,56.4089447,1.7041015625
,56.4428465,1.6943359375
,56.4635899,1.669921875
,56.4686783,1.669921875
,56.5063224,1.6552734375
,56.5107915,1.6455078125
,56.550765,1.640625
,56.5511124,1.62109375
,56.5711092,1.62109375
,56.607149,1.6064453125
,56.629616,1.6015625
,56.6300151,1.58203125
,56.6676062,1.572265625
,56.6678527,1.552734375
,56.7021982,1.5576171875
,56.724539,1.552734375
,56.7316689,1.5673828125
,56.7694716,1.591796875
,56.7697187,1.650390625
,56.815308,1.69921875
,56.8157303,1.748046875
,56.8351118,1.7724609375
,56.8488793,1.8212890625
,56.8905347,1.8505859375
,56.8907754,1.865234375
,56.9368737,1.875
,56.9371546,1.8798828125
,56.9527178,1.8798828125
,56.9981551,1.8701171875
,56.9983962,1.8603515625
,57.0083001,1.8505859375
,57.0445275,1.8408203125
,57.0494185,1.8359375
,57.0850413,1.8310546875
,57.0901217,1.8212890625
,57.138709,1.81640625
,57.1389604,1.806640625
,57.1595124,1.796875
,57.1720013,1.796875
,57.2163234,1.7724609375
,57.2165704,1.7724609375
,57.230541,1.7578125
,57.2657839,1.7529296875
,57.2714007,1.73828125
,57.3081916,1.728515625
,57.3107722,1.7138671875
,57.3574765,1.7041015625
,57.3577232,1.6796875
,57.3786154,1.689453125
,57.388989,1.6748046875
,57.4249051,1.669921875
,57.4452726,1.66015625
,57.4509329,1.650390625
,57.4881656,1.630859375
,57.4924544,1.6357421875
,57.5293562,1.640625
,57.5347218,1.650390625
,57.5750191,1.689453125
,57.5753353,1.728515625
,57.5917553,1.787109375
,57.6375758,1.8310546875
,57.6378261,1.8701171875
,57.6530623,1.8896484375
,57.6710687,1.904296875
,57.7166698,1.9140625
,57.7173904,1.9140625
,57.7481465,1.9091796875
,57.7484775,1.9140625
,57.7931119,1.904296875
,57.793431,1.89453125
,57.813145,1.884765625
,57.8308565,1.8603515625
,57.865123,1.845703125
,57.8869573,1.8212890625
,57.893868,1.806640625
,57.9110905,1.77734375
,57.9485678,1.77734375
,57.9489408,1.7626953125
,57.9965614,1.7578125
,57.9969538,1.73828125
,58.0273342,1.7236328125
,58.0341209,1.69921875
,58.0741008,1.6796875
,58.0743109,1.66015625
,58.0898211,1.6552734375
,58.1131882,1.640625
,58.1319507,1.650390625
,58.1815995,1.650390625
,58.181854,1.640625
,58.1929931,1.630859375
,58.2139318,1.611328125
,58.2496553,1.6064453125
,58.2543796,1.591796875
,58.2731184,1.54296875
,58.3071243,1.494140625
,58.3103572,1.533203125
,58.3472713,1.5771484375
,58.366974,1.6357421875
,58.3743037,1.689453125
,58.4102068,1.748046875
,58.4148086,1.7919921875
,58.4642676,1.826171875
,58.4646788,1.85546875
,58.4697192,1.8603515625
,58.5055791,1.884765625
,58.5260363,1.89453125
,58.5332325,1.9140625
,58.5533346,1.904296875
,58.5894459,1.904296875
,58.5927806,1.884765625
,58.6365133,1.8701171875
,58.6368382,1.85546875
,58.6521421,1.8603515625
,58.6993084,1.845703125
,58.6997091,1.8359375
,58.7137207,1.81640625
,58.7340205,1.8017578125
,58.7536418,1.77734375
,58.7881818,1.7626953125
,58.8081276,1.748046875
,58.8105785,1.7236328125
,58.8564449,1.71875
,58.8567756,1.7041015625
,58.8860729,1.69921875
,58.8924571,1.6845703125
,58.927978,1.6748046875
,58.9484665,1.66015625
,58.9542943,1.650390625
,58.9708662,1.6259765625
,59.0051905,1.6259765625
,59.0269857,1.611328125
,59.032037,1.6064453125
,59.0759346,1.5869140625
,59.0762241,1.5771484375
,59.12303,1.572265625
,59.12328,1.5625
,59.1348108,1.5869140625
,59.1855427,1.6162109375
,59.1859523,1.669921875
,59.1929077,1.708984375
,59.2312088,1.7626953125
,59.231463,1.787109375
,59.2687665,1.8115234375
,59.2737295,1.8212890625
,59.3240224,1.8310546875
,59.3243175,1.8212890625
,59.3348842,1.826171875
,59.3521318,1.81640625
,59.3863242,1.8212890625
,59.4064147,1.806640625
,59.4138151,1.8115234375
,59.4660196,1.8017578125
,59.4664532,1.787109375
,59.4757891,1.7822265625
,59.5125033,1.7626953125
,59.5171607,1.7626953125
,59.5319892,1.748046875
,59.5760301,1.7529296875
,59.5764419,1.748046875
,59.5937453,1.73828125
,59.6279268,1.7236328125
,59.6483181,1.708984375
,59.6547356,1.69921875
,59.6914475,1.689453125
,59.6920344,1.669921875
,59.730697,1.6650390625
,59.7336845,1.6650390625
,59.7695148,1.650390625
,59.7746001,1.6455078125
,59.8110557,1.6259765625
,59.8154701,1.6259765625
,59.8509903,1.6064453125
,59.8566945,1.6015625
,59.872943,1.58203125
,59.9080671,1.6015625
,59.9134555,1.62109375
,59.9507027,1.669921875
,59.9554673,1.708984375
,59.9895979,1.7578125
,59.9940719,1.7822265625
,60.0288293,1.806640625
,60.0497781,1.81640625
,60.0554831,1.8359375
,60.0925052,1.845703125
,60.0929123,1.8408203125
,60.1265761,1.8505859375
,60.1472164,1.845703125
,60.1547059,1.8359375
,60.1763097,1.8310546875
,60.2109478,1.8359375
,60.2156506,1.8310546875
,60.2583583,1.8212890625
,60.2586004,1.806640625
,60.2737375,1.806640625
,60.3213802,1.8017578125
,60.3216406,1.8017578125
,60.3360806,1.787109375
,60.3857799,1.7822265625
,60.3861754,1.77734375
,60.3955056,1.7578125
,60.4335755,1.748046875
,60.4338496,1.728515625
,60.4636676,1.7333984375
,60.475736,1.71875
,60.4950023,1.708984375
,60.5401845,1.6943359375
,60.5405031,1.6845703125
,60.5561861,1.6748046875
,60.5941661,1.66015625
,60.5945652,1.640625
,60.6299437,1.640625
,60.6356748,1.6357421875
,60.6803561,1.630859375
,60.6806742,1.62109375
,60.6948932,1.640625
,60.7294658,1.6748046875
,60.7503061,1.708984375
,60.7573315,1.7529296875
,60.772806,1.7822265625
,60.8103749,1.8212890625
,60.8154671,1.787109375
,60.8348544,1.8310546875
,60.8801996,1.8505859375
,60.8806161,1.8701171875
,60.9014318,1.8701171875
,60.9175909,1.865234375
,60.9576301,1.85546875
,60.9578811,1.845703125
,60.9734719,1.8212890625
,61.0196036,1.81640625
,61.0199493,1.806640625
,61.0411149,1.787109375
,61.056161,1.77734375
,61.0770488,1.7578125
,61.1113263,1.7431640625
,61.1166631,1.71875
,61.1526931,1.7041015625
,61.1530777,1.6796875
,61.1900116,1.6748046875
,61.1944349,1.66015625
,61.2307233,1.650390625
,61.2363134,1.630859375
,61.2724125,1.62109375
,61.276679,1.6015625
,61.3118596,1.58203125
,61.3121071,1.5625
,61.3331573,1.5625
,61.3830022,1.5576171875
,61.3833999,1.5380859375
,61.3953342,1.5380859375
,61.4435261,1.5234375
,61.4437725,1.513671875
,61.455557,1.494140625
,61.4905196,1.4892578125
,61.5111233,1.494140625
,61.5135146,1.54296875
,61.5540987,1.5869140625
,61.5846855,1.6357421875
,61.5849409,1.6748046875
,61.5959677,1.7138671875
,61.6466261,1.7333984375
,61.6471808,1.748046875
,61.6591731,1.7626953125
,61.6794679,1.7578125
,61.7235236,1.7236328125
,61.7237825,1.728515625
,61.7347941,1.7431640625
,61.7703732,1.7431640625
,61.7903175,1.73828125
,61.7972003,1.728515625
,61.847753,1.7236328125
,61.8483149,1.708984375
,61.8596946,1.708984375
,61.8765233,1.689453125
,61.9119767,1.69921875
,61.916723,1.689453125
,61.9556685,1.6845703125
,61.9559575,1.6650390625
,62.0018886,1.6650390625
,62.002129499999995,1.6552734375
,62.018315400000006,1.6357421875
,62.0660087,1.6259765625
,62.066400900000005,1.611328125
,62.096273100000005,1.6162109375
,62.0966851,1.611328125
,62.11888690000001,1.6064453125
,62.1353965,1.5966796875
,62.173138800000004,1.591796875
,62.2056644,1.58203125
,62.206057400000006,1.5771484375
,62.2148868,1.572265625
,62.267312700000005,1.6064453125
,62.26774090000001,1.6259765625
,62.2752545,1.6552734375
,62.3139238,1.7138671875
,62.3183494,1.7529296875
,62.340020300000006,1.8017578125
,62.3590559,1.826171875
,62.396690899999996,1.8701171875
,62.397197500000004,1.875
,62.4156512,1.9091796875
,62.4356404,1.9189453125
,62.470416900000004,1.9287109375
,62.4911051,1.9287109375
,62.4972992,1.9384765625
,62.546013200000004,1.923828125
,62.546405899999996,1.9140625
,62.5577052,1.89453125
,62.590558599999994,1.875
,62.612459099999995,1.8505859375
,62.6178577,1.8603515625
,62.6542096,1.8505859375
,62.658678800000004,1.8310546875
,62.6771222,1.81640625
,62.713983799999994,1.796875
,62.719642300000004,1.77734375
,62.7397201,1.7578125
,62.7595731,1.7529296875
,62.7766958,1.7333984375
,62.823088299999995,1.728515625
,62.8236919,1.7138671875
,62.838586899999996,1.7041015625
,62.878645199999994,1.6796875
,62.879045899999994,1.6748046875
,62.925819700000005,1.66015625
,62.926212199999995,1.640625
,62.9401328,1.6357421875
,62.9581323,1.611328125
,63.002663600000005,1.611328125
,63.0029045,1.6064453125
,63.017267399999994,1.6064453125
,63.0644284,1.5966796875
,63.0647302,1.6015625
,63.0789707,1.6162109375
,63.125073799999996,1.66015625
,63.125396300000006,1.69921875
,63.135873399999994,1.7626953125
,63.1712608,1.8017578125
,63.1779178,1.8359375
,63.214628700000006,1.8505859375
,63.2172717,1.8701171875
,63.252508199999994,1.8701171875
,63.273169100000004,1.8994140625
,63.27831380000001,1.904296875
,63.296491599999996,1.89453125
,63.330528,1.8994140625
,63.351196599999994,1.8896484375
,63.356851899999995,1.8798828125
,63.3911547,1.85546875
,63.413734000000005,1.845703125
,63.421855699999995,1.826171875
,63.4397077,1.81640625
,63.4827641,1.7919921875
,63.4830092,1.7724609375
,63.5038655,1.7529296875
,63.51880559999999,1.7578125
,63.5619286,1.7431640625
,63.5621821,1.728515625
,63.5776336,1.7236328125
,63.626333200000005,1.708984375
,63.626723999999996,1.6845703125
,63.657616899999994,1.6650390625
,63.662802400000004,1.6455078125
,63.677614899999995,1.6259765625
,63.6979159,1.62109375
,63.7324744,1.6064453125
,63.736534899999995,1.6015625
,63.7740905,1.5771484375
,63.780723800000004,1.5771484375
,63.82745559999999,1.5576171875
,63.8282801,1.5478515625
,63.835178400000004,1.5283203125
,63.871312599999996,1.5234375
,63.8914906,1.5234375
,63.8995812,1.5478515625
,63.933711,1.591796875
,63.939545300000006,1.630859375
,63.9743811,1.6796875
,63.9793978,1.71875
,64.0147233,1.748046875
,64.0149626,1.7724609375
,64.0566179,1.8017578125
,64.0568652,1.8212890625
,64.0772396,1.8359375
,64.1195677,1.8408203125
,64.1198157,1.8359375
,64.1415044,1.8212890625
,64.1624451,1.806640625
,64.1761126,1.7919921875
,64.2142502,1.7822265625
,64.2437045,1.728515625
,64.2439704,1.6796875
,64.2586368,1.69921875
,64.2961154,1.7138671875
,64.2983182,1.73828125
,64.3386251,1.728515625
,64.3388749,1.728515625
,64.3609589,1.7138671875
,64.4009391,1.7041015625
,64.4011855,1.6796875
,64.4173617,1.6845703125
,64.453136,1.6748046875
,64.4579892,1.6748046875
,64.4953428,1.66015625
,64.4998863,1.650390625
,64.535817,1.630859375
,64.5414839,1.640625
,64.5769992,1.6259765625
,64.5772439,1.611328125
,64.6198169,1.6162109375
,64.6200745,1.611328125
,64.6393355,1.6064453125
,64.6761497,1.6015625
,64.681546,1.6162109375
,64.7301828,1.650390625
,64.7304371,1.689453125
,64.7370418,1.7431640625
,64.7765434,1.796875
,64.7800862,1.8408203125
,64.8003326,1.8798828125
,64.819183,1.904296875
,64.8546923,1.9189453125
,64.8759984,1.9384765625
,64.8813816,1.9287109375
,64.9168726,1.9189453125
,64.9172947,1.904296875
,64.9532115,1.9091796875
,64.9790214,1.884765625
,64.9792661,1.875
,65.0271132,1.85546875
,65.0274302,1.8408203125
,65.0415483,1.81640625
,65.0785439,1.8115234375
,65.0813841,1.787109375
,65.1024725,1.728515625
,65.1180336,1.71875
,65.1380052,1.71875
,65.1807854,1.7041015625
,65.1810259,1.708984375
,65.2106486,1.69921875
,65.2224283,1.6748046875
,65.2738091,1.66015625
,65.2740975,1.6357421875
,65.2829895,1.62109375
,65.3004046,1.6015625
,65.3354298,1.611328125
,65.3387493,1.6064453125
,65.3804034,1.5966796875
,65.3806587,1.5869140625
,65.4166368,1.572265625
,65.4211973,1.552734375
,65.4572272,1.5478515625
,65.4575342,1.533203125
,65.4774748,1.5576171875
,65.5136518,1.6064453125
,65.5343964,1.6455078125
,65.5410442,1.7041015625
,65.5774736,1.73828125
,65.5817772,1.7822265625
,65.6302658,1.8017578125
,65.6305072,1.8310546875
,65.6398526,1.8408203125
,65.6740935,1.865234375
,65.6787658,1.875
,65.7147657,1.8896484375
,65.7342188,1.884765625
,65.741655,1.875
,65.7838029,1.85546875
,65.7840443,1.8359375
,65.7986403,1.8115234375
,65.8340757,1.8212890625
,65.8538853,1.81640625
,65.8625675,1.8017578125
,65.8806918,1.787109375
,65.926559,1.7626953125
,65.9269678,1.7578125
,65.9431476,1.73828125
,65.9847589,1.7236328125
,65.984999,1.6943359375
,66.0298481,1.6748046875
,66.0301007,1.6552734375
,66.0403289,1.6455078125
,66.0604832,1.630859375
,66.0963493,1.6259765625
,66.1231437,1.611328125
,66.1234402,1.5966796875
,66.1572751,1.591796875
,66.1611683,1.5625
,66.2017327,1.5478515625
,66.2021277,1.5283203125
,66.2317234,1.5283203125
,66.2419014,1.513671875
,66.2778161,1.5087890625
,66.2805694,1.4990234375
,66.3158988,1.5185546875
,66.3368221,1.552734375
,66.3419292,1.6162109375
,66.3590759,1.6650390625
,66.3954242,1.73828125
,66.4009746,1.77734375
,66.4217381,1.81640625
,66.46413,1.8310546875
,66.4644002,1.8603515625
,66.4821713,1.8701171875
,66.5177805,1.8701171875
,66.5227551,1.8701171875
,66.5394176,1.865234375
,66.5754198,1.865234375
,66.5950237,1.8603515625
,66.601907,1.8603515625
,66.6520565,1.8505859375
,66.6523821,1.8408203125
,66.663271,1.8310546875
,66.6978511,1.8115234375
,66.6981037,1.796875
,66.7337363,1.8017578125
,66.7540433,1.787109375
,66.7612448,1.7724609375
,66.8069067,1.7578125
,66.8071627,1.728515625
,66.8221247,1.708984375
,66.8575079,1.6845703125
,66.8800929,1.6796875
,66.8853369,1.650390625
,66.9207931,1.630859375
,66.9211658,1.6064453125
,66.9554038,1.611328125
,66.9620665,1.591796875
,67.0086149,1.5966796875
,67.0088699,1.572265625
,67.0250161,1.5625
,67.0723551,1.54296875
,67.0728266,1.5380859375
,67.0789761,1.5283203125
,67.1144561,1.5869140625
,67.1340788,1.640625
,67.1404094,1.689453125
,67.1810207,1.73828125
,67.2016048,1.77734375
,67.2046496,1.806640625
,67.2240309,1.826171875
,67.2586168,1.845703125
,67.291541,1.85546875
,67.2918877,1.875
,67.3031344,1.8798828125
,67.3540098,1.8798828125
,67.3542533,1.8701171875
,67.3630765,1.875
,67.398093,1.85546875
,67.4053724,1.8408203125
,67.424724,1.8310546875
,67.4405463,1.806640625
,67.4762664,1.8017578125
,67.49637,1.7919921875
,67.5019505,1.7822265625
,67.5443396,1.7626953125
,67.5447438,1.748046875
,67.5632922,1.728515625
,67.5849989,1.708984375
,67.6046337,1.6845703125
,67.6247554,1.640625
,67.6428551,1.5869140625
,67.6804136,1.611328125
,67.680713,1.62109375
,67.7182777,1.6259765625
,67.7391401,1.6162109375
,67.7438383,1.6259765625
,67.7649098,1.6162109375
,67.8086844,1.5966796875
,67.8089919,1.58203125
,67.8227622,1.5625
,67.8591646,1.5576171875
,67.8618961,1.5478515625
,67.8958638,1.5673828125
,67.9167659,1.5869140625
,67.9238717,1.6357421875
,67.9594675,1.6845703125
,67.9796279,1.7431640625
,67.9815444,1.787109375
,68.0177539,1.8408203125
,68.0232761,1.8701171875
,68.0597624,1.8994140625
,68.0639329,1.923828125
,68.1016576,1.923828125
,68.1323104,1.923828125
,68.1326888,1.9140625
,68.145278,1.9140625
,68.1621049,1.89453125
,68.1986364,1.89453125
,68.2038484,1.884765625
,68.239766,1.8701171875
,68.2441866,1.85546875
,68.2812477,1.845703125
,68.2818501,1.81640625
,68.335843,1.8017578125
,68.3361235,1.77734375
,68.3427642,1.7626953125
,68.3791306,1.7431640625
,68.3843095,1.748046875
,68.4278513,1.7431640625
,68.4281985,1.7236328125
,68.4457334,1.708984375
,68.4894458,1.6796875
,68.4896906,1.66015625
,68.505357,1.6455078125
,68.5383608,1.630859375
,68.5597628,1.611328125
,68.5625591,1.6064453125
,68.5976873,1.5966796875
,68.6185344,1.58203125
,68.6232936,1.572265625
,68.6625752,1.5673828125
,68.6659978,1.5576171875
,68.7095566,1.5478515625
,68.709814,1.552734375
,68.7235079,1.5576171875
,68.7734615,1.6015625
,68.7738747,1.650390625
,68.7862,1.71875
,68.83403,1.7578125
,68.8343281,1.8017578125
,68.8463202,1.826171875
,68.880908,1.85546875
,68.901994,1.865234375
,68.9028765,1.8994140625
,68.9439516,1.9091796875
,68.9442226,1.9140625
,68.9796031,1.9091796875
,68.9993391,1.8994140625
,69.0059625,1.875
,69.042397,1.8701171875
,69.0449651,1.85546875
,69.0614006,1.8310546875
,69.0961675,1.8212890625
,69.115706,1.8115234375
,69.1238792,1.796875
,69.1606811,1.77734375
,69.1640197,1.767578125
,69.2068779,1.73828125
,69.2072716,1.71875
,69.2272826,1.6943359375
,69.2446392,1.6796875
,69.2645271,1.669921875
,69.285176,1.6552734375
,69.3217061,1.640625
,69.3263337,1.6259765625
,69.3623946,1.611328125
,69.3677631,1.591796875
,69.411027,1.58203125
,69.4112662,1.5673828125
,69.4282562,1.572265625
,69.4440376,1.5576171875
,69.479192,1.5625
,69.4997639,1.5576171875
,69.5059748,1.572265625
,69.5511938,1.591796875
,69.5514422,1.650390625
,69.5656179,1.6943359375
,69.6017156,1.7529296875
,69.6050298,1.7919921875
,69.6392748,1.8359375
,69.6440546,1.865234375
,69.6652115,1.904296875
,69.6987081,1.9287109375
,69.7196536,1.9384765625
,69.7250495,1.9384765625
,69.7594637,1.9287109375
,69.7839113,1.9140625
,69.7841573,1.884765625
,69.8184864,1.875
,69.8382072,1.85546875
,69.8454146,1.8359375
,69.8815919,1.8115234375
,69.8848506,1.796875
,69.9243573,1.77734375
,69.9455165,1.77734375
,69.9459878,1.7578125
,69.9665104,1.7626953125
,69.9854396,1.7626953125
,70.0198347,1.7529296875
,70.0248483,1.73828125
,70.0618463,1.7138671875
,70.0646969,1.69921875
,70.1076519,1.669921875
,70.1080462,1.6455078125
,70.1388528,1.62109375
,70.1485063,1.611328125
,70.164657,1.5380859375
,70.2002798,1.5576171875
,70.2053399,1.5625
,70.2449272,1.5673828125
,70.2451688,1.5625
,70.2652581,1.5673828125
,70.3085247,1.5625
,70.3087932,1.58203125
,70.3285425,1.6259765625
,70.3457956,1.6552734375
,70.3802697,1.7236328125
,70.3858507,1.7724609375
,70.4209896,1.8212890625
,70.4271654,1.8603515625
,70.4660894,1.904296875
,70.4663312,1.9384765625
,70.501679,1.97265625
,70.5220707,1.982421875
,70.5249706,2.0068359375
,70.5617158,2.0068359375
,70.5662861,2.01171875
,70.6012614,1.9921875
,70.6063691,1.97265625
,70.6542692,1.9580078125
,70.6545141,1.93359375
,70.6856778,1.9091796875
,70.6860696,1.8798828125
,70.7047084,1.875
,70.7425131,1.85546875
,70.7476657,1.8359375
,70.792661,1.806640625
,70.7929109,1.787109375
,70.8087599,1.7578125
,70.8559849,1.73828125
,70.8563033,1.708984375
,70.8644101,1.7041015625
,70.9021555,1.6845703125
,70.9221631,1.669921875
,70.9263399,1.6455078125
,70.9467321,1.640625
,70.9815576,1.62109375
,71.0025331,1.6064453125
,71.0077367,1.591796875
,71.0289629,1.5771484375
,71.0635872,1.5185546875
,71.0840265,1.5185546875
,71.0866019,1.5380859375
,71.10626,1.572265625
,71.1548167,1.6259765625
,71.1552111,1.6796875
,71.1690632,1.73828125
,71.215156,1.787109375
,71.2154072,1.8408203125
,71.2251158,1.8603515625
,71.262026,1.89453125
,71.2816708,1.9287109375
,71.287352,1.93359375
,71.3060011,1.943359375
,71.3428453,1.9384765625
,71.3720602,1.943359375
,71.3723072,1.923828125
,71.3908975,1.9091796875
,71.4064031,1.8798828125
,71.4528005,1.8798828125
,71.4530405,1.865234375
,71.4723121,1.8701171875
,71.4880876,1.8505859375
,71.5307091,1.8359375
,71.5310361,1.8115234375
,71.5498723,1.796875
,71.5664622,1.7626953125
,71.6075606,1.7626953125
,71.607799,1.7529296875
,71.627358,1.728515625
,71.6618974,1.7138671875
,71.6670503,1.69921875
,71.7142108,1.6748046875
,71.7144886,1.66015625
,71.7356677,1.650390625
,71.7456629,1.6259765625
,71.79161,1.62109375
,71.7920084,1.6064453125
,71.8073347,1.5966796875
,71.8519369,1.58203125
,71.8521815,1.572265625
,71.8680093,1.5673828125
,71.9033379,1.5869140625
,71.9073277,1.6455078125
,71.9451741,1.6845703125
,71.965747,1.7431640625
,71.9661428,1.787109375
,72.0069453,1.8505859375
,72.0073474,1.8896484375
,72.0285676,1.9287109375
,72.049088,1.943359375
,72.1008279,1.962890625
,72.1011375,1.9677734375
,72.1095984,1.97265625
,72.1261683,1.953125
,72.1478684,1.9482421875
,72.193738,1.9384765625
,72.1941333,1.923828125
,72.2099296,1.8994140625
,72.2553567,1.89453125
,72.2555957,1.884765625
,72.2694522,1.85546875
,72.3184257,1.8359375
,72.3189457,1.8115234375
,72.3286158,1.8017578125
,72.348377,1.77734375
,72.3837646,1.767578125
,72.3895373,1.7431640625
,72.426965,1.71875
,72.4273561,1.689453125
,72.4737133,1.669921875
,72.4739575,1.640625
,72.503904,1.650390625
,72.5068687,1.6357421875
,72.5494199,1.6259765625
,72.5496648,1.62109375
,72.5830816,1.6015625
,72.5892922,1.5869140625
,72.6247887,1.5673828125
,72.629064,1.5625
,72.6472614,1.552734375
,72.6885691,1.58203125
,72.6888913,1.6259765625
,72.7182299,1.689453125
,72.7301279,1.7431640625
,72.7803616,1.806640625
,72.7806047,1.8408203125
,72.7909839,1.884765625
,72.8268644,1.8994140625
,72.8300266,1.923828125
,72.8459939,1.93359375
,72.8809988,1.9677734375
,72.901611,1.9775390625
,72.9095483,1.9677734375
,72.930288,1.9580078125
,72.964336,1.93359375
,72.9699207,1.9140625
,73.0055204,1.8896484375
,73.0306234,1.8701171875
,73.0308871,1.8505859375
,73.0492408,1.845703125
,73.0918543,1.8212890625
,73.0921102,1.796875
,73.108052,1.767578125
,73.1436676,1.748046875
,73.1640151,1.7138671875
,73.1714702,1.6943359375
,73.2181414,1.6748046875
,73.2184365,1.6455078125
,73.2290934,1.640625
,73.264478,1.62109375
,73.2698127,1.6162109375
,73.3112521,1.5966796875
,73.3115522,1.5869140625
,73.3316824,1.5625
,73.3669957,1.5478515625
,73.3673995,1.5283203125
,73.3875431,1.5283203125
,73.4212781,1.5234375
,73.4413558,1.54296875
,73.4504906,1.5673828125
,73.4972672,1.6259765625
,73.4976686,1.6796875
,73.5107877,1.7578125
,73.5466663,1.806640625
,73.5762115,1.8359375
,73.5764585,1.8310546875
,73.5880417,1.826171875
,73.6250843,1.875
,73.629637,1.8994140625
,73.6660978,1.9189453125
,73.6691645,1.9189453125
,73.7187106,1.9091796875
,73.7189506,1.8896484375
,73.7502742,1.865234375
,73.7506609,1.8408203125
,73.7698383,1.8359375
,73.812825,1.81640625
,73.8130643,1.8115234375
,73.8312706,1.8017578125
,73.8681861,1.7724609375
,73.873271,1.7626953125
,73.8921834,1.728515625
,73.9276102,1.7138671875
,73.9278628,1.6845703125
,73.9629494,1.6748046875
,73.9827111,1.6552734375
,73.9884408,1.640625
,74.0238324,1.611328125
,74.0433694,1.6064453125
,74.0503374,1.5869140625
,74.0916231,1.5771484375
,74.0919309,1.5576171875
,74.1118549,1.5576171875
,74.1285264,1.54296875
,74.170181,1.5380859375
,74.1704286,1.54296875
,74.2065552,1.5576171875
,74.2115965,1.5966796875
,74.2482974,1.640625
,74.2530267,1.6845703125
,74.2693182,1.728515625
,74.2893792,1.7822265625
,74.3245284,1.8212890625
,74.3295371,1.8505859375
,74.3664911,1.8603515625
,74.3714176,1.8603515625
,74.4181594,1.8603515625
,74.4185263,1.85546875
,74.4325558,1.8359375
,74.4679629,1.7724609375
,74.4744581,1.7724609375
,74.490209,1.748046875
,74.5284934,1.7431640625
,74.5288865,1.73828125
,74.5749748,1.7431640625
,74.5753757,1.7333984375
,74.605972,1.71875
,74.6129316,1.69921875
,74.6529886,1.6845703125
,74.653233,1.66015625
,74.6706291,1.6552734375
,74.7162234,1.6357421875
,74.71662,1.6259765625
,74.7329627,1.6064453125
,74.7520837,1.5869140625
,74.7943731,1.5625
,74.7947681,1.5576171875
,74.8129982,1.5478515625
,74.8307941,1.5283203125
,74.8656504,1.533203125
,74.8704763,1.5185546875
,74.891933,1.513671875
,74.9271494,1.494140625
,74.9326046,1.4892578125
,74.9524154,1.4892578125
,74.9733702,1.5234375
,74.9896826,1.5576171875
,75.008664,1.6162109375
,75.0442228,1.66015625
,75.0640188,1.71875
,75.0711173,1.748046875
,75.1182838,1.7724609375
,75.1186027,1.7919921875
,75.1325958,1.7919921875
,75.167446,1.787109375
,75.1696666,1.7724609375
,75.2132418,1.7724609375
,75.2136309,1.7626953125
,75.2321916,1.7578125
,75.2740009,1.7431640625
,75.2742863,1.7333984375
,75.306283,1.71875
,75.3136005,1.708984375
,75.3543565,1.69921875
,75.3547617,1.689453125
,75.3713859,1.6748046875
,75.4153995,1.669921875
,75.4156402,1.6552734375
,75.4321496,1.6552734375
,75.4770514,1.650390625
,75.4773724,1.630859375
,75.4938133,1.62109375
,75.5289732,1.5966796875
,75.5490405,1.58203125
,75.5494316,1.5673828125
,75.5865941,1.5771484375
,75.6164199,1.572265625
,75.616801,1.5673828125
,75.6337186,1.5576171875
,75.652513,1.5478515625
,75.6933453,1.533203125
,75.6937564,1.54296875
,75.7145058,1.552734375
,75.7303316,1.6015625
,75.7649874,1.6650390625
,75.7862946,1.7138671875
,75.7931603,1.7578125
,75.8284327,1.787109375
,75.8337097,1.81640625
,75.8823858,1.826171875
,75.8827861,1.8408203125
,75.892898,1.8408203125
,75.9124942,1.85546875
,75.9605305,1.8505859375
,75.9609315,1.8505859375
,75.9719934,1.8310546875
,76.0216108,1.81640625
,76.0221795,1.787109375
,76.0415607,1.767578125
,76.0487694,1.73828125
,76.0841098,1.748046875
,76.1146307,1.73828125
,76.1149098,1.6748046875
,76.1329429,1.6748046875
,76.1780123,1.669921875
,76.1784532,1.66015625
,76.1927184,1.640625
,76.2315183,1.6259765625
,76.2319228,1.6064453125
,76.2707487,1.591796875
,76.3009535,1.572265625
,76.3012029,1.5673828125
,76.3126685,1.5625
,76.3479988,1.5625
,76.3541786,1.552734375
,76.3748423,1.54296875
,76.4249441,1.5380859375
,76.4253366,1.5185546875
,76.4355705,1.513671875
,76.4521739,1.4990234375
,76.4862448,1.5283203125
,76.5067869,1.5576171875
,76.5117856,1.611328125
,76.5485172,1.650390625
,76.5680796,1.7041015625
,76.5748216,1.73828125
,76.6091694,1.787109375
,76.6296266,1.806640625
,76.6329175,1.8505859375
,76.6513078,1.8603515625
,76.6854237,1.875
,76.7055924,1.865234375
,76.712777,1.875
,76.746723,1.8603515625
,76.7688999,1.8408203125
,76.7759778,1.8212890625
,76.7921526,1.8017578125
,76.8307998,1.7919921875
,76.8311601,1.7822265625
,76.8699079,1.77734375
,76.8723571,1.7578125
,76.9066209,1.748046875
,76.9268305,1.728515625
,76.9338519,1.708984375
,76.9548652,1.6845703125
,76.9765472,1.6259765625
,76.9935442,1.572265625
,77.0340564,1.5869140625
,77.0346575,1.5966796875
,77.0525196,1.5869140625
,77.0880877,1.58203125
,77.1085939,1.572265625
,77.1149163,1.5771484375
,77.1502522,1.5576171875
,77.155515,1.5576171875
,77.1722881,1.533203125
,77.206302,1.5380859375
,77.2276578,1.533203125
,77.2327257,1.54296875
,77.2693764,1.552734375
,77.274889,1.5966796875
,77.2967705,1.640625
,77.3171044,1.6943359375
,77.3319666,1.7236328125
,77.366592,1.787109375
,77.3870215,1.81640625
,77.3948092,1.8359375
,77.4392521,1.845703125
,77.4396451,1.845703125
,77.4557154,1.845703125
,77.5001893,1.8359375
,77.5005017,1.826171875
,77.5131932,1.8115234375
,77.5616568,1.8115234375
,77.5620532,1.8017578125
,77.5745436,1.796875
,77.6216451,1.77734375
,77.6218945,1.7822265625
,77.6343444,1.7724609375
,77.6853392,1.767578125
,77.6857342,1.7578125
,77.7151245,1.7431640625
,77.7153745,1.73828125
,77.7629236,1.7333984375
,77.7633158,1.728515625
,77.7744956,1.71875
,77.8105266,1.708984375
,77.8157353,1.6943359375
,77.8498067,1.6748046875
,77.8707569,1.650390625
,77.8778548,1.6357421875
,77.8940544,1.6064453125
,77.9342138,1.6015625
,77.9344519,1.5869140625
,77.9854572,1.58203125
,77.9858565,1.5576171875
,77.996735,1.5625
,78.0323354,1.572265625
,78.0369581,1.5966796875
,78.0735556,1.640625
,78.0738858,1.6845703125
,78.1252541,1.7431640625
,78.1255682,1.7919921875
,78.1357592,1.8359375
,78.1568741,1.85546875
,78.1779969,1.8798828125
,78.2127326,1.884765625
,78.2179286,1.89453125
,78.2346696,1.89453125
,78.2793495,1.904296875
,78.2796689,1.89453125
,78.2946554,1.884765625
,78.3293024,1.8798828125
,78.3502853,1.85546875
,78.3551812,1.8408203125
,78.3900709,1.826171875
,78.4108235,1.8212890625
,78.414244,1.796875
,78.450422,1.7919921875
,78.4538359,1.77734375
,78.4984548,1.767578125
,78.4988548,1.7431640625
,78.5146486,1.7333984375
,78.5506781,1.7041015625
,78.5753924,1.6943359375
,78.5758015,1.669921875
,78.6226326,1.6650390625
,78.6230219,1.640625
,78.6342436,1.66015625
,78.6682855,1.66015625
,78.689334,1.6455078125
,78.6954371,1.6357421875
,78.7317968,1.6259765625
,78.7596778,1.6162109375
,78.7599224,1.6015625
,78.7940521,1.591796875
,78.7944564,1.5869140625
,78.8301253,1.6162109375
,78.8357628,1.6650390625
,78.8847019,1.71875
,78.8849489,1.767578125
,78.8957863,1.826171875
,78.9467692,1.85546875
,78.9470102,1.884765625
,78.9581869,1.9189453125
,78.9741689,1.9189453125
,79.0242812,1.9384765625
,79.0245253,1.9384765625
,79.0352123,1.943359375
,79.0552133,1.923828125
,79.0937392,1.9091796875
,79.098978,1.884765625
,79.1496967,1.8701171875
,79.1499462,1.8505859375
,79.1561248,1.85546875
,79.1749603,1.8408203125
,79.2090682,1.8310546875
,79.2299713,1.8115234375
,79.236967,1.8017578125
,79.2882615,1.7724609375
,79.2884984,1.7578125
,79.2976257,1.73828125
,79.3148295,1.708984375
,79.350325,1.69921875
,79.3805372,1.6845703125
,79.3807846,1.6748046875
,79.3951993,1.650390625
,79.4328516,1.640625
,79.4351045,1.62109375
,79.4702572,1.6064453125
,79.4914336,1.591796875
,79.4941537,1.5869140625
,79.5297932,1.5771484375
,79.5513292,1.5771484375
,79.5557643,1.5625
,79.590473,1.5576171875
,79.611204,1.58203125
,79.6175712,1.6162109375
,79.6635525,1.66015625
,79.6639552,1.7138671875
,79.678896,1.77734375
,79.6959373,1.806640625
,79.730832,1.85546875
,79.7355558,1.875
,79.7709561,1.89453125
,79.7910644,1.8994140625
,79.7985151,1.9140625
,79.8341675,1.904296875
,79.8373818,1.8994140625
,79.8562788,1.884765625
,79.8977776,1.884765625
,79.8980834,1.8701171875
,79.9170656,1.8798828125
,79.9586287,1.8701171875
,79.9588754,1.8505859375
,79.994358,1.845703125
,79.9974006,1.826171875
,80.0384006,1.8115234375
,80.0387975,1.7919921875
,80.0573967,1.787109375
,80.0755817,1.767578125
,80.1101285,1.7578125
,80.1301185,1.73828125
,80.1389573,1.7236328125
,80.172866,1.69921875
,80.1770285,1.6943359375
,80.1953682,1.6748046875
,80.2384512,1.6748046875
,80.2388612,1.6748046875
,80.2593339,1.6650390625
,80.2763101,1.650390625
,80.317843,1.630859375
,80.3182376,1.62109375
,80.3483711,1.6015625
,80.3604926,1.6064453125
,80.3801655,1.611328125
,80.4154636,1.6064453125
,80.4157808,1.66015625
,80.4530997,1.7431640625
,80.4572614,1.7919921875
,80.5040297,1.8505859375
,80.5042744,1.875
,80.5190812,1.904296875
,80.5683878,1.9091796875
,80.5686309,1.923828125
,80.58116,1.923828125
,80.5961214,1.9091796875
,80.6320039,1.9091796875
,80.6379412,1.904296875
,80.6738198,1.8994140625
,80.6780792,1.8896484375
,80.7224867,1.8896484375
,80.7227338,1.8798828125
,80.756234,1.865234375
,80.7566161,1.85546875
,80.8013957,1.845703125
,80.8017326,1.826171875
,80.8167026,1.806640625
,80.8647597,1.787109375
,80.8650238,1.767578125
,80.878132,1.7578125
,80.9150028,1.7333984375
,80.9204815,1.71875
,80.9385622,1.6943359375
,80.9753522,1.69921875
,80.9757727,1.6796875
,81.013055,1.669921875
,81.0179862,1.6552734375
,81.069233,1.640625
,81.0697048,1.6162109375
,81.1004741,1.611328125
,81.1007893,1.58203125
,81.1174506,1.5869140625
,81.1619734,1.572265625
,81.1623583,1.5771484375
,81.1785329,1.58203125
,81.224186,1.6357421875
,81.2245523,1.6943359375
,81.2406033,1.73828125
,81.260729,1.787109375
,81.296388,1.8212890625
,81.2992749,1.8505859375
,81.3165853,1.865234375
,81.3493029,1.8896484375
,81.3696824,1.9091796875
,81.3770564,1.9189453125
,81.424367,1.9140625
,81.424607,1.8994140625
,81.4439506,1.884765625
,81.4598492,1.875
,81.4773638,1.85546875
,81.4963216,1.8505859375
,81.534678,1.8505859375
,81.564404,1.8310546875
,81.5647235,1.8212890625
,81.5804372,1.796875
,81.6258236,1.787109375
,81.6260745,1.7578125
,81.6403009,1.7333984375
,81.6565154,1.7041015625
,81.7041003,1.69921875
,81.7044714,1.6845703125
,81.7348943,1.6845703125
,81.7402759,1.6650390625
,81.7587902,1.650390625
,81.7961236,1.630859375
,81.8172127,1.611328125
,81.8176042,1.591796875
,81.8522082,1.5869140625
,81.8563892,1.58203125
,81.8916132,1.5625
,81.9127384,1.552734375
,81.9211817,1.533203125
,81.9408767,1.5185546875
,81.9779297,1.50390625
,81.9825622,1.5185546875
,81.9970049,1.5380859375
,82.0318756,1.591796875
,82.0527478,1.6455078125
,82.0581013,1.7041015625
,82.1045267,1.7333984375
,82.1050748,1.7724609375
,82.1202461,1.7919921875
,82.1544626,1.806640625
,82.1743152,1.826171875
,82.1816018,1.826171875
,82.217715,1.8212890625
,82.2181225,1.8115234375
,82.2592119,1.81640625
,82.2594544,1.806640625
,82.2805556,1.806640625
,82.3011639,1.787109375
,82.3348315,1.7822265625
,82.355997,1.7626953125
,82.3629836,1.748046875
,82.378564,1.7333984375
,82.4141936,1.728515625
,82.418869,1.71875
,82.4537453,1.708984375
,82.4746296,1.689453125
,82.4803677,1.689453125
,82.5265143,1.6796875
,82.5271186,1.6552734375
,82.5412958,1.650390625
,82.5585889,1.630859375
,82.6055049,1.6357421875
,82.6058993,1.6259765625
,82.6347968,1.6259765625
,82.6396121,1.6064453125
,82.6748184,1.591796875
,82.6799854,1.5771484375
,82.71566,1.5625
,82.7358531,1.552734375
,82.7393132,1.572265625
,82.7589091,1.58203125
,82.8078257,1.6162109375
,82.8082188,1.669921875
,82.8377951,1.708984375
,82.8406662,1.7578125
,82.8752282,1.7919921875
,82.8957935,1.826171875
,82.9039596,1.8359375
,82.9229522,1.8115234375
,82.9393906,1.7822265625
,82.9734733,1.8310546875
,82.981683,1.8505859375
,83.0157042,1.875
,83.0226534,1.8701171875
,83.0417009,1.865234375
,83.0631116,1.8505859375
,83.098285,1.8408203125
,83.0985247,1.81640625
,83.1340978,1.8212890625
,83.1540954,1.8212890625
,83.1591368,1.8017578125
,83.1928044,1.7822265625
,83.2149036,1.767578125
,83.2226145,1.748046875
,83.25978,1.7236328125
,83.2641251,1.708984375
,83.2803703,1.6845703125
,83.321198,1.6748046875
,83.3214421,1.669921875
,83.3586127,1.6552734375
,83.3588881,1.6455078125
,83.4001875,1.630859375
,83.4004265,1.611328125
,83.4212459,1.591796875
,83.4596919,1.5869140625
,83.4600259,1.5625
,83.4966495,1.5625
,83.501331,1.5478515625
,83.5357414,1.552734375
,83.5419463,1.5380859375
,83.5792104,1.552734375
,83.5838569,1.5625
,83.6036839,1.6015625
,83.6180841,1.630859375
,83.6535006,1.6943359375
,83.6742021,1.7333984375
,83.6797399,1.77734375
,83.7168109,1.796875
,83.7215838,1.826171875
,83.7560465,1.8310546875
,83.7760472,1.85546875
,83.7829294,1.8701171875
,83.8172195,1.8603515625
,83.8378682,1.85546875
,83.8405698,1.8359375
,83.8760654,1.8310546875
,83.8808054,1.81640625
,83.918184,1.8115234375
,83.9223304,1.787109375
,83.9441254,1.7724609375
,83.9633257,1.7529296875
,83.9854351,1.7333984375
,84.0023507,1.708984375
,84.0202548,1.708984375
,84.0554148,1.6943359375
,84.0863831,1.6796875
,84.0867311,1.6650390625
,84.1012756,1.6455078125
,84.1408656,1.62109375
,84.1416582,1.5966796875
,84.1799226,1.5869140625
,84.180256,1.5576171875
,84.2018595,1.5576171875
,84.222542,1.5478515625
,84.2436145,1.54296875
,84.2643943,1.5283203125
,84.2831409,1.5283203125
,84.320225,1.513671875
,84.3255747,1.50390625
,84.3409079,1.494140625
,84.3610045,1.4990234375
,84.3821695,1.50390625
,84.4016812,1.54296875
,84.4221166,1.5869140625
,84.4601279,1.6259765625
,84.460423,1.669921875
,84.5068745,1.69921875
,84.5071681,1.728515625
,84.521152,1.73828125
,84.5418893,1.767578125
,84.562017,1.77734375
,84.5832652,1.787109375
,84.6029142,1.7822265625
,84.6388055,1.7822265625
,84.6434384,1.767578125
,84.6643851,1.767578125
,84.7092137,1.748046875
,84.7096387,1.73828125
,84.7241964,1.7333984375
,84.7417522,1.71875
,84.7768871,1.7236328125
,84.8004563,1.7236328125
,84.8007165,1.7333984375
,84.8493441,1.7138671875
,84.8496231,1.708984375
,84.8646125,1.689453125
,84.9002995,1.6796875
,84.9007076,1.6650390625
,84.9353986,1.6650390625
,84.9562421,1.650390625
,84.9632163,1.640625
,84.9831358,1.6259765625
,85.033993,1.62109375
,85.0342355,1.6015625
,85.042802,1.6064453125
,85.078691,1.5966796875
,85.0983222,1.5771484375
,85.1009142,1.58203125
,85.1364023,1.5771484375
,85.1608029,1.58203125
,85.1613728,1.58203125
,85.2000655,1.6015625
,85.2030199,1.630859375
,85.2379953,1.6748046875
,85.2592587,1.7138671875
,85.2614907,1.7626953125
,85.3016861,1.796875
,85.3020923,1.8310546875
,85.323149,1.8505859375
,85.3650231,1.8603515625
,85.3653387,1.8798828125
,85.4010618,1.8701171875
,85.403718,1.865234375
,85.4214053,1.8505859375
,85.4570559,1.8603515625
,85.4629928,1.7919921875
,85.4986241,1.806640625
,85.504863,1.806640625
,85.540058,1.806640625
,85.5428917,1.7919921875
,85.5795849,1.7919921875
,85.5866313,1.767578125
,85.6060405,1.7529296875
,85.6225353,1.728515625
,85.6571997,1.7236328125
,85.6631159,1.708984375
,85.6980745,1.69921875
,85.7258038,1.6845703125
,85.7261712,1.6552734375
,85.7452769,1.6455078125
,85.7663747,1.630859375
,85.8018633,1.6162109375
,85.8022802,1.6015625
,85.8400773,1.6064453125
,85.8429566,1.5966796875
,85.8843267,1.591796875
,85.8846068,1.58203125
,85.913906,1.572265625
,85.9242874,1.5576171875
,85.9758128,1.552734375
,85.9760553,1.5478515625
,85.9812191,1.5673828125
,86.0188974,1.6259765625
,86.0241081,1.66015625
,86.071423,1.7138671875
,86.0718078,1.748046875
,86.0855769,1.796875
,86.1335952,1.8115234375
,86.1339624,1.8359375
,86.1426556,1.8408203125
,86.1933852,1.8701171875
,86.1938582,1.8798828125
,86.2050195,1.89453125
,86.2392575,1.8798828125
,86.2441991,1.8701171875
,86.2648993,1.8505859375
,86.3020514,1.8359375
,86.3043865,1.81640625
,86.3400573,1.767578125
,86.3467132,1.7333984375
,86.3632276,1.6943359375
,86.4128481,1.7236328125
,86.4130894,1.7333984375
,86.442629,1.73828125
,86.4455407,1.7236328125
,86.4639909,1.7236328125
,86.5028547,1.69921875
,86.5084065,1.6845703125
,86.524743,1.6650390625
,86.5431822,1.6552734375
,86.5828944,1.640625
,86.5833268,1.6357421875
,86.6036778,1.62109375
,86.6390347,1.6064453125
,86.6602979,1.6015625
,86.6672269,1.5771484375
,86.6872567,1.5625
,86.7043066,1.54296875
,86.7424008,1.54296875
,86.7478616,1.5283203125
,86.7649064,1.5185546875
,86.8057274,1.5087890625
,86.8062176,1.5185546875
,86.8412077,1.533203125
,86.868514,1.5869140625
,86.8689105,1.640625
,86.8853361,1.708984375
,86.9308484,1.7578125
,86.9312589,1.8017578125
,86.9455297,1.826171875
,86.9923752,1.85546875
,86.9927124,1.865234375
,87.0076805,1.865234375
,87.0263604,1.8701171875
,87.043922,1.8603515625
,87.0858575,1.8701171875
,87.0860969,1.865234375
,87.1061528,1.865234375
,87.1423888,1.85546875
,87.1470344,1.845703125
,87.1657224,1.8310546875
,87.2013442,1.8212890625
,87.2209525,1.8017578125
,87.2259427,1.7919921875
,87.2441095,1.7626953125
,87.2785689,1.7626953125
,87.2988062,1.7626953125
,87.3048383,1.73828125
,87.3487651,1.728515625
,87.3490067,1.708984375
,87.3703527,1.7041015625
,87.3887705,1.6845703125
,87.4281656,1.669921875
,87.4284449,1.650390625
,87.4449794,1.650390625
,87.4906197,1.6357421875
,87.4910446,1.630859375
,87.5054883,1.611328125
,87.5405252,1.6064453125
,87.567253,1.591796875
,87.5675148,1.5869140625
,87.5850176,1.5673828125
,87.6296778,1.58203125
,87.6300643,1.5966796875
,87.6458552,1.6162109375
,87.6930807,1.6552734375
,87.69332,1.69921875
,87.7074191,1.748046875
,87.7410963,1.7822265625
,87.7621468,1.81640625
,87.7650988,1.8408203125
,87.8012583,1.865234375
,87.8042895,1.884765625
,87.8378968,1.8994140625
,87.8587175,1.9091796875
,87.8665032,1.9189453125
,87.9133159,1.9140625
,87.9135563,1.904296875
,87.9279639,1.9091796875
,87.9449975,1.884765625
,87.9900163,1.884765625
,87.9902538,1.875
,88.0060539,1.8701171875
,88.0522878,1.8505859375
,88.0525465,1.8408203125
,88.0692931,1.81640625
,88.0875748,1.796875
,88.1304594,1.7724609375
,88.1307401,1.7626953125
,88.144588,1.73828125
,88.1923185,1.7333984375
,88.1925185,1.71875
,88.2074269,1.7138671875
,88.2270645,1.689453125
,88.2626219,1.6796875
,88.2858212,1.6650390625
,88.2862275,1.6455078125
,88.3323171,1.6259765625
,88.332566,1.611328125
,88.3630226,1.611328125
,88.3664066,1.6015625
,88.404169,1.5966796875
,88.4070768,1.591796875
,88.4587701,1.5869140625
,88.4591763,1.6015625
,88.4879425,1.630859375
,88.488185,1.6748046875
,88.5041953,1.73828125
,88.5414569,1.7822265625
,88.5467871,1.826171875
,88.5979302,1.8701171875
,88.5982984,1.8896484375
,88.6080318,1.9091796875
,88.6295723,1.9189453125
,88.6643085,1.9287109375
,88.664714,1.9287109375
,88.6998523,1.9384765625
,88.7200807,1.9287109375
,88.7245567,1.923828125
,88.7618918,1.904296875
,88.7883552,1.884765625
,88.7887506,1.865234375
,88.834181,1.8505859375
,88.8344296,1.826171875
,88.8439743,1.826171875
,88.8798474,1.806640625
,88.9007354,1.8212890625
,88.9058228,1.81640625
,88.9443705,1.796875
,88.9745801,1.7822265625
,88.9749763,1.7626953125
,88.9879596,1.7431640625
,89.0250188,1.7236328125
,89.0294476,1.708984375
,89.0460693,1.6845703125
,89.0846575,1.6748046875
,89.0871005,1.6650390625
,89.1082337,1.650390625
,89.1438998,1.630859375
,89.1469305,1.6259765625
,89.1822597,1.6064453125
,89.203049,1.5966796875
,89.2105087,1.591796875
,89.2270344,1.572265625
,89.262034,1.572265625
,89.2885031,1.5673828125
,89.288892,1.5869140625
,89.3247827,1.611328125
,89.3269018,1.6552734375
,89.3615525,1.6943359375
,89.381534,1.748046875
,89.3861565,1.7822265625
,89.4212029,1.8408203125
,89.4268685,1.8701171875
,89.4627765,1.89453125
,89.4679029,1.9091796875
,89.4877253,1.923828125
,89.5253454,1.923828125
,89.5296506,1.9287109375
,89.5695105,1.923828125
,89.5697981,1.8994140625
,89.5870628,1.89453125
,89.6058368,1.875
,89.6494725,1.865234375
,89.6498113,1.845703125
,89.6800632,1.8359375
,89.6894834,1.8115234375
,89.7260168,1.7919921875
,89.730676,1.767578125
,89.7517496,1.7041015625
,89.7668529,1.6552734375
,89.8028975,1.6748046875
,89.8076458,1.6748046875
,89.850146,1.6748046875
,89.8505759,1.6796875
,89.8683612,1.66015625
,89.9031853,1.650390625
,89.9235324,1.640625
,89.9311747,1.6357421875
,89.9470455,1.62109375
,89.9818515,1.6259765625
,90.0039248,1.62109375
,90.0095051,1.62109375
,90.045155,1.6015625
,90.0476003,1.6015625
,90.0833405,1.5771484375
,90.1166977,1.572265625
,90.1171206,1.5625
,90.1280923,1.591796875
,90.1617848,1.630859375
,90.1678565,1.6943359375
,90.2060425,1.748046875
,90.2107339,1.7919921875
,90.229911,1.8359375
,90.2655869,1.85546875
,90.2699893,1.884765625
,90.3036146,1.8994140625
,90.3064582,1.9287109375
,90.3270018,1.943359375
,90.3638644,1.9482421875
,90.3846012,1.943359375
,90.3896022,1.93359375
,90.4253076,1.9140625
,90.4310093,1.9091796875
,90.4474734,1.8896484375
,90.483966,1.884765625
,90.486775,1.8896484375
,90.5231732,1.865234375
,90.528731,1.8505859375
,90.5473697,1.81640625
,90.5832641,1.796875
,90.603914,1.767578125
,90.6096645,1.748046875
,90.6614571,1.71875
,90.6617991,1.7041015625
,90.669955,1.6748046875
,90.6889945,1.6748046875
,90.7254187,1.66015625
,90.7569537,1.6552734375
,90.7572757,1.6357421875
,90.7708355,1.6259765625
,90.8050229,1.6015625
,90.8264744,1.591796875
,90.8317336,1.5771484375
,90.8487292,1.5576171875
,90.8836083,1.5576171875
,90.8887747,1.552734375
,90.9243456,1.5625
,90.9299168,1.5869140625
,90.9714174,1.6455078125
,90.9716628,1.708984375
,90.9901433,1.7724609375
,91.0078839,1.8212890625
,91.0502776,1.875
,91.0505685,1.9140625
,91.0693661,1.953125
,91.1061439,1.962890625
,91.110858,1.9775390625
,91.1585145,1.9921875
,91.1587575,1.9775390625
,91.1707511,1.9677734375
,91.1885516,1.9482421875
,91.2228067,1.953125
,91.2294018,1.93359375
,91.2670425,1.9189453125
,91.2718015,1.8994140625
,91.307518,1.8896484375
,91.3080538,1.865234375
,91.359484,1.8505859375
,91.3597325,1.826171875
,91.3806373,1.8212890625
,91.3879648,1.8017578125
,91.4234556,1.7919921875
,91.4442056,1.7626953125
,91.4497022,1.7578125
,91.4853243,1.73828125
,91.5070239,1.7138671875
,91.5118288,1.689453125
,91.5482046,1.66015625
,91.5531115,1.640625
,91.5696763,1.611328125
,91.6055593,1.6064453125
,91.60894,1.5869140625
,91.6453449,1.58203125
,91.650393,1.5625
,91.6878481,1.552734375
,91.6923463,1.533203125
,91.7115559,1.5380859375
,91.7289228,1.5380859375
,91.777953,1.572265625
,91.7782035,1.6357421875
,91.7896483,1.6796875
,91.8413662,1.7431640625
,91.8417603,1.77734375
,91.8708125,1.826171875
,91.8710951,1.8505859375
,91.9055948,1.884765625
,91.9261515,1.89453125
,91.9290353,1.923828125
,91.9655599,1.9384765625
,91.9702285,1.9482421875
,91.9913773,1.943359375
,92.026862,1.93359375
,92.0307987,1.9189453125
,92.0664769,1.8994140625
,92.0667245,1.8701171875
,92.088746,1.865234375
,92.13751,1.85546875
,92.1379466,1.8359375
,92.1503115,1.81640625
,92.1868217,1.7919921875
,92.1912989,1.77734375
,92.2117918,1.7529296875
,92.262997,1.7333984375
,92.2637112,1.7138671875
,92.2731104,1.6552734375
,92.289049,1.611328125
,92.3242666,1.630859375
,92.3454828,1.630859375
,92.3501436,1.630859375
,92.3870941,1.6162109375
,92.4075428,1.6064453125
,92.4125736,1.6064453125
,92.4506913,1.5869140625
,92.4511125,1.5771484375
,92.495543,1.5576171875
,92.4957921,1.5673828125
,92.5113457,1.5625
,92.5441648,1.5771484375
,92.5647701,1.6015625
,92.5719727,1.650390625
,92.6097998,1.689453125
,92.6119853,1.748046875
,92.6474565,1.7822265625
,92.6477015,1.8359375
,92.6821144,1.865234375
,92.704138,1.8994140625
,92.7113399,1.904296875
,92.7626613,1.9287109375
,92.7630956,1.93359375
,92.7742131,1.9287109375
,92.7950457,1.9140625
,92.8110258,1.89453125
,92.8303012,1.884765625
,92.8651614,1.8701171875
,92.8859953,1.85546875
,92.890484,1.8408203125
,92.9294682,1.8212890625
,92.9302107,1.8017578125
,92.9669422,1.7822265625
,92.9866155,1.7626953125
,92.9896221,1.7724609375
,93.0243283,1.7626953125
,93.0557003,1.7529296875
,93.0559429,1.748046875
,93.071951,1.7236328125
,93.1078253,1.7041015625
,93.1288489,1.6796875
,93.1340819,1.669921875
,93.1692577,1.6455078125
,93.1748227,1.6259765625
,93.1892679,1.6064453125
,93.2231032,1.611328125
,93.2424995,1.5966796875
,93.2519567,1.5966796875
,93.3047139,1.5771484375
,93.3054335,1.5771484375
,93.3132608,1.5673828125
,93.3497119,1.58203125
,93.3500428,1.611328125
,93.3859276,1.6796875
,93.4125497,1.73828125
,93.4129144,1.7822265625
,93.4596587,1.8212890625
,93.4600105,1.8505859375
,93.4735024,1.8701171875
,93.5090069,1.884765625
,93.5369966,1.904296875
,93.5374067,1.9091796875
,93.5508422,1.9189453125
,93.58672,1.9091796875
,93.5918094,1.89453125
,93.6277993,1.8798828125
,93.6330794,1.865234375
,93.6759354,1.8408203125
,93.6762402,1.826171875
,93.6950457,1.8115234375
,93.710307,1.7919921875
,93.7460463,1.7822265625
,93.7663504,1.7724609375
,93.7714425,1.7626953125
,93.8149172,1.73828125
,93.8152539,1.71875
,93.8354896,1.6943359375
,93.8527679,1.6845703125
,93.8895177,1.6552734375
,93.8898578,1.6552734375
,93.938789,1.6357421875
,93.9390268,1.6259765625
,93.9597385,1.611328125
,93.9731804,1.6015625
,94.018352,1.5771484375
,94.0185955,1.58203125
,94.0358227,1.5771484375
,94.0694943,1.5625
,94.0738806,1.552734375
,94.1099071,1.533203125
,94.1102893,1.54296875
,94.1588824,1.54296875
,94.159125,1.5625
,94.1757057,1.6015625
,94.1942169,1.6552734375
,94.2136984,1.69921875
,94.2500741,1.748046875
,94.2503566,1.77734375
,94.2871743,1.826171875
,94.3069587,1.8505859375
,94.3127261,1.875
,94.3475841,1.884765625
,94.3681083,1.8896484375
,94.3733001,1.8896484375
,94.425094,1.875
,94.4253352,1.8603515625
,94.4458307,1.8359375
,94.4531285,1.8310546875
,94.490475,1.81640625
,94.4949483,1.806640625
,94.5308326,1.787109375
,94.5332645,1.7822265625
,94.5690766,1.7578125
,94.5893116,1.7431640625
,94.5918877,1.7236328125
,94.6287584,1.71875
,94.6339118,1.69921875
,94.6761157,1.6845703125
,94.6763556,1.6748046875
,94.6944503,1.650390625
,94.7391878,1.6357421875
,94.7395155,1.6162109375
,94.755574,1.5966796875
,94.7734224,1.58203125
,94.8177548,1.58203125
,94.8180588,1.5771484375
,94.8349841,1.5625
,94.8548537,1.5478515625
,94.8894878,1.5380859375
,94.8937816,1.5234375
,94.9317716,1.513671875
,94.9340189,1.4990234375
,94.9704646,1.50390625
,94.9928441,1.54296875
,94.9932361,1.5771484375
,95.0379075,1.640625
,95.0381481,1.69921875
,95.0541402,1.7626953125
,95.0997585,1.796875
,95.100184,1.8359375
,95.1180723,1.8505859375
,95.1361351,1.865234375
,95.1541335,1.8603515625
,95.188375,1.884765625
,95.1938133,1.8798828125
,95.2282994,1.8798828125
,95.2355475,1.8701171875
,95.271762,1.85546875
,95.2737761,1.826171875
,95.3096986,1.8359375
,95.3298715,1.8212890625
,95.3327764,1.806640625
,95.365883,1.8017578125
,95.3863575,1.796875
,95.3938782,1.7822265625
,95.4425886,1.767578125
,95.4428405,1.7578125
,95.4627428,1.7431640625
,95.4758602,1.7236328125
,95.4935772,1.708984375
,95.5412327,1.69921875
,95.5415496,1.689453125
,95.5543692,1.6845703125
,95.605558,1.6748046875
,95.6059236,1.66015625
,95.6170149,1.66015625
,95.6538413,1.6357421875
,95.6541823,1.6162109375
,95.699935,1.5966796875
,95.7002381,1.552734375
,95.7153965,1.50390625
,95.7621761,1.533203125
,95.7624247,1.552734375
,95.7746304,1.5966796875
,95.8253536,1.6357421875
,95.8256007,1.6943359375
,95.8455972,1.7333984375
,95.8566851,1.77734375
,95.8737183,1.796875
,95.9171096,1.8310546875
,95.9173515,1.845703125
,95.937804,1.875
,95.9713249,1.8896484375
,95.9757237,1.8896484375
,96.0127846,1.884765625
,96.015272,1.8798828125
,96.0578868,1.865234375
,96.0582751,1.8505859375
,96.0784921,1.85546875
,96.0942628,1.845703125
,96.1290849,1.8408203125
,96.1491742,1.826171875
,96.156941,1.8115234375
,96.1982723,1.7919921875
,96.1985198,1.787109375
,96.2140416,1.7626953125
,96.260429,1.7529296875
,96.2608273,1.748046875
,96.2745589,1.7333984375
,96.3109384,1.7138671875
,96.3160545,1.6943359375
,96.3508636,1.6845703125
,96.3721195,1.6650390625
,96.3768621,1.650390625
,96.3944802,1.630859375
,96.4318521,1.6357421875
,96.4320928,1.6259765625
,96.4694573,1.62109375
,96.4905057,1.6064453125
,96.4959048,1.5966796875
,96.5414427,1.58203125
,96.5418328,1.572265625
,96.5587204,1.5478515625
,96.5784338,1.5576171875
,96.6130289,1.572265625
,96.6132669,1.591796875
,96.636828,1.6455078125
,96.6840275,1.689453125
,96.6842778,1.73828125
,96.6982331,1.7724609375
,96.7352719,1.806640625
,96.7356886,1.8212890625
,96.7698663,1.8408203125
,96.7908037,1.845703125
,96.7957216,1.865234375
,96.8164742,1.8701171875
,96.8513045,1.884765625
,96.8581591,1.8701171875
,96.90087,1.85546875
,96.9011313,1.8505859375
,96.9170461,1.826171875
,96.9533107,1.8115234375
,96.9536828,1.796875
,96.9732097,1.796875
,97.0073078,1.7822265625
,97.0283341,1.7724609375
,97.0357986,1.7529296875
,97.0734061,1.7431640625
,97.0951039,1.7236328125
,97.0996681,1.728515625
,97.1162905,1.708984375
,97.1673804,1.7041015625
,97.1677797,1.6943359375
,97.176364,1.6845703125
,97.1981671,1.66015625
,97.2340799,1.6552734375
,97.2385844,1.640625
,97.2885241,1.6259765625
,97.2887747,1.6064453125
,97.2947645,1.591796875
,97.3301109,1.5869140625
,97.3497844,1.5771484375
,97.3566916,1.572265625
,97.3990697,1.5576171875
,97.3994796,1.552734375
,97.4176207,1.5576171875
,97.4535074,1.5869140625
,97.4586964,1.62109375
,97.5071334,1.6748046875
,97.5075154,1.708984375
,97.5161134,1.7529296875
,97.5540146,1.796875
,97.5848877,1.8115234375
,97.5851308,1.826171875
,97.5981656,1.8310546875
,97.6472681,1.85546875
,97.647665,1.8505859375
,97.6596635,1.8505859375
,97.6757894,1.8359375
,97.7107807,1.8408203125
,97.7302018,1.826171875
,97.7369469,1.826171875
,97.7713571,1.8115234375
,97.7921615,1.806640625
,97.7973229,1.7919921875
,97.8317797,1.7822265625
,97.8523768,1.7578125
,97.8540715,1.767578125
,97.8928643,1.7578125
,97.8983418,1.73828125
,97.9425593,1.7236328125
,97.9428121,1.7138671875
,97.9592128,1.6943359375
,98.0059919,1.6796875
,98.0062462,1.669921875
,98.0164107,1.6552734375
,98.0686344,1.650390625
,98.0690295,1.6455078125
,98.0774849,1.6357421875
,98.1132965,1.6259765625
,98.1185689,1.6259765625
,98.1564318,1.611328125
,98.1567012,1.6064453125
,98.2064918,1.6015625
,98.2066888,1.5869140625
,98.227607,1.6064453125
,98.2370776,1.591796875
,98.2867651,1.66015625
,98.2871565,1.71875
,98.3169805,1.77734375
,98.3172995,1.8115234375
,98.3519227,1.8505859375
,98.3718716,1.865234375
,98.379741,1.884765625
,98.396285,1.8994140625
,98.4322986,1.9189453125
,98.4375943,1.9287109375
,98.4715852,1.93359375
,98.4916333,1.9140625
,98.4987708,1.9140625
,98.537294,1.8994140625
,98.5376136,1.8798828125
,98.5739899,1.865234375
,98.5950081,1.845703125
,98.5977873,1.8359375
,98.6344362,1.8212890625
,98.6369463,1.81640625
,98.6599975,1.7919921875
,98.6952141,1.77734375
,98.6997058,1.7529296875
,98.7340646,1.7333984375
,98.7543288,1.708984375
,98.7566302,1.7041015625
,98.7923971,1.6845703125
,98.7971064,1.6748046875
,98.8478805,1.6650390625
,98.8482738,1.650390625
,98.877847,1.6357421875
,98.8780925,1.6162109375
,98.9254515,1.6064453125
,98.9257063,1.5869140625
,98.9465531,1.591796875
,98.9585772,1.58203125
,98.9777614,1.5771484375
,99.0127424,1.5625
,99.0346403,1.5673828125
,99.0395928,1.58203125
,99.0600006,1.6162109375
,99.081526,1.6552734375
,99.1012257,1.66015625
,99.1159125,1.66015625
,99.1581056,1.7578125
,99.1585002,1.8212890625
,99.2042295,1.8603515625
,99.2045642,1.89453125
,99.2202574,1.9140625
,99.267666,1.9287109375
,99.2680599,1.9287109375
,99.2983448,1.93359375
,99.2985925,1.9189453125
,99.334512,1.9140625
,99.3398186,1.8994140625
,99.3909493,1.884765625
,99.3915382,1.865234375
,99.4004778,1.85546875
,99.4363857,1.8310546875
,99.4391631,1.806640625
,99.4763196,1.7919921875
,99.4989271,1.7578125
,99.4993245,1.7529296875
,99.5450495,1.7333984375
,99.5454401,1.728515625
,99.5586986,1.7041015625
,99.5952529,1.689453125
,99.600598,1.6650390625
,99.6372431,1.6455078125
,99.6377152,1.62109375
,99.6862309,1.6259765625
,99.6866299,1.611328125
,99.7000089,1.6015625
,99.7487547,1.58203125
,99.7490874,1.5673828125
,99.7600658,1.5380859375
,99.796703,1.533203125
,99.8011711,1.5185546875
,99.8173662,1.4990234375
,99.8560248,1.50390625
,99.8579369,1.513671875
,99.8932811,1.5478515625
,99.9144595,1.591796875
