fs,t,y
53.57909492989544,0.4944153,0.9033203125
,0.5359132999999998,1.0791015625
,0.5362920999999998,1.3720703125
,0.5570179,1.7626953125
,0.5765316999999999,2.1240234375
,0.6151754,2.44140625
,0.6157132000000001,2.65625
,0.6347480999999999,2.8173828125
,0.6537077999999998,2.890625
,0.6748818999999999,2.8857421875
,0.6952145999999999,2.8125
,0.7152658999999999,2.67578125
,0.7497197999999998,2.509765625
,0.7719374999999999,2.3291015625
,0.7765418999999998,2.1533203125
,0.7935462000000002,2.0166015625
,0.8288272000000001,1.904296875
,0.8344564999999999,1.8212890625
,0.8716423999999998,1.748046875
,0.8753367000000001,1.6845703125
,0.8952391999999998,1.6162109375
,0.9417526999999999,1.5380859375
,0.9592858,1.455078125
,0.9598583999999999,1.357421875
,0.9745438000000002,1.25
,0.9929743000000002,1.30859375
,1.0432525,1.1767578125
,1.0521943999999999,0.9912109375
,1.0573978,1.015625
,1.0934539,0.9716796875
,1.0961349999999999,0.7373046875
,1.1137424,0.46875
,1.1401618,0.3369140625
,1.1550072,0.5712890625
,1.1738091000000002,1.171875
,1.2196296000000002,1.5283203125
,1.2202872999999999,1.962890625
,1.2349671,2.5048828125
,1.283805,2.7099609375
,1.2843243000000002,2.9345703125
,1.2959757,3.0419921875
,1.3313631,2.9833984375
,1.3595552999999998,2.8759765625
,1.3600671000000002,2.724609375
,1.3732793,2.5439453125
,1.4112548,2.36328125
,1.4148303000000002,2.1875
,1.4366474999999999,2.0458984375
,1.4851882,1.943359375
,1.4857778000000001,1.865234375
,1.5143791000000002,1.8017578125
,1.5147555000000001,1.748046875
,1.5623054,1.6943359375
,1.5626685,1.6259765625
,1.593257,1.5478515625
,1.5936607999999999,1.4697265625
,1.629328,1.3818359375
,1.6509893,1.2841796875
,1.6556893000000001,1.787109375
,1.6936266,1.62109375
,1.6942346000000001,1.3427734375
,1.7313310999999998,1.103515625
,1.7338425000000002,0.9033203125
,1.7699452999999998,0.7666015625
,1.7760553,0.8056640625
,1.8146081,1.0400390625
,1.8167395000000002,1.376953125
,1.838882,1.7724609375
,1.8534153,2.1142578125
,1.8913399000000002,2.4072265625
,1.8947055000000002,2.5927734375
,1.9345045,2.7197265625
,1.9352307,2.75390625
,1.9696756,3.2666015625
,1.9909499,3.0908203125
,1.9984047,2.8759765625
,2.0478249999999996,2.5390625
,2.0497445,2.8369140625
,2.0578931999999996,2.578125
,2.0754298,2.2509765625
,2.110791,2.0166015625
,2.1305408999999997,1.85546875
,2.1355396000000004,1.728515625
,2.1722963999999996,1.6259765625
,2.1937441,1.533203125
,2.1988581,1.4453125
,2.2188945999999996,1.9287109375
,2.2657095,1.767578125
,2.2664193,1.4990234375
,2.2756903,1.2841796875
,2.2969106999999997,1.708984375
,2.3172252,1.484375
,2.3367695,1.1474609375
,2.3888432,0.8984375
,2.3892881,0.849609375
,2.3999245,1.044921875
,2.4153703,1.3671875
,2.4530548999999997,2.3779296875
,2.4556886,2.685546875
,2.4759811999999997,2.8369140625
,2.5107519,2.939453125
,2.5322445,2.998046875
,2.5392129,2.9833984375
,2.5583302000000003,2.9248046875
,2.5933159000000003,2.802734375
,2.5936828,2.6318359375
,2.6302811999999998,2.44140625
,2.6355671000000003,2.2265625
,2.6697430000000004,2.0654296875
,2.6912691000000004,1.93359375
,2.6991449000000003,1.8359375
,2.7190687000000002,1.7578125
,2.7397111,1.69921875
,2.7585691,1.650390625
,2.7807058,1.591796875
,2.7954578999999997,1.533203125
,2.8307355000000003,1.4697265625
,2.8519254,1.396484375
,2.8575692000000004,1.3037109375
,2.8786680999999996,1.1962890625
,2.8986966,1.083984375
,2.9194581,0.95703125
,2.9399921000000004,0.83984375
,2.9598546,0.771484375
,2.9773129999999997,0.8642578125
,3.0121751999999997,1.1474609375
,3.0168047,1.513671875
,3.0538736999999996,1.9189453125
,3.0595046999999997,2.255859375
,3.0783382,2.529296875
,3.1140339,2.7001953125
,3.1189862,2.7978515625
,3.1363233,2.8125
,3.1693410999999996,2.7685546875
,3.1900917,2.6513671875
,3.1973087,2.4951171875
,3.2483595000000003,2.3046875
,3.2489559000000003,2.1240234375
,3.2588318999999997,1.962890625
,3.2946511000000003,1.8408203125
,3.3154021,1.7431640625
,3.3159140999999996,1.6748046875
,3.3413804000000003,1.6162109375
,3.3571521000000004,1.54296875
,3.3782927999999997,1.494140625
,3.3991876999999997,1.435546875
,3.4190519000000004,1.3623046875
,3.4564655999999996,1.2841796875
,3.4611557,1.1865234375
,3.4804944000000004,1.083984375
,3.5173727,0.9619140625
,3.5211043999999996,0.8349609375
,3.5388725,0.7080078125
,3.5753638,0.6787109375
,3.5784513999999996,0.849609375
,3.6162855,1.1865234375
,3.6187975000000003,1.572265625
,3.6558992999999997,1.982421875
,3.6598550000000003,2.2900390625
,3.7012568000000003,2.5341796875
,3.7016787000000004,2.67578125
,3.7168108,2.75390625
,3.7532572999999996,2.744140625
,3.7590589000000003,2.67578125
,3.8079995999999996,2.5341796875
,3.8086027,2.34375
,3.8195843,2.1435546875
,3.8395314999999997,1.9677734375
,3.8765283999999998,1.8115234375
,3.8770566000000004,1.6943359375
,3.8983488,1.6064453125
,3.9330685,1.533203125
,3.9379795,1.46484375
,3.9739734999999996,1.396484375
,3.9799696000000004,1.318359375
,3.9991535999999996,1.23046875
,4.0203907,1.1279296875
,4.0416218,1.015625
,4.0615589,0.869140625
,4.077962,0.7177734375
,4.1150224,0.5810546875
,4.1195649,0.4150390625
,4.1661693,0.2392578125
,4.1667968,0.087890625
,4.1814326,0.0537109375
,4.2171715,0.3173828125
,4.2201317,0.7470703125
,4.2561815,1.259765625
,4.2766791,1.708984375
,4.2784146,2.1044921875
,4.3203285,2.36328125
,4.3209226,2.529296875
,4.3387772,2.6025390625
,4.3820112,2.59765625
,4.3825012,2.5048828125
,4.4291568,2.34375
,4.4295186,2.1337890625
,4.4385508,1.9140625
,4.4892569,1.69921875
,4.4896279,1.5234375
,4.4999594,1.376953125
,4.5341819,1.2646484375
,4.5551012,1.171875
,4.5621419,1.0888671875
,4.5823453,0.99609375
,4.5995731,0.888671875
,4.6345608,0.7666015625
,4.6396407,0.6298828125
,4.6782825,0.478515625
,4.67859,0.33203125
,4.7134064,0.17578125
,4.734736,0.029296875
,4.7353976,0.0048828125
,4.7755021,0.0048828125
,4.7758725,0.0048828125
,4.8152591,0.0048828125
,4.8198209,0.0048828125
,4.8417389,0.0048828125
,4.8607949,0.048828125
,4.8807812,0.68359375
,4.9160345,1.2890625
,4.9210993,1.845703125
,4.9580001,2.24609375
,4.9616497,2.5390625
,4.979331,2.705078125
,5.001466,2.7880859375
,5.0213437,2.7685546875
,5.0657835,2.6611328125
,5.06767,2.4755859375
,5.0811045,2.2314453125
,5.115383,1.982421875
,5.1367692,1.748046875
,5.1433288,1.5625
,5.1595975,1.4306640625
,5.1966627,1.337890625
,5.2002484,1.2646484375
,5.2361369,1.1962890625
,5.2423212,1.11328125
,5.2620926,1.0205078125
,5.2815456,0.9228515625
,5.3185522,0.8154296875
,5.3189186,0.7080078125
,5.3551974,0.60546875
,5.360176,0.5029296875
,5.4098036,0.400390625
,5.4101669,0.302734375
,5.438928,0.205078125
,5.4424074,0.1123046875
,5.4595163,0.0341796875
,5.4944559,0.0830078125
,5.5156899,0.380859375
,5.5256396,0.9326171875
,5.539881,1.5087890625
,5.5777035,2.0751953125
,5.5808751,2.5
,5.6002922,2.841796875
,5.6415058,3.0517578125
,5.6421478,3.1640625
,5.6642651,3.173828125
,5.6838829,3.095703125
,5.7009143,2.939453125
,5.7365836,2.71484375
,5.7397138,2.470703125
,5.7777652,2.2412109375
,5.7838462,2.0556640625
,5.801494,1.9287109375
,5.8219948,1.8408203125
,5.8592559,1.7724609375
,5.8624505,1.708984375
,5.8793847,1.62109375
,5.9162575,1.533203125
,5.9224864,1.42578125
,5.956829,1.2939453125
,5.962005,1.171875
,5.9979884,1.025390625
,6.002331999999999,0.888671875
,6.0377495,0.76171875
,6.0610968,0.6298828125
,6.061881,0.5078125
,6.0808173,0.3857421875
,6.1024476,0.2783203125
,6.121697599999999,0.21484375
,6.169300099999999,0.3662109375
,6.169844299999999,0.83984375
,6.1829301,1.4111328125
,6.2207211000000004,2.0068359375
,6.222593,2.4755859375
,6.2591175,2.880859375
,6.2596708,3.134765625
,6.306791199999999,3.3056640625
,6.307339300000001,3.37890625
,6.3221398,3.3740234375
,6.368112,3.2861328125
,6.368643199999999,3.1298828125
,6.383768699999999,2.9296875
,6.4188317999999995,2.71484375
,6.4264002,2.5048828125
,6.4406216,2.3291015625
,6.4758206000000005,2.1875
,6.509460000000001,2.080078125
,6.510000099999999,1.9921875
,6.5217566,1.9189453125
,6.5588905,1.8408203125
,6.5648961,1.7431640625
,6.600937399999999,1.630859375
,6.601285600000001,1.4990234375
,6.6376679,1.357421875
,6.6418523,1.2060546875
,6.6750867,1.0595703125
,6.7109398,0.8984375
,6.7112929,0.732421875
,6.7241754,0.5908203125
,6.7415533,0.4443359375
,6.7714114,0.33203125
,6.780117000000001,0.3076171875
,6.8177471999999995,0.5224609375
,6.822623699999999,0.99609375
,6.8590924,1.572265625
,6.8633237000000005,2.0849609375
,6.9088172,2.529296875
,6.9096367999999995,2.861328125
,6.9244252,3.1103515625
,6.946229000000001,3.2470703125
,6.9666678,3.291015625
,6.9818566,3.251953125
,7.0332075,3.1298828125
,7.0336839,2.9541015625
,7.043071299999999,2.7294921875
,7.0759658000000005,2.48046875
,7.0972325000000005,2.255859375
,7.1052401,2.0654296875
,7.1426722,1.93359375
,7.1448485,1.953125
,7.162986,1.8115234375
,7.2023700999999996,1.7041015625
,7.2029482,1.5869140625
,7.2393559,1.455078125
,7.244337399999999,1.3134765625
,7.295510800000001,1.162109375
,7.2958932,1.0009765625
,7.3066403,1.279296875
,7.321887500000001,0.99609375
,7.3565486,0.7373046875
,7.3787263,0.5126953125
,7.3827657,0.3173828125
,7.433514000000001,0.1611328125
,7.4339765,0.1025390625
,7.4451629,0.3271484375
,7.4958100000000005,0.7958984375
,7.4961821,1.3671875
,7.5028729,1.875
,7.5220815000000005,2.3193359375
,7.5737822,2.6318359375
,7.574156,2.8564453125
,7.5840146,2.9638671875
,7.6202249,3.6962890625
,7.641899199999999,3.4130859375
,7.6467677,3.1201171875
,7.665856,2.8076171875
,7.7011669000000005,2.4951171875
,7.721888399999999,2.20703125
,7.722296699999999,1.982421875
,7.7567976000000005,1.8115234375
,7.7775452000000005,1.6845703125
,7.7832247,1.5869140625
,7.8042391,1.4990234375
,7.8268957,2.138671875
,7.844120200000001,1.8017578125
,7.88031,1.5478515625
,7.9023579999999995,1.337890625
,7.9027499,1.123046875
,7.941618200000001,0.9326171875
,7.9423508,0.7568359375
,7.9770001,0.5859375
,7.99708,0.4248046875
,8.0039988,1.0986328125
,8.0404282,0.7177734375
,8.0593665,0.478515625
,8.0613892,0.439453125
,8.0967611,0.966796875
,8.117238,1.8798828125
,8.1251038,2.1728515625
,8.1606869,2.4658203125
,8.1827356,2.7587890625
,8.1874177,3.681640625
,8.2367581,3.5693359375
,8.2371287,3.4619140625
,8.2441464,3.3154296875
,8.280067,3.6962890625
,8.2853586,3.3837890625
,8.3197832,2.998046875
,8.3246462,2.6416015625
,8.3621668,2.3388671875
,8.366422,2.119140625
,8.4092302,1.953125
,8.409686,1.8408203125
,8.4574622,1.7578125
,8.4577843,1.6748046875
,8.4645291,1.5966796875
,8.4849282,1.4990234375
,8.5205071,1.3818359375
,8.5398998,1.2548828125
,8.5449007,1.123046875
,8.5830062,0.986328125
,8.612054,0.83984375
,8.612847,0.6982421875
,8.624211,0.556640625
,8.660955,0.4248046875
,8.6641977,0.3125
,8.6855041,0.29296875
,8.7370274,0.52734375
,8.7373994,1.025390625
,8.7467984,1.5576171875
,8.7853619,2.080078125
,8.7859902,2.4755859375
,8.8218241,2.8125
,8.8250368,3.1201171875
,8.8753718,3.2080078125
,8.8759342,3.212890625
,8.8867592,3.1396484375
,8.9068141,3.0029296875
,8.9532592,2.7978515625
,8.9540419,2.5830078125
,8.9747625,2.3779296875
,8.9891927,2.2021484375
,9.0053673,2.0556640625
,9.0396281,1.97265625
,9.0598179,1.904296875
,9.0670456,1.826171875
,9.1007012,1.7431640625
,9.1208419,1.7578125
,9.1276933,1.611328125
,9.1486583,1.474609375
,9.1656048,1.3525390625
,9.1853945,1.2060546875
,9.2307821,1.0693359375
,9.2311454,0.9228515625
,9.2470909,0.7763671875
,9.2941138,0.6298828125
,9.2944666,0.517578125
,9.3040279,0.4052734375
,9.3578795,0.4638671875
,9.3586263,0.7958984375
,9.3773848,1.3037109375
,9.3857583,1.81640625
,9.4225597,2.3046875
,9.4266078,2.783203125
,9.4624759,3.056640625
,9.4825145,3.2177734375
,9.4894497,3.3203125
,9.5043232,3.3349609375
,9.5251588,3.28125
,9.5618587,3.154296875
,9.566318,2.9736328125
,9.6018175,2.7685546875
,9.606875,2.578125
,9.6429336,2.4072265625
,9.6483613,2.275390625
,9.6966842,2.1630859375
,9.6970515,2.080078125
,9.717913,2.001953125
,9.7259726,1.8994140625
,9.7599397,1.826171875
,9.7808521,1.73828125
,9.788531,1.6357421875
,9.8077916,1.5234375
,9.8446482,1.3916015625
,9.8470709,1.259765625
,9.8694895,1.1083984375
,9.8865188,0.9521484375
,9.9057856,0.7958984375
,9.9415369,0.64453125
,9.9603691,0.537109375
,9.9673358,0.625
,10.0045155,0.9716796875
,10.0092093,1.455078125
,10.0497824,1.9091796875
,10.0504745,2.3388671875
,10.0657482,2.6513671875
,10.1004925,2.9052734375
,10.1211389,3.0419921875
,10.1299543,3.10546875
,10.1480728,2.900390625
,10.1875542,3.173828125
,10.1882947,2.94921875
,10.2255474,2.7734375
,10.2260537,2.7294921875
,10.2637917,2.646484375
,10.265916,2.4853515625
,10.3012534,2.216796875
,10.3214202,2.0166015625
,10.326441,1.865234375
,10.3752232,1.7431640625
,10.3757151,1.6259765625
,10.3900952,1.5087890625
,10.4120119,1.3916015625
,10.4326431,1.23046875
,10.4463594,1.15234375
,10.4823181,1.1572265625
,10.4872685,0.927734375
,10.5277956,0.7177734375
,10.528464,0.52734375
,10.5490468,0.4150390625
,10.5706971,0.400390625
,10.5857486,0.205078125
,10.6068575,0.15625
,10.6268442,0.7861328125
,10.6625399,1.2158203125
,10.6675933,1.66015625
,10.7136458,2.0947265625
,10.7142564,2.421875
,10.7445325,2.6611328125
,10.7511404,3.06640625
,10.7858263,3.603515625
,10.7864201,3.3642578125
,10.8207102,3.125
,10.8411772,2.8662109375
,10.8488796,2.587890625
,10.8840824,2.3291015625
,10.8886898,2.1044921875
,10.9255981,1.923828125
,10.9293355,1.796875
,10.9795766,1.69921875
,10.9801932,1.0498046875
,10.9880116,2.2021484375
,11.0103906,1.9140625
,11.029513,1.6845703125
,11.0713322,1.4794921875
,11.0717052,1.5087890625
,11.1057882,1.796875
,11.1110329,1.494140625
,11.1314729,1.123046875
,11.1515073,0.4931640625
,11.1698033,1.25
,11.1871529,0.8154296875
,11.2265876,0.4931640625
,11.2285634,0.5322265625
,11.2648985,0.947265625
,11.2702254,0.8349609375
,11.3222334,1.1083984375
,11.3226058,1.73828125
,11.3314261,2.6123046875
,11.3498255,2.7783203125
,11.367565,2.94921875
,11.4055764,2.7099609375
,11.4107574,3.6962890625
,11.4290409,3.5546875
,11.475929,3.3203125
,11.4765337,3.0810546875
,11.4962644,2.8125
,11.5065959,2.5537109375
,11.5591277,2.3291015625
,11.5599124,2.1533203125
,11.5693786,2.0263671875
,11.5905091,1.9384765625
,11.6105801,1.865234375
,11.6303738,1.8017578125
,11.6655556,1.7333984375
,11.6708208,1.66015625
,11.6878162,1.5771484375
,11.7092302,1.484375
,11.7286092,1.376953125
,11.7702315,1.259765625
,11.7707839,1.1376953125
,11.7909594,1.0107421875
,11.8111525,0.87890625
,11.8322638,0.732421875
,11.8521661,0.5908203125
,11.8676439,0.458984375
,11.8894782,0.419921875
,11.9096358,0.634765625
,11.958292,1.0986328125
,11.9588869,1.5966796875
,11.9774013,2.0947265625
,11.989983,2.4853515625
,12.0291511,2.8076171875
,12.0296849,3.017578125
,12.0805741,3.1494140625
,12.0809923,3.1884765625
,12.1007971,3.154296875
,12.1100742,3.056640625
,12.1459768,2.8857421875
,12.1663354,2.6953125
,12.1709186,2.509765625
,12.2088703,2.34375
,12.2116057,2.20703125
,12.2495377,2.099609375
,12.250089,2.0166015625
,12.2874467,1.9482421875
,12.2879921,1.875
,12.3217351,1.7822265625
,12.34236,1.6943359375
,12.3522945,1.58203125
,12.3730588,1.4794921875
,12.392362,1.337890625
,12.407931,1.201171875
,12.4424505,1.0595703125
,12.4638662,0.91796875
,12.4695136,0.7666015625
,12.5165356,0.6201171875
,12.516911,0.4833984375
,12.5328071,0.3564453125
,12.548031,0.3076171875
,12.5841559,0.5224609375
,12.6049062,0.9375
,12.6131536,1.46484375
,12.6303768,1.953125
,12.6498837,2.392578125
,12.6889322,2.7197265625
,12.7190927,2.978515625
,12.719575,3.125
,12.7324684,3.1982421875
,12.7523678,3.18359375
,12.796017,3.10546875
,12.7963838,2.9638671875
,12.8255293,2.783203125
,12.8310183,2.587890625
,12.8686956,2.4169921875
,12.8741587,2.2607421875
,12.8927651,2.138671875
,12.9338696,2.0458984375
,12.9342423,1.962890625
,12.9531258,1.8896484375
,12.9701996,1.8017578125
,13.006513,1.7138671875
,13.0108596,1.6015625
,13.0475488,1.474609375
,13.050091,1.337890625
,13.0873814,1.19140625
,13.0924131,1.03515625
,13.1269773,0.87890625
,13.1475215,0.7275390625
,13.1556958,0.5908203125
,13.1710492,0.4638671875
,13.2113915,0.341796875
,13.2117977,0.224609375
,13.2460569,0.1220703125
,13.2676204,0.0927734375
,13.2682127,0.2880859375
,13.3040074,0.791015625
,13.3246631,1.318359375
,13.3334904,1.8603515625
,13.3516469,2.2802734375
,13.3707443,2.63671875
,13.4053584,2.87109375
,13.4274244,3.0224609375
,13.4320566,3.076171875
,13.4731138,3.0615234375
,13.4736177,2.978515625
,13.5095372,2.8271484375
,13.5152873,2.626953125
,13.5321279,2.431640625
,13.5668375,2.24609375
,13.5729522,2.0947265625
,13.6128309,1.982421875
,13.6134218,1.8896484375
,13.6490261,1.806640625
,13.6524708,1.728515625
,13.6881696,1.6357421875
,13.7088135,1.533203125
,13.7116489,1.4208984375
,13.746382,1.2939453125
,13.7524575,1.142578125
,13.7719793,0.986328125
,13.807377,0.830078125
,13.8131565,0.6689453125
,13.8482531,0.52734375
,13.8686824,0.390625
,13.8711923,0.2880859375
,13.9072488,0.1708984375
,13.9124373,0.05859375
,13.9327198,0.0048828125
,13.9493297,0.0048828125
,13.9728197,0.244140625
,13.993505,0.712890625
,14.046307899999999,1.2841796875
,14.046906700000001,1.7919921875
,14.0543194,2.236328125
,14.0879704,2.5390625
,14.090540099999998,2.7734375
,14.1289053,2.8955078125
,14.1327542,2.9248046875
,14.168287200000002,2.87109375
,14.1887692,2.7392578125
,14.194294200000002,2.5537109375
,14.2146385,2.3486328125
,14.2523667,2.1533203125
,14.252991600000001,2.01171875
,14.289757300000002,1.904296875
,14.290575400000002,1.826171875
,14.3284177,1.7626953125
,14.333890400000001,1.7041015625
,14.355274300000001,1.6455078125
,14.374972499999998,1.5771484375
,14.395197499999998,1.494140625
,14.432303399999999,1.396484375
,14.432907700000001,1.2744140625
,14.4693778,1.142578125
,14.474448599999999,1.015625
,14.5104823,0.869140625
,14.514987399999999,0.7373046875
,14.535166499999999,0.6005859375
,14.551088700000001,0.4736328125
,14.5702089,0.3759765625
,14.6051945,0.283203125
,14.626354800000001,0.2001953125
,14.6306227,0.2099609375
,14.6699245,0.5078125
,14.6743761,1.005859375
,14.7095768,1.5869140625
,14.7143124,2.080078125
,14.751605000000001,2.5146484375
,14.757388299999999,2.841796875
,14.7783074,3.0517578125
,14.7963867,3.1787109375
,14.813092300000001,3.2080078125
,14.8498485,3.1689453125
,14.852753,3.0517578125
,14.896636699999998,2.880859375
,14.897096900000001,2.6953125
,14.9155381,2.5
,14.9511295,2.3388671875
,14.956599099999998,2.20703125
,14.9733014,2.109375
,14.9931047,2.0361328125
,15.0291931,1.97265625
,15.0335575,1.8896484375
,15.072135800000002,1.8017578125
,15.072733499999998,1.6943359375
,15.1105527,1.572265625
,15.1162067,1.435546875
,15.151484199999999,1.2939453125
,15.151877599999999,1.1474609375
,15.204781400000002,1.0107421875
,15.2056197,0.8837890625
,15.212855699999999,0.7568359375
,15.2489606,0.64453125
,15.2688773,0.52734375
,15.270870500000001,0.4150390625
,15.306613899999999,0.3564453125
,15.3260939,0.4150390625
,15.332059000000001,0.7421875
,15.3647305,1.2255859375
,15.387685699999999,1.77734375
,15.3945602,2.2705078125
,15.428950799999999,2.6513671875
,15.450118400000001,2.96875
,15.456864199999998,3.1689453125
,15.4920078,3.2958984375
,15.4973493,3.3349609375
,15.5468999,3.310546875
,15.547348,3.2080078125
,15.5528336,3.056640625
,15.5891472,2.8857421875
,15.594916300000001,2.7001953125
,15.632157200000002,2.5390625
,15.636821300000001,2.412109375
,15.672110100000001,2.3095703125
,15.6770265,2.2119140625
,15.720952700000002,2.1337890625
,15.7214898,2.05078125
,15.7505265,1.9677734375
,15.754710200000002,1.865234375
,15.774904,1.7529296875
,15.8100147,1.62109375
,15.8305163,1.4794921875
,15.8358642,1.3330078125
,15.874393000000001,1.181640625
,15.8749878,1.0400390625
,15.8947541,0.91796875
,15.931442,0.7861328125
,15.9346107,0.6689453125
,15.9813918,0.556640625
,15.9817641,0.4541015625
,15.992536399999999,0.4052734375
,16.0283866,0.6201171875
,16.0501889,1.0400390625
,16.0548171,1.5185546875
,16.0782235,2.021484375
,16.0965188,2.3974609375
,16.1317837,2.7392578125
,16.1369917,2.9833984375
,16.1728008,3.1396484375
,16.1748867,3.2177734375
,16.2113701,3.22265625
,16.2175865,3.154296875
,16.2523371,3.0322265625
,16.2731144,2.8662109375
,16.2765662,2.685546875
,16.3129693,2.51953125
,16.3174841,2.3681640625
,16.3544384,2.24609375
,16.3572855,2.1484375
,16.3759385,2.0703125
,16.4113291,1.9921875
,16.4330238,1.9140625
,16.4333284,1.826171875
,16.4675307,1.728515625
,16.4882995,1.611328125
,16.4973056,1.484375
,16.5308574,1.34765625
,16.5362042,1.1962890625
,16.5704344,1.0498046875
,16.5917175,0.9033203125
,16.592233,0.7666015625
,16.6273625,0.6396484375
,16.6480511,0.5224609375
,16.6557234,0.4150390625
,16.6776084,0.3125
,16.7129764,0.2197265625
,16.7184998,0.13671875
,16.7335753,0.0830078125
,16.7529655,0.21484375
,16.7866989,0.595703125
,16.8068857,1.1328125
,16.8168383,1.630859375
,16.8525534,2.12890625
,16.8558616,2.5048828125
,16.891692,2.7978515625
,16.8969638,2.978515625
,16.9338278,3.0908203125
,16.957678,3.1201171875
,16.9580648,3.0810546875
,16.9929953,2.9736328125
,17.0136431,2.8076171875
,17.0141647,2.6220703125
,17.069137,2.44140625
,17.0695008,2.28515625
,17.0781537,2.1533203125
,17.1153303,2.060546875
,17.1203636,1.982421875
,17.1545399,1.9091796875
,17.1552425,1.8310546875
,17.1760482,1.7626953125
,17.212202,1.669921875
,17.2185119,1.5576171875
,17.2523472,1.4306640625
,17.2596108,1.2890625
,17.293299,1.1376953125
,17.3005078,0.9912109375
,17.3191055,0.849609375
,17.3364146,0.7080078125
,17.382754,0.5712890625
,17.3833754,0.44921875
,17.397324,0.322265625
,17.4326839,0.21484375
,17.4534841,0.1318359375
,17.4539747,0.146484375
,17.5069941,0.4345703125
,17.5073695,0.908203125
,17.5273364,1.416015625
,17.5376149,1.875
,17.5734019,2.3095703125
,17.5761319,2.6171875
,17.6126674,2.841796875
,17.6448882,2.9736328125
,17.6453709,3.0029296875
,17.6595771,2.958984375
,17.7083622,2.841796875
,17.7089463,2.67578125
,17.7371123,2.4951171875
,17.7376634,2.32421875
,17.7705111,2.1875
,17.8003767,2.0947265625
,17.8010096,2.0166015625
,17.8368971,1.9580078125
,17.8373813,1.904296875
,17.8783037,1.8505859375
,17.8787744,1.7822265625
,17.8995361,1.7041015625
,17.918068,1.62109375
,17.9533426,1.5234375
,17.9590264,1.4111328125
,18.0021325,1.2939453125
,18.0025477,1.162109375
,18.0216038,1.025390625
,18.0568984,0.8837890625
,18.0572631,0.751953125
,18.093484,0.625
,18.0974631,0.5224609375
,18.1312253,0.517578125
,18.1561151,0.7421875
,18.1580947,1.181640625
,18.1925159,1.6552734375
,18.2141473,2.1240234375
,18.2206158,2.4951171875
,18.2568141,2.7880859375
,18.2617246,2.998046875
,18.2778647,3.1201171875
,18.3147641,3.1689453125
,18.3189221,3.134765625
,18.3521625,3.0322265625
,18.3729707,2.880859375
,18.3801859,2.6904296875
,18.4156292,2.51953125
,18.4217133,2.3583984375
,18.4379808,2.2314453125
,18.4830877,2.12890625
,18.4836816,2.060546875
,18.5041048,1.9970703125
,18.5191783,1.9384765625
,18.5607183,1.8701171875
,18.5611488,1.796875
,18.5808958,1.7041015625
,18.6173893,1.6015625
,18.6177724,1.4892578125
,18.6523635,1.3818359375
,18.6748818,1.259765625
,18.6793379,1.1328125
,18.7175739,0.99609375
,18.7181797,0.8544921875
,18.7524894,0.703125
,18.7737721,0.5859375
,18.7792122,0.634765625
,18.7987099,0.9521484375
,18.819222,1.3623046875
,18.8591327,1.826171875
,18.8595999,2.2216796875
,18.8897071,2.55859375
,18.9009836,2.822265625
,18.9212518,2.9833984375
,18.9661418,3.0908203125
,18.9666358,3.1201171875
,18.9981002,3.095703125
,18.9987456,2.998046875
,19.0335511,2.861328125
,19.0395677,2.685546875
,19.0746278,2.5146484375
,19.0795033,2.353515625
,19.1227029,2.2119140625
,19.1231528,2.1044921875
,19.1532825,2.021484375
,19.1595326,1.9384765625
,19.1804033,1.865234375
,19.1987725,1.7822265625
,19.2445255,1.69921875
,19.2451175,1.5966796875
,19.2641258,1.50390625
,19.2803019,1.4111328125
,19.3164862,1.2890625
,19.3379639,1.162109375
,19.3383304,1.0400390625
,19.3856913,0.927734375
,19.3860587,0.810546875
,19.4065615,0.7275390625
,19.4205748,0.6201171875
,19.4560468,0.6201171875
,19.4606545,0.8349609375
,19.4957829,1.2255859375
,19.5160789,1.650390625
,19.520796,2.08984375
,19.556639,2.4609375
,19.5594105,2.7294921875
,19.5943345,2.9345703125
,19.5999563,3.046875
,19.636133,3.10546875
,19.6674346,3.0859375
,19.6680395,3.0078125
,19.6839142,2.880859375
,19.7211929,2.7099609375
,19.7217308,2.529296875
,19.7404236,2.3583984375
,19.7786755,2.2119140625
,19.7793055,2.099609375
,19.8143214,2.0166015625
,19.8366768,1.943359375
,19.8434566,1.8603515625
,19.8799551,1.787109375
,19.883434,1.7041015625
,19.9007405,1.6064453125
,19.9347823,1.5087890625
,19.9551396,1.4111328125
,19.960249,1.2890625
,19.9956634,1.1669921875
,20.0160743,1.044921875
,20.023325,0.927734375
,20.0581792,0.80078125
,20.0587494,0.6689453125
,20.0973616,0.537109375
,20.1017536,0.419921875
,20.1376173,0.4248046875
,20.1416564,0.6689453125
,20.1777822,1.083984375
,20.2087189,1.552734375
,20.2091853,1.962890625
,20.222423,2.3291015625
,20.2390813,2.5927734375
,20.2764195,2.79296875
,20.2969988,2.8955078125
,20.3012688,2.939453125
,20.3366206,2.9052734375
,20.3581211,2.802734375
,20.3634416,2.6416015625
,20.3850739,2.451171875
,20.4187109,2.2607421875
,20.4235776,2.080078125
,20.4385717,1.943359375
,20.4749213,1.8359375
,20.496981,1.7578125
,20.50148,1.69921875
,20.5356437,1.6357421875
,20.5568855,1.5673828125
,20.5624017,1.484375
,20.5993178,1.3916015625
,20.6037344,1.279296875
,20.6219764,1.162109375
,20.667278,1.0400390625
,20.6679306,0.91796875
,20.6827716,0.7958984375
,20.7169344,0.6787109375
,20.7214106,0.556640625
,20.7602986,0.44921875
,20.7606706,0.3662109375
,20.7810688,0.2783203125
,20.8225428,0.1611328125
,20.822933,0.078125
,20.8420423,0.1171875
,20.8760391,0.4248046875
,20.8967431,0.8837890625
,20.9048517,1.42578125
,20.9237919,1.8994140625
,20.9591209,2.3193359375
,20.9597639,2.6123046875
,20.993264,2.841796875
,21.013009,2.96875
,21.0231772,3.0224609375
,21.042744,2.998046875
,21.0788773,2.9052734375
,21.083171,2.7587890625
,21.1185869,2.5732421875
,21.1239171,2.3828125
,21.1600303,2.20703125
,21.1645846,2.0703125
,21.1997056,1.962890625
,21.2001366,1.884765625
,21.2335727,1.8212890625
,21.2539,1.7529296875
,21.2640649,1.6845703125
,21.2990029,1.6064453125
,21.3039184,1.513671875
,21.3302148,1.40625
,21.3409387,1.2890625
,21.3880483,1.162109375
,21.3884833,1.03515625
,21.4039633,0.908203125
,21.4375685,0.791015625
,21.4584592,0.6787109375
,21.4631397,0.576171875
,21.4977249,0.4736328125
,21.5176507,0.3955078125
,21.5232643,0.3076171875
,21.5597248,0.2197265625
,21.5627876,0.2099609375
,21.5983265,0.4541015625
,21.6033117,0.8837890625
,21.6405507,1.416015625
,21.6433306,1.9091796875
,21.6791431,2.34375
,21.7015796,2.65625
,21.7020368,2.8955078125
,21.7381974,3.0224609375
,21.7427603,3.076171875
,21.7899042,3.0517578125
,21.790532,2.96875
,21.8030371,2.8125
,21.8382977,2.6220703125
,21.8599751,2.421875
,21.8668006,2.2509765625
,21.9036591,2.1044921875
,21.9043204,2.001953125
,21.923448,1.9287109375
,21.9615433,1.9091796875
,21.9620095,1.8212890625
,21.9965235,1.7333984375
,22.0176572,1.630859375
,22.0249076,1.5283203125
,22.0459164,1.4111328125
,22.0618259,1.2744140625
,22.0983777,1.1376953125
,22.1194647,0.986328125
,22.1243531,0.83984375
,22.1614303,0.6982421875
,22.1660373,0.5615234375
,22.2075145,0.439453125
,22.2078829,0.33203125
,22.222116,0.2587890625
,22.2424225,0.1904296875
,22.2792222,0.107421875
,22.2818555,0.0341796875
,22.3181185,0.0048828125
,22.3372554,0.0341796875
,22.3449848,0.4052734375
,22.3802414,0.9228515625
,22.3854003,1.5234375
,22.4023149,2.0458984375
,22.4380448,2.5048828125
,22.46006,2.861328125
,22.4652958,3.06640625
,22.4993705,3.2275390625
,22.5052671,3.291015625
,22.5397701,3.28125
,22.5671195,3.193359375
,22.5676907,3.046875
,22.5868079,2.87109375
,22.6293355,2.6708984375
,22.6300092,2.4755859375
,22.6594393,2.314453125
,22.6639725,2.1875
,22.6989393,2.08984375
,22.7194415,2.001953125
,22.7247097,1.9140625
,22.7689623,1.8212890625
,22.769605,1.71875
,22.7856111,1.591796875
,22.8051972,1.455078125
,22.8240748,1.3037109375
,22.860583,1.1328125
,22.8812436,0.947265625
,22.886236,0.7666015625
,22.9239266,0.5908203125
,22.9242869,0.4345703125
,22.9716867,0.3173828125
,22.9720536,0.2099609375
,22.9945652,0.1025390625
,23.0067388,0.01953125
,23.025363,0.0048828125
,23.041894,0.0048828125
,23.0804851,0.0048828125
,23.0808671,0.0048828125
,23.1014214,0.0048828125
,23.1420664,0.0048828125
,23.142428,0.068359375
,23.1680258,0.625
,23.1843969,1.2255859375
,23.2054596,1.8603515625
,23.2528698,2.34375
,23.253289,2.7294921875
,23.2653277,2.98828125
,23.3005356,3.14453125
,23.320667,3.212890625
,23.3257162,3.1982421875
,23.3610881,3.10546875
,23.3637052,2.9296875
,23.4003511,2.6904296875
,23.4213751,2.421875
,23.4271248,2.1484375
,23.4628861,1.9189453125
,23.4659777,1.728515625
,23.4995068,1.572265625
,23.5221441,1.435546875
,23.5226693,1.30859375
,23.5575751,1.181640625
,23.5781679,1.0546875
,23.5855807,0.908203125
,23.6211898,0.751953125
,23.6271997,0.5908203125
,23.6427669,0.439453125
,23.6640266,0.3173828125
,23.6996956,0.185546875
,23.7050392,0.048828125
,23.7446949,0.0048828125
,23.7450887,0.0048828125
,23.7797453,0.0048828125
,23.8067006,0.0048828125
,23.8070776,0.0048828125
,23.822117,0.0048828125
,23.8460164,0.0048828125
,23.8657716,0.0048828125
,23.8999326,0.0048828125
,23.9068346,0.0048828125
,23.9483992,0.0048828125
,23.948765,0.0048828125
,23.9948399,0.4345703125
,23.995211,1.1328125
,24.008034,1.8408203125
,24.0424744,2.4169921875
,24.0628683,2.8173828125
,24.0671786,3.1005859375
,24.0862309,3.232421875
,24.1225094,3.2763671875
,24.1254154,3.203125
,24.1618687,3.02734375
,24.1674797,2.7685546875
,24.2134172,2.4609375
,24.2138281,2.16796875
,24.2289655,1.9091796875
,24.2459517,1.69921875
,24.282192,1.533203125
,24.2850433,1.4111328125
,24.3230242,1.3134765625
,24.3284483,1.23046875
,24.3480797,1.1474609375
,24.3850382,1.0498046875
,24.3895086,0.9521484375
,24.4298988,0.849609375
,24.4304906,0.7421875
,24.4475431,0.6396484375
,24.4915403,0.5322265625
,24.492,0.4345703125
,24.5075374,0.3466796875
,24.5436713,0.2587890625
,24.5444012,0.1904296875
,24.5799701,0.15625
,24.6020897,0.1416015625
,24.6077403,0.1123046875
,24.6258506,0.09765625
,24.6612874,0.087890625
,24.6821384,0.09765625
,24.6879127,0.1025390625
,24.7261134,0.13671875
,24.7265986,0.2685546875
,24.7708585,0.6591796875
,24.7712308,1.2744140625
,24.7928595,1.9677734375
,24.8067883,2.5146484375
,24.846659,2.96875
,24.8471202,3.2470703125
,24.8857489,3.3984375
,24.886382,3.4033203125
,24.9253538,3.2958984375
,24.9454195,3.0810546875
,24.9498306,2.79296875
,24.9660556,2.490234375
,25.001655,2.20703125
,25.0218221,1.9677734375
,25.0276717,1.787109375
,25.0639637,1.6552734375
,25.0675993,1.5625
,25.1056271,1.4794921875
,25.1098689,1.4111328125
,25.145535,1.337890625
,25.1461145,1.26953125
,25.1831886,1.1865234375
,25.1887621,1.1083984375
,25.208641,1.015625
,25.2296624,0.91796875
,25.2485225,0.830078125
,25.2834416,0.732421875
,25.2889696,0.64453125
,25.3250315,0.576171875
,25.3326073,0.5078125
,25.3479309,0.4541015625
,25.3687474,0.439453125
,25.3879716,0.41015625
,25.424162,0.390625
,25.4296547,0.3759765625
,25.4659427,0.3662109375
,25.4694987,0.3857421875
,25.5179026,0.46875
,25.5183619,0.810546875
,25.5381496,1.3720703125
,25.5482947,2.0703125
,25.5837446,2.6416015625
,25.5883894,3.125
,25.6294989,3.4375
,25.6588276,3.6328125
,25.6594217,3.6767578125
,25.67199,3.59375
,25.7073676,3.3935546875
,25.7077902,3.1298828125
,25.7433593,2.8173828125
,25.7483664,2.5244140625
,25.7828911,2.24609375
,25.8029527,2.03125
,25.8111854,1.8603515625
,25.8467944,1.7431640625
,25.8494329,1.640625
,25.8664273,1.5625
,25.9025997,1.4990234375
,25.9081498,1.4208984375
,25.9519871,1.3330078125
,25.9523487,1.2451171875
,25.9730623,1.1474609375
,26.0075548,1.03515625
,26.0103506,0.9375
,26.0472733,0.8447265625
,26.0524461,0.751953125
,26.0890392,0.6787109375
,26.0896609,0.6103515625
,26.1092881,0.556640625
,26.1518163,0.5078125
,26.1521321,0.478515625
,26.199579,0.458984375
,26.2001674,0.44921875
,26.2068193,0.439453125
,26.2419651,0.4736328125
,26.2616057,0.5810546875
,26.2694417,0.9130859375
,26.3028541,1.5478515625
,26.3231162,2.1923828125
,26.330496,2.783203125
,26.369551,3.232421875
,26.3700141,3.5595703125
,26.4035061,3.6962890625
,26.4249775,3.6962890625
,26.4281619,3.6962890625
,26.4653019,3.6181640625
,26.4683213,3.388671875
,26.5026077,3.0859375
,26.5245032,2.7783203125
,26.5320215,2.48046875
,26.569824,2.236328125
,26.5703457,2.03125
,26.606372,1.89453125
,26.6067323,1.77734375
,26.6432879,1.6845703125
,26.663538,1.5966796875
,26.6688216,1.50390625
,26.7097457,1.40625
,26.7289407,1.2939453125
,26.7316244,1.171875
,26.7662115,1.044921875
,26.7883657,0.91796875
,26.7929316,0.80078125
,26.8099442,0.693359375
,26.8479339,0.60546875
,26.8507293,0.5322265625
,26.8867635,0.4736328125
,26.8922342,0.4248046875
,26.9283266,0.390625
,26.9307205,0.361328125
,26.965665,0.341796875
,26.9855927,0.3564453125
,26.9884432,0.390625
,27.0279772,0.5029296875
,27.0283711,0.8349609375
,27.0634351,1.46484375
,27.0854452,2.109375
,27.0921183,2.6806640625
,27.1283933,3.1103515625
,27.1488591,3.41796875
,27.1493353,3.57421875
,27.184567,3.61328125
,27.189986,3.525390625
,27.2251613,3.3251953125
,27.2297411,3.0419921875
,27.265064,2.7197265625
,27.2851527,2.40234375
,27.2929825,2.1337890625
,27.3306931,1.9287109375
,27.331282,1.767578125
,27.3499885,1.650390625
,27.3865784,1.5625
,27.3898577,1.4892578125
,27.4266608,1.4111328125
,27.4324926,1.3330078125
,27.4520918,1.240234375
,27.4867188,1.1474609375
,27.5074603,1.0546875
,27.5137971,0.9619140625
,27.5307364,0.8642578125
,27.5666633,0.791015625
,27.5694802,0.712890625
,27.6085764,0.64453125
,27.6380953,0.5810546875
,27.6385235,0.5322265625
,27.6527607,0.48828125
,27.66936,0.4541015625
,27.7171194,0.4736328125
,27.7174869,0.5810546875
,27.7468729,0.908203125
,27.7512553,1.46484375
,27.7868569,2.099609375
,27.8079456,2.6123046875
,27.8126419,3.0419921875
,27.8480373,3.310546875
,27.8551881,3.4619140625
,27.8742338,3.486328125
,27.8902836,3.37890625
,27.9250244,3.1591796875
,27.9455611,2.8759765625
,27.9523586,2.55859375
,27.9889621,2.2705078125
,27.9924959,2.0263671875
,28.0425647,1.85546875
,28.0431253,1.728515625
,28.0490759,1.6357421875
,28.0854576,1.5625
,28.1200005,1.494140625
,28.1204902,1.42578125
,28.1319112,1.357421875
,28.1676293,1.2744140625
,28.1990952,1.181640625
,28.199542,1.09375
,28.2144607,1.0009765625
,28.2611045,0.9130859375
,28.2615985,0.830078125
,28.2731221,0.751953125
,28.2926339,0.68359375
,28.337998,0.625
,28.3385798,0.576171875
,28.3526645,0.5419921875
,28.3872492,0.6103515625
,28.4085931,0.888671875
,28.415711,1.46484375
,28.4315289,2.080078125
,28.4750501,2.6513671875
,28.4756847,3.095703125
,28.493988,3.427734375
,28.538879,3.6181640625
,28.5392927,3.6865234375
,28.5538259,3.65234375
,28.6004031,3.5205078125
,28.6009925,3.2861328125
,28.6303607,3.0029296875
,28.6307264,2.705078125
,28.6695596,2.44140625
,28.6742146,2.20703125
,28.7244723,2.0361328125
,28.7248388,1.904296875
,28.734317,1.806640625
,28.7686559,1.71875
,28.7887949,1.630859375
,28.7908545,1.5478515625
,28.8352779,1.455078125
,28.8356507,1.357421875
,28.8534333,1.2548828125
,28.8887209,1.1474609375
,28.8937431,1.0546875
,28.9272755,0.95703125
,28.9476244,0.8642578125
,28.9551155,0.7666015625
,28.9914206,0.6787109375
,28.9919337,0.6005859375
,29.0277871,0.546875
,29.0329834,0.6103515625
,29.0701537,0.9375
,29.0981693,1.50390625
,29.0987589,2.138671875
,29.1153237,2.6708984375
,29.1496696,3.1298828125
,29.1710182,3.466796875
,29.1741843,3.662109375
,29.2111551,3.6962890625
,29.2115504,3.6962890625
,29.2476769,3.6962890625
,29.2677871,3.564453125
,29.2758498,3.3251953125
,29.2973172,3.056640625
,29.3343623,2.7734375
,29.3347787,2.529296875
,29.3529287,2.333984375
,29.3720804,2.177734375
,29.406982,2.0654296875
,29.4263689,1.9677734375
,29.4333897,1.8798828125
,29.466794,1.77734375
,29.4882244,1.6650390625
,29.4978448,1.54296875
,29.5169933,1.416015625
,29.5382915,1.2646484375
,29.5540265,1.1279296875
,29.588778,1.0205078125
,29.6093753,0.9130859375
,29.6146111,0.810546875
,29.6517512,0.712890625
,29.6539653,0.625
,29.6895076,0.546875
,29.7114242,0.48828125
,29.712027,0.576171875
,29.745931,0.908203125
,29.7674597,1.4599609375
,29.7756236,2.0751953125
,29.8130947,2.6123046875
,29.8135786,3.0322265625
,29.8495081,3.3642578125
,29.8702719,3.5693359375
,29.875988,3.69140625
,29.8941628,3.6962890625
,29.9433002,3.69140625
,29.9436618,3.583984375
,29.9551544,3.3837890625
,29.9908991,3.14453125
,29.9964369,2.880859375
,30.035316899999998,2.63671875
,30.0357179,2.4169921875
,30.0537407,2.2412109375
,30.088523199999997,2.099609375
,30.093882,1.982421875
,30.130210599999998,1.865234375
,30.136749700000003,1.7431640625
,30.172925900000003,1.6162109375
,30.1754897,1.4794921875
,30.2107034,1.3232421875
,30.231881100000003,1.162109375
,30.2371834,1.005859375
,30.2593204,0.8447265625
,30.273828,0.703125
,30.3114513,0.60546875
,30.313951699999997,0.5126953125
,30.3498672,0.439453125
,30.3780128,0.361328125
,30.3788037,0.2978515625
,30.393324300000003,0.244140625
,30.4396908,0.21484375
,30.4400518,0.25390625
,30.459126599999998,0.4736328125
,30.475664899999998,0.986328125
,30.495186699999998,1.591796875
,30.531135300000003,2.1923828125
,30.537430200000003,2.6611328125
,30.5576175,3.046875
,30.576940800000003,3.3056640625
,30.615803,3.4619140625
,30.616418600000003,3.525390625
,30.6350901,3.525390625
,30.669446,3.427734375
,30.6914849,3.2568359375
,30.6958596,3.0126953125
,30.732568899999997,2.7294921875
,30.751709400000003,2.4609375
,30.756066500000003,2.2314453125
,30.7902513,2.0458984375
,30.811139500000003,1.904296875
,30.8167658,1.787109375
,30.8355594,1.6748046875
,30.871593599999997,1.5625
,30.876682000000002,1.4453125
,30.9138486,1.318359375
,30.9189462,1.181640625
,30.969442,1.0400390625
,30.969884200000003,0.908203125
,30.978963800000002,0.751953125
,30.9959756,0.6396484375
,31.0312561,0.546875
,31.03644,0.4541015625
,31.071875300000002,0.3759765625
,31.0778125,0.3076171875
,31.11416,0.25390625
,31.116552,0.2001953125
,31.1526687,0.1611328125
,31.172779300000002,0.15625
,31.1751924,0.1513671875
,31.209668999999998,0.1953125
,31.231356499999997,0.4248046875
,31.236834899999998,0.9716796875
,31.274745000000003,1.6015625
,31.2773999,2.20703125
,31.313209,2.6806640625
,31.3329843,3.0517578125
,31.3361824,3.2861328125
,31.355398800000003,3.4326171875
,31.4061101,3.4716796875
,31.4068362,3.4326171875
,31.4352411,3.28125
,31.4379756,3.0517578125
,31.474598,2.763671875
,31.4778917,2.4853515625
,31.514646900000002,2.2216796875
,31.5152564,2.0166015625
,31.552162000000003,1.8505859375
,31.555419899999997,1.7236328125
,31.592157299999997,1.611328125
,31.5974571,1.5087890625
,31.634591,1.4013671875
,31.6368803,1.2939453125
,31.673799000000002,1.181640625
,31.6790867,1.064453125
,31.715201800000003,0.91796875
,31.720536600000003,0.8056640625
,31.7374899,0.693359375
,31.772301300000002,0.6005859375
,31.778961000000002,0.517578125
,31.814388200000003,0.4443359375
,31.8176568,0.3857421875
,31.854186400000003,0.341796875
,31.8545965,0.302734375
,31.8848816,0.2978515625
,31.9070957,0.2880859375
,31.917457,0.2734375
,31.9525559,0.25390625
,31.957786300000002,0.3173828125
,31.994233899999998,0.56640625
,32.0003299,1.1181640625
,32.0409027,1.748046875
,32.0412765,2.3583984375
,32.0868293,2.8515625
,32.0872101,3.203125
,32.095937,3.4423828125
,32.1338121,3.5546875
,32.1383851,3.5693359375
,32.1739781,3.4912109375
,32.1800847,3.3251953125
,32.2174476,3.0908203125
,32.2180278,2.8173828125
,32.2356296,2.55859375
,32.2711161,2.3388671875
,32.3065717,2.158203125
,32.3071722,2.03125
,32.318001,1.93359375
,32.3543897,1.845703125
,32.3845272,1.7529296875
,32.3852358,1.66015625
,32.402181,1.5576171875
,32.4362309,1.4501953125
,32.4432623,1.328125
,32.4583098,1.1962890625
,32.494007,1.07421875
,32.4983362,0.9521484375
,32.5423558,0.8447265625
,32.5428097,0.7373046875
,32.5587471,0.6494140625
,32.5913464,0.5810546875
,32.611369,0.517578125
,32.6174869,0.458984375
,32.653635,0.4150390625
,32.6597674,0.3662109375
,32.6931305,0.3466796875
,32.6986197,0.41015625
,32.7374434,0.68359375
,32.7380246,1.2646484375
,32.7739114,1.884765625
,32.7934042,2.470703125
,32.798337,2.9296875
,32.8372888,3.2958984375
,32.8379874,3.5302734375
,32.8751516,3.65234375
,32.8795704,3.6767578125
,32.9155727,3.6181640625
,32.9461278,3.4765625
,32.9466262,3.2470703125
,32.9592081,2.978515625
,32.977351,2.6904296875
,33.0113417,2.4365234375
,33.0325895,2.2314453125
,33.0380748,2.0751953125
,33.0600668,1.953125
,33.0968951,1.8505859375
,33.1021788,1.7529296875
,33.1378709,1.650390625
,33.1408515,1.54296875
,33.1811236,1.42578125
,33.1817097,1.3037109375
,33.2109101,1.181640625
,33.2197481,1.0595703125
,33.2411152,0.9326171875
,33.2756185,0.8154296875
,33.2806634,0.7080078125
,33.3165333,0.615234375
,33.3225438,0.5419921875
,33.3376846,0.4736328125
,33.3800519,0.4248046875
,33.3804194,0.37109375
,33.3992246,0.322265625
,33.4423394,0.2880859375
,33.4429337,0.341796875
,33.4605342,0.6298828125
,33.4954952,1.181640625
,33.5233317,1.8408203125
,33.5237545,2.40234375
,33.5405222,2.890625
,33.5749353,3.2373046875
,33.5804634,3.4765625
,33.6021952,3.59375
,33.6372311,3.623046875
,33.6416945,3.57421875
,33.6920233,3.4375
,33.6924158,3.2177734375
,33.6988063,2.9541015625
,33.7381266,2.67578125
,33.7384984,2.421875
,33.7738911,2.197265625
,33.8021746,2.0263671875
,33.8025366,1.89453125
,33.8483907,1.7822265625
,33.8490831,1.6748046875
,33.8622351,1.572265625
,33.8960912,1.455078125
,33.917087,1.3330078125
,33.9175354,1.2109375
,33.955624,1.0791015625
,33.9608343,0.95703125
,33.9813159,0.8251953125
,34.0322029,0.7080078125
,34.032681,0.6005859375
,34.0415386,0.5078125
,34.0585831,0.4248046875
,34.0793366,0.3662109375
,34.1257357,0.29296875
,34.1263931,0.234375
,34.1424712,0.1904296875
,34.1884492,0.205078125
,34.1889392,0.4345703125
,34.2014536,0.9326171875
,34.2373246,1.6015625
,34.2379013,2.1875
,34.2580739,2.6953125
,34.2952193,3.0810546875
,34.3028318,3.3154296875
,34.3222228,3.447265625
,34.3719712,3.4814453125
,34.3723449,3.427734375
,34.3831368,3.28125
,34.4190601,3.046875
,34.4194693,2.7685546875
,34.4532715,2.4755859375
,34.4749083,2.216796875
,34.4810019,2.0068359375
,34.5154357,1.8505859375
,34.5362778,1.71875
,34.5421122,1.6162109375
,34.5778338,1.5185546875
,34.582574,1.4208984375
,34.6199839,1.3134765625
,34.6227578,1.19140625
,34.6671338,1.0693359375
,34.6675097,0.9423828125
,34.6808802,0.8251953125
,34.7199654,0.712890625
,34.7205915,0.6103515625
,34.7560456,0.5224609375
,34.7750858,0.44921875
,34.777868,0.4052734375
,34.8120683,0.361328125
,34.8336403,0.2978515625
,34.8414638,0.244140625
,34.8804608,0.234375
,34.8808349,0.361328125
,34.9148419,0.7666015625
,34.9442294,1.4013671875
,34.9448902,1.9970703125
,34.9637927,2.51953125
,34.9806929,2.91015625
,35.0194314,3.1884765625
,35.0198004,3.33984375
,35.0407128,3.3935546875
,35.0839582,3.3447265625
,35.0845339,3.1982421875
,35.1292655,2.9736328125
,35.1297808,2.6904296875
,35.1406133,2.4267578125
,35.1901851,2.1875
,35.1905451,2.01171875
,35.2040274,1.865234375
,35.2220825,1.7626953125
,35.2577321,1.689453125
,35.2848398,1.6162109375
,35.2852202,1.54296875
,35.3232115,1.455078125
,35.3237983,1.357421875
,35.3603041,1.2548828125
,35.3609758,1.15234375
,35.3970226,1.0546875
,35.4018468,0.966796875
,35.4363514,0.87890625
,35.4572791,0.791015625
,35.4911739,0.712890625
,35.4915128,0.6396484375
,35.5054413,0.576171875
,35.5206851,0.5126953125
,35.5567719,0.4931640625
,35.5616919,0.60546875
,35.5972977,0.95703125
,35.6240701,1.5625
,35.6244492,2.1337890625
,35.6453177,2.65625
,35.6870771,3.046875
,35.6874414,3.3447265625
,35.700968,3.5107421875
,35.7369899,3.59375
,35.741816,3.5888671875
,35.7813303,3.5009765625
,35.7818145,3.3251953125
,35.8181231,3.0859375
,35.8414509,2.8271484375
,35.8459486,2.578125
,35.8621196,2.373046875
,35.8980338,2.216796875
,35.9058146,2.099609375
,35.923547,1.9775390625
,35.9425888,1.8896484375
,35.9781711,1.8017578125
,35.9830778,1.6943359375
,36.0040339,1.58203125
,36.0402955,1.455078125
,36.0442022,1.3232421875
,36.0886817,1.1962890625
,36.0890628,1.07421875
,36.1090491,0.9619140625
,36.1238362,0.8544921875
,36.1588841,0.7568359375
,36.1637468,0.6640625
,36.200088,0.5859375
,36.2296472,0.5126953125
,36.2300203,0.44921875
,36.2431158,0.4296875
,36.2627606,0.5126953125
,36.3067124,0.8544921875
,36.3070397,1.4111328125
,36.3249761,2.0361328125
,36.3610178,2.548828125
,36.3632022,2.9931640625
,36.3993842,3.30078125
,36.4304159,3.515625
,36.4311397,3.6279296875
,36.442078,3.6767578125
,36.4792701,3.642578125
,36.4852533,3.5302734375
,36.5030788,3.3447265625
,36.5376141,3.10546875
,36.5577298,2.8369140625
,36.5673386,2.59765625
,36.6163124,2.3974609375
,36.616707,2.236328125
,36.627053,2.1142578125
,36.6441074,1.9921875
,36.6942664,1.89453125
,36.6947726,1.7919921875
,36.70429,1.669921875
,36.7392021,1.5380859375
,36.7594011,1.3916015625
,36.7650712,1.240234375
,36.8038248,1.09375
,36.8043811,0.95703125
,36.8255898,0.8349609375
,36.8438915,0.72265625
,36.8790183,0.6201171875
,36.8998788,0.5322265625
,36.9057845,0.4541015625
,36.9427129,0.390625
,36.9431342,0.33203125
,36.9796969,0.302734375
,37.0052682,0.2685546875
,37.0056371,0.25390625
,37.0246695,0.3955078125
,37.06002,0.83984375
,37.084909,1.4453125
,37.0854966,2.0751953125
,37.120451,2.578125
,37.147121,3.0078125
,37.1476073,3.291015625
,37.1631451,3.49609375
,37.1998837,3.5986328125
,37.2048981,3.6181640625
,37.2541282,3.5693359375
,37.2544985,3.447265625
,37.2658192,3.2421875
,37.3025526,3.0078125
,37.3074234,2.7587890625
,37.3273068,2.5341796875
,37.348014,2.32421875
,37.3654058,2.158203125
,37.4101664,2.05078125
,37.4107582,1.953125
,37.425221,1.8408203125
,37.4639568,1.7236328125
,37.4643773,1.5869140625
,37.5006173,1.4404296875
,37.5219659,1.2841796875
,37.5292825,1.1181640625
,37.5437471,0.9619140625
,37.5787771,0.8203125
,37.599139,0.68359375
,37.6077279,0.556640625
,37.626413,0.4443359375
,37.6765871,0.3564453125
,37.6769458,0.302734375
,37.7059542,0.2734375
,37.7063377,0.2294921875
,37.7255962,0.1708984375
,37.759945,0.1220703125
,37.7654072,0.087890625
,37.8175275,0.0830078125
,37.8180236,0.2490234375
,37.8264985,0.7080078125
,37.8615331,1.3330078125
,37.8827281,1.9775390625
,37.884871,2.490234375
,37.9241513,2.9150390625
,37.9247543,3.193359375
,37.9602612,3.37890625
,37.9675899,3.447265625
,37.9868475,3.4423828125
,38.0321672,3.359375
,38.0328008,3.18359375
,38.0534115,2.9541015625
,38.0702959,2.6611328125
,38.0846653,2.4072265625
,38.1229438,2.1826171875
,38.1275108,2.021484375
,38.1689682,1.89453125
,38.1695147,1.7919921875
,38.1868583,1.6943359375
,38.2243224,1.6015625
,38.2265809,1.4990234375
,38.263412,1.38671875
,38.2842917,1.26953125
,38.2874906,1.1572265625
,38.3230783,1.0400390625
,38.3257343,0.91796875
,38.3608735,0.80078125
,38.3818436,0.693359375
,38.3875895,0.5908203125
,38.4239561,0.517578125
,38.4243161,0.4541015625
,38.4664649,0.4150390625
,38.4670188,0.380859375
,38.4972693,0.3515625
,38.5063963,0.33203125
,38.5449709,0.3125
,38.5455664,0.2880859375
,38.5814423,0.3173828125
,38.6025594,0.56640625
,38.6031825,1.0595703125
,38.6391938,1.7236328125
,38.6601146,2.3095703125
,38.6659922,2.822265625
,38.7123435,3.193359375
,38.7127303,3.4619140625
,38.7287856,3.5986328125
,38.7637359,3.6474609375
,38.7707385,3.623046875
,38.8197132,3.505859375
,38.8201163,3.310546875
,38.8257808,3.06640625
,38.8650546,2.7978515625
,38.8677661,2.5634765625
,38.9095952,2.3583984375
,38.9100948,2.197265625
,38.9307269,2.0751953125
,38.9657126,1.9677734375
,38.9683229,1.85546875
,38.9863457,1.748046875
,39.0204489,1.6357421875
,39.0406747,1.513671875
,39.0465592,1.3818359375
,39.0841023,1.240234375
,39.11236,1.1083984375
,39.112744,0.9765625
,39.1292878,0.8447265625
,39.1648402,0.72265625
,39.1652284,0.615234375
,39.1849087,0.52734375
,39.2217975,0.458984375
,39.252799,0.400390625
,39.253279,0.3564453125
,39.2689296,0.3173828125
,39.2844833,0.2783203125
,39.3045888,0.2685546875
,39.3254891,0.263671875
,39.3625852,0.33203125
,39.365615,0.6396484375
,39.4011939,1.23046875
,39.422003,1.8994140625
,39.4275076,2.4609375
,39.4633349,2.94921875
,39.4687204,3.2958984375
,39.5044225,3.544921875
,39.5094317,3.69140625
,39.5313293,3.6962890625
,39.5480509,3.6962890625
,39.5833899,3.5888671875
,39.6105914,3.408203125
,39.6109624,3.1591796875
,39.6289724,2.8955078125
,39.6730229,2.6318359375
,39.6734854,2.412109375
,39.7043725,2.2265625
,39.7049366,2.0751953125
,39.7404699,1.962890625
,39.7613284,1.8505859375
,39.768768,1.7431640625
,39.7892011,1.6259765625
,39.8284596,1.494140625
,39.8288686,1.3525390625
,39.8649212,1.2109375
,39.8690301,1.0595703125
,39.9025397,0.9228515625
,39.9077399,0.7861328125
,39.9468598,0.6689453125
,39.9472221,0.556640625
,39.9833924,0.46875
,40.0039872,0.390625
,40.0059138,0.3271484375
,40.0409911,0.29296875
,40.0749869,0.2734375
,40.0756212,0.244140625
,40.0874855,0.2001953125
,40.1243046,0.1611328125
,40.1288401,0.166015625
,40.1640212,0.3271484375
,40.1703459,0.810546875
,40.213261,1.455078125
,40.2136462,2.1142578125
,40.2344334,2.63671875
,40.251721,3.06640625
,40.2684988,3.349609375
,40.3053491,3.53515625
,40.3078777,3.603515625
,40.3528029,3.59375
,40.3531808,3.4912109375
,40.3742642,3.3154296875
,40.3923679,3.056640625
,40.4119156,2.7685546875
,40.4471737,2.4755859375
,40.4475358,2.2119140625
,40.4830586,2.0068359375
,40.5035261,1.8505859375
,40.5096256,1.7236328125
,40.5578923,1.611328125
,40.5582795,1.50390625
,40.5889827,1.3916015625
,40.5916899,1.2646484375
,40.607002,1.1328125
,40.6411435,0.99609375
,40.6625814,0.849609375
,40.6705555,0.7080078125
,40.7056667,0.5712890625
,40.7133776,0.458984375
,40.7307344,0.3564453125
,40.765483,0.2734375
,40.7858877,0.2294921875
,40.7892192,0.1904296875
,40.8401909,0.13671875
,40.8405655,0.09765625
,40.8494387,0.0732421875
,40.8870902,0.0537109375
,40.8916527,0.05859375
,40.9260356,0.05859375
,40.9320314,0.0830078125
,40.9467747,0.185546875
,40.973955,0.5615234375
,40.9898083,1.1474609375
,41.0227328,1.8505859375
,41.0450684,2.44140625
,41.0520555,2.8759765625
,41.0710394,3.1982421875
,41.1219835,3.369140625
,41.1223469,3.4326171875
,41.1524841,3.3935546875
,41.1530757,3.2470703125
,41.1694103,3.0078125
,41.2066544,2.7001953125
,41.2072503,2.3974609375
,41.2458773,2.109375
,41.2753698,1.8896484375
,41.2757372,1.71875
,41.2927063,1.5869140625
,41.3141439,1.4892578125
,41.3526909,1.4111328125
,41.3530646,1.337890625
,41.3698096,1.26953125
,41.4154359,1.201171875
,41.415891,1.1279296875
,41.4448576,1.044921875
,41.450625,0.9521484375
,41.4874428,0.869140625
,41.492808,0.7861328125
,41.5080046,0.712890625
,41.5448818,0.6494140625
,41.5507761,0.595703125
,41.5859248,0.5517578125
,41.5908174,0.5126953125
,41.6266893,0.478515625
,41.6470208,0.44921875
,41.6531449,0.4345703125
,41.6933837,0.4736328125
,41.6939884,0.673828125
,41.7302214,1.1767578125
,41.730595,1.8115234375
,41.7642435,2.4267578125
,41.7862367,2.91015625
,41.793631,3.2958984375
,41.8136009,3.525390625
,41.8613986,3.662109375
,41.8619944,3.65234375
,41.8732516,3.53515625
,41.8907645,3.3251953125
,41.9397614,3.0517578125
,41.9403657,2.75390625
,41.9502918,2.4609375
,42.0018759,2.216796875
,42.002257,2.0263671875
,42.0313495,1.8896484375
,42.0317267,1.787109375
,42.0662647,1.69921875
,42.0860076,1.62109375
,42.0916516,1.54296875
,42.142093,1.4697265625
,42.1424621,1.3720703125
,42.1533265,1.26953125
,42.172093,1.162109375
,42.2110027,1.0546875
,42.2114199,0.9521484375
,42.2299261,0.859375
,42.2815013,0.771484375
,42.2821167,0.6884765625
,42.2919741,0.6201171875
,42.3130112,0.556640625
,42.3487716,0.5029296875
,42.3545026,0.4931640625
,42.3885918,0.64453125
,42.3936251,1.0986328125
,42.4305839,1.71875
,42.4340466,2.34375
,42.4517354,2.8515625
,42.48579,3.26171875
,42.5067417,3.5205078125
,42.5123931,3.681640625
,42.5635797,3.6962890625
,42.5644032,3.6962890625
,42.5738602,3.5986328125
,42.606874,3.3984375
,42.6275964,3.134765625
,42.630636,2.8515625
,42.6666861,2.578125
,42.6718604,2.353515625
,42.7077184,2.16796875
,42.7132245,2.03125
,42.7489125,1.923828125
,42.7529021,1.8212890625
,42.7901809,1.728515625
,42.7905703,1.6259765625
,42.8261236,1.5234375
,42.8481482,1.4111328125
,42.8526102,1.2939453125
,42.8736142,1.1767578125
,42.8941665,1.064453125
,42.9294029,0.9521484375
,42.9353181,0.849609375
,42.9726861,0.7470703125
,42.9732849,0.6591796875
,43.0079499,0.5615234375
,43.0107901,0.537109375
,43.0478964,0.751953125
,43.0798842,1.2353515625
,43.0805205,1.8603515625
,43.0948255,2.40234375
,43.1305616,2.880859375
,43.1365971,3.232421875
,43.1557858,3.486328125
,43.1728959,3.623046875
,43.1919531,3.6962890625
,43.2279271,3.6865234375
,43.234225,3.5986328125
,43.2702087,3.4326171875
,43.2732674,3.2080078125
,43.3143335,2.9541015625
,43.3146991,2.705078125
,43.3353639,2.4853515625
,43.3526614,2.3095703125
,43.3871817,2.1728515625
,43.3921222,2.0654296875
,43.4263323,1.9580078125
,43.4465697,1.8408203125
,43.4546703,1.7236328125
,43.5022075,1.591796875
,43.5025828,1.4501953125
,43.5127359,1.3134765625
,43.5485659,1.1767578125
,43.580312,1.0498046875
,43.5811994,0.9326171875
,43.5958958,0.810546875
,43.6163298,0.693359375
,43.6349968,0.5810546875
,43.650919,0.4833984375
,43.6706737,0.439453125
,43.7072213,0.52734375
,43.7339633,0.859375
,43.7344019,1.376953125
,43.7698304,1.9775390625
,43.7727851,2.4609375
,43.8083831,2.87109375
,43.8285892,3.154296875
,43.8343531,3.3447265625
,43.8716451,3.4375
,43.8760714,3.466796875
,43.9107003,3.4033203125
,43.9318293,3.26171875
,43.9323072,3.056640625
,43.9676773,2.8173828125
,43.9905925,2.568359375
,43.9947331,2.3583984375
,44.0325976,2.1728515625
,44.0526964,2.041015625
,44.0550885,1.93359375
,44.0727488,1.8310546875
,44.1109002,1.7431640625
,44.1114083,1.630859375
,44.1491886,1.4990234375
,44.1539969,1.3623046875
,44.1870018,1.2158203125
,44.2089735,1.064453125
,44.2164542,0.927734375
,44.2525709,0.791015625
,44.2530613,0.673828125
,44.2889029,0.5712890625
,44.3135551,0.4833984375
,44.3140815,0.3857421875
,44.3595129,0.3076171875
,44.3602347,0.2392578125
,44.3712979,0.2197265625
,44.4072039,0.380859375
,44.4281159,0.80078125
,44.4381181,1.3623046875
,44.4535263,1.9189453125
,44.4874157,2.421875
,44.5086644,2.783203125
,44.5154349,3.056640625
,44.5501724,3.212890625
,44.5565671,3.2763671875
,44.5919008,3.2666015625
,44.5963691,3.154296875
,44.640602,2.9638671875
,44.640975,2.71484375
,44.6720429,2.4560546875
,44.6765288,2.2265625
,44.6957811,2.041015625
,44.7330183,1.9140625
,44.7359888,1.8212890625
,44.7817926,1.7431640625
,44.7823921,1.6748046875
,44.7930583,1.5966796875
,44.8288816,1.5185546875
,44.8574917,1.4208984375
,44.857867,1.30859375
,44.8759326,1.1865234375
,44.9218204,1.0693359375
,44.9223056,0.9521484375
,44.9370112,0.83984375
,44.9582798,0.732421875
,44.9738952,0.6396484375
,45.0112683,0.556640625
,45.0137433,0.478515625
,45.0610878,0.41015625
,45.0616614,0.400390625
,45.0763534,0.5810546875
,45.1105656,1.0302734375
,45.1316319,1.630859375
,45.1383261,2.16796875
,45.1731843,2.626953125
,45.1782427,3.0078125
,45.1948916,3.26171875
,45.2310786,3.4375
,45.2610545,3.5107421875
,45.2616501,3.515625
,45.2773257,3.4375
,45.3120664,3.28125
,45.3175383,3.0810546875
,45.3540724,2.8515625
,45.3544692,2.6416015625
,45.3872769,2.470703125
,45.4072429,2.333984375
,45.4159138,2.216796875
,45.4355944,2.1240234375
,45.471162,2.0361328125
,45.4936363,1.93359375
,45.4985242,1.826171875
,45.5339886,1.689453125
,45.5343575,1.552734375
,45.5716925,1.40625
,45.6039025,1.2646484375
,45.6046,1.123046875
,45.6182228,0.99609375
,45.6660805,0.87890625
,45.6666797,0.771484375
,45.6798497,0.6689453125
,45.6955288,0.576171875
,45.7299986,0.498046875
,45.7513009,0.4443359375
,45.757511,0.52734375
,45.7914361,0.869140625
,45.7985132,1.4306640625
,45.8363714,2.0166015625
,45.8395806,2.509765625
,45.8596222,2.9345703125
,45.8935005,3.2373046875
,45.8993915,3.4619140625
,45.916196,3.583984375
,45.9509289,3.65234375
,45.9573829,3.6376953125
,46.0064696,3.5498046875
,46.0068281,3.3984375
,46.0186989,3.1982421875
,46.0530225,2.98828125
,46.0748041,2.783203125
,46.0753933,2.6123046875
,46.1104152,2.4755859375
,46.1170056,2.3583984375
,46.1371822,2.255859375
,46.1727196,2.1435546875
,46.1782253,2.0361328125
,46.1977036,1.904296875
,46.241608,1.7626953125
,46.2420578,1.6015625
,46.2617128,1.4404296875
,46.2755803,1.279296875
,46.3095514,1.1279296875
,46.330906,0.9814453125
,46.3380239,0.8544921875
,46.3730516,0.732421875
,46.3938364,0.6201171875
,46.3994789,0.517578125
,46.415614,0.4248046875
,46.4499413,0.37109375
,46.4703493,0.4638671875
,46.4766001,0.8251953125
,46.5092574,1.376953125
,46.5300964,1.9140625
,46.5395823,2.412109375
,46.5845839,2.79296875
,46.5849525,3.1005859375
,46.6005788,3.2958984375
,46.6359392,3.4228515625
,46.6367704,3.4619140625
,46.6566096,3.4521484375
,46.6904277,3.359375
,46.7109928,3.1884765625
,46.7193237,2.9833984375
,46.7540887,2.75390625
,46.7602918,2.5537109375
,46.8009906,2.3828125
,46.8016894,2.2412109375
,46.8177817,2.1240234375
,46.8553422,2.0263671875
,46.8560827,1.9287109375
,46.8962642,1.806640625
,46.9258238,1.6796875
,46.9263625,1.5283203125
,46.940658,1.3671875
,46.9757255,1.1962890625
,46.9764143,1.025390625
,47.0201251,0.8642578125
,47.0205708,0.7177734375
,47.0674916,0.5859375
,47.0681879,0.46875
,47.078866,0.3564453125
,47.1137962,0.2587890625
,47.1141572,0.1708984375
,47.1504076,0.1171875
,47.1718622,0.1171875
,47.1774258,0.2783203125
,47.2133665,0.7080078125
,47.2184243,1.2890625
,47.252349,1.826171875
,47.2732642,2.3046875
,47.2803118,2.65625
,47.3293072,2.9296875
,47.3296759,3.095703125
,47.3421318,3.1884765625
,47.3592116,3.2080078125
,47.4085102,3.1591796875
,47.4092338,3.0322265625
,47.4188289,2.8369140625
,47.440701,2.607421875
,47.4768479,2.3828125
,47.4799454,2.1826171875
,47.5178072,2.0361328125
,47.5223264,1.9140625
,47.5383244,1.81640625
,47.5768209,1.73828125
,47.5773146,1.6455078125
,47.6146551,1.5234375
,47.6378985,1.3818359375
,47.6389657,1.2255859375
,47.6742426,1.0693359375
,47.6957141,0.9033203125
,47.6984699,0.751953125
,47.7182635,0.60546875
,47.7538109,0.4736328125
,47.7597008,0.3564453125
,47.7806643,0.25390625
,47.8155834,0.1611328125
,47.8208664,0.0830078125
,47.838223,0.029296875
,47.8580549,0.0634765625
,47.893221,0.2880859375
,47.8980905,0.7861328125
,47.9342633,1.357421875
,47.9548407,1.93359375
,47.9601579,2.3779296875
,47.9958411,2.7392578125
,48.0005591,2.978515625
,48.0235331,3.14453125
,48.0428803,3.212890625
,48.0788261,3.2275390625
,48.0815801,3.14453125
,48.1005302,3.0029296875
,48.1185367,2.802734375
,48.139275,2.5927734375
,48.1596267,2.3974609375
,48.1973704,2.2412109375
,48.2029286,2.1240234375
,48.2430097,2.03125
,48.2433881,1.9482421875
,48.2602748,1.865234375
,48.2961912,1.7724609375
,48.2989995,1.6650390625
,48.3337842,1.5380859375
,48.3535833,1.4013671875
,48.3616038,1.25
,48.3825381,1.0986328125
,48.4199617,0.95703125
,48.4205508,0.8154296875
,48.4412587,0.693359375
,48.4609023,0.5908203125
,48.4973378,0.498046875
,48.5005471,0.4150390625
,48.5356768,0.3369140625
,48.5406048,0.2734375
,48.5752271,0.234375
,48.6050605,0.37109375
,48.6055565,0.7666015625
,48.6215079,1.34765625
,48.6687223,1.904296875
,48.6696694,2.4169921875
,48.6804908,2.8125
,48.7170593,3.1396484375
,48.7228978,3.3642578125
,48.7601617,3.4912109375
,48.762111,3.5498046875
,48.7956408,3.5302734375
,48.8165433,3.4375
,48.8170647,3.2763671875
,48.8546615,3.0712890625
,48.8742708,2.8564453125
,48.8803969,2.646484375
,48.9139345,2.48046875
,48.935811,2.3388671875
,48.9436321,2.2216796875
,48.9808275,2.119140625
,48.9812856,2.0166015625
,49.0255378,1.9091796875
,49.0259124,1.787109375
,49.0403035,1.650390625
,49.0762308,1.4892578125
,49.0814649,1.3232421875
,49.102585,1.1474609375
,49.1397095,0.9814453125
,49.1426538,0.8251953125
,49.1605031,0.6884765625
,49.1979168,0.56640625
,49.201093,0.458984375
,49.2368441,0.37109375
,49.262194,0.2880859375
,49.262784,0.21484375
,49.2780139,0.1513671875
,49.3135035,0.15625
,49.3345584,0.302734375
,49.3437164,0.751953125
,49.3648363,1.3232421875
,49.3805224,1.865234375
,49.4154682,2.3876953125
,49.4367806,2.7685546875
,49.4421652,3.0712890625
,49.4774526,3.26171875
,49.483567,3.3837890625
,49.5201212,3.427734375
,49.5246181,3.3984375
,49.5414384,3.2958984375
,49.5616913,3.1298828125
,49.5972367,2.9248046875
,49.6023256,2.705078125
,49.6371899,2.509765625
,49.6569686,2.333984375
,49.6636711,2.1923828125
,49.6980234,2.0751953125
,49.7036278,1.9677734375
,49.7204101,1.865234375
,49.7691471,1.748046875
,49.7695155,1.611328125
,49.7995978,1.455078125
,49.800054,1.2841796875
,49.844851,1.103515625
,49.8452151,0.91796875
,49.8647728,0.7470703125
,49.880824,0.5859375
,49.9158747,0.44921875
,49.9209195,0.33203125
,49.955125,0.234375
,49.984207,0.1513671875
,49.9845797,0.09765625
,49.9999333,0.0390625
,50.0203292,0.0146484375
,50.0548652,0.0048828125
,50.0762677,0.0048828125
,50.0813972,0.05859375
,50.1177838,0.41015625
,50.1220651,1.0205078125
,50.1722345,1.6357421875
,50.1726577,2.20703125
,50.1836399,2.63671875
,50.2203072,2.978515625
,50.2232129,3.1982421875
,50.263048,3.3349609375
,50.263614,3.388671875
,50.2926161,3.37890625
,50.3022997,3.28125
,50.3236312,3.1103515625
,50.3593007,2.880859375
,50.3635365,2.6416015625
,50.3847859,2.4169921875
,50.4051331,2.2216796875
,50.4391888,2.0703125
,50.4599115,1.9482421875
,50.4628614,1.85546875
,50.4990632,1.7578125
,50.5035433,1.6552734375
,50.540189,1.5380859375
,50.5425677,1.4013671875
,50.5882414,1.2548828125
,50.5885588,1.083984375
,50.6097242,0.91796875
,50.6227163,0.771484375
,50.6421367,0.625
,50.6805883,0.4931640625
,50.6808984,0.3662109375
,50.714965,0.2490234375
,50.7352701,0.13671875
,50.7401335,0.048828125
,50.7735003,0.0048828125
,50.7945844,0.0048828125
,50.8019962,0.0048828125
,50.8505783,0.0341796875
,50.8509436,0.4443359375
,50.8722755,1.03515625
,50.884872,1.6748046875
,50.9049274,2.1923828125
,50.9389075,2.6123046875
,50.9591943,2.9150390625
,50.9661471,3.0859375
,51.0057291,3.1787109375
,51.0063222,3.18359375
,51.0346734,3.1201171875
,51.0422429,2.978515625
,51.0810251,2.7734375
,51.1012439,2.5439453125
,51.1036778,2.32421875
,51.1371246,2.1435546875
,51.1583782,2.01171875
,51.162979,1.9189453125
,51.2055296,1.8505859375
,51.206118,1.7822265625
,51.2239752,1.7138671875
,51.2589984,1.6357421875
,51.2808102,1.5380859375
,51.2853814,1.42578125
,51.3210667,1.3037109375
,51.3271706,1.1767578125
,51.3432633,1.0546875
,51.3783936,0.9423828125
,51.4041993,0.8349609375
,51.4045813,0.732421875
,51.4389383,0.634765625
,51.4597762,0.5419921875
,51.462671,0.458984375
,51.498807,0.4248046875
,51.5191428,0.5029296875
,51.5270834,0.830078125
,51.5433432,1.3623046875
,51.5792025,1.962890625
,51.5842665,2.4755859375
,51.6219762,2.8662109375
,51.6430426,3.1689453125
,51.6434925,3.359375
,51.6865124,3.466796875
,51.7151741,3.49609375
,51.7159397,3.4423828125
,51.7225951,3.3056640625
,51.75752,3.1103515625
,51.7786865,2.8759765625
,51.7834308,2.626953125
,51.8174428,2.4072265625
,51.8394543,2.2216796875
,51.8476714,2.0751953125
,51.8855405,1.9482421875
,51.8858802,1.8310546875
,51.9037869,1.728515625
,51.9470505,1.6064453125
,51.9473702,1.484375
,51.981327,1.34765625
,51.9854028,1.2255859375
,52.0218345,1.0888671875
,52.0269209,0.9521484375
,52.0630939,0.8154296875
,52.063694,0.68359375
,52.0839344,0.556640625
,52.1201531,0.4443359375
,52.1252258,0.341796875
,52.1609743,0.25390625
,52.1652739,0.2685546875
,52.2030435,0.517578125
,52.2062877,1.0546875
,52.2441127,1.66015625
,52.2473303,2.16796875
,52.2676864,2.5927734375
,52.2846256,2.8857421875
,52.3053761,3.1005859375
,52.3452851,3.1982421875
,52.3458931,3.2275390625
,52.3659264,3.18359375
,52.4063257,3.056640625
,52.4068111,2.8662109375
,52.4454319,2.6123046875
,52.4458652,2.333984375
,52.4797575,2.0751953125
,52.4849523,1.85546875
,52.5213428,1.6748046875
,52.5271295,1.54296875
,52.5610562,1.4453125
,52.5813028,1.3623046875
,52.5870184,1.2890625
,52.6238372,1.2109375
,52.6243601,1.1279296875
,52.6607208,1.0400390625
,52.665492,0.9423828125
,52.7182036,0.83984375
,52.7191906,0.732421875
,52.7285616,0.6201171875
,52.7645052,0.5126953125
,52.7651003,0.400390625
,52.8013516,0.3173828125
,52.8043392,0.263671875
,52.8400098,0.3759765625
,52.8462671,0.8251953125
,52.8816064,1.435546875
,52.8877571,1.9921875
,52.9238274,2.4853515625
,52.943917,2.8564453125
,52.9489663,3.1298828125
,52.9857712,3.28125
,52.990269,3.3447265625
,53.0061832,3.3203125
,53.0402824,3.203125
,53.0595406,2.9931640625
,53.0671931,2.6806640625
,53.1033793,2.34375
,53.1080688,2.0068359375
,53.1516466,1.7333984375
,53.152199,1.5087890625
,53.1654778,1.3427734375
,53.1996648,1.2158203125
,53.2211254,1.1083984375
,53.2264184,1.015625
,53.2611623,0.9130859375
,53.2858053,0.80078125
,53.2861982,0.68359375
,53.3230127,0.556640625
,53.3558585,0.4150390625
,53.3564632,0.2978515625
,53.3654036,0.1611328125
,53.4006089,0.0439453125
,53.4215862,0.0048828125
,53.421962,0.0048828125
,53.4583917,0.0244140625
,53.4805018,0.419921875
,53.4891222,1.064453125
,53.5245712,1.6796875
,53.5251194,2.177734375
,53.5718176,2.578125
,53.5722215,2.8369140625
,53.5930638,2.998046875
,53.6072401,3.0517578125
,53.6427744,3.017578125
,53.6639296,2.8759765625
,53.67114,2.6318359375
,53.6893046,2.3388671875
,53.7246037,2.0361328125
,53.7471825,1.767578125
,53.7477869,1.552734375
,53.7834008,1.38671875
,53.7882137,1.259765625
,53.8090269,1.1572265625
,53.8447296,1.0791015625
,53.8495327,1.0009765625
,53.8878786,0.9228515625
,53.8884961,0.8349609375
,53.9066151,0.7421875
,53.9424002,0.6494140625
,53.9615492,0.5615234375
,53.9682468,0.4736328125
,54.0098293,0.380859375
,54.0103147,0.302734375
,54.0268866,0.29296875
,54.0494336,0.5126953125
,54.066988,0.966796875
,54.1027394,1.5869140625
,54.1219514,2.1240234375
,54.1270217,2.5927734375
,54.164151,2.939453125
,54.1954582,3.14453125
,54.19605,3.26171875
,54.2092941,3.2763671875
,54.2441883,3.203125
,54.2720547,3.02734375
,54.2725255,2.7734375
,54.2891617,2.4951171875
,54.3344378,2.2119140625
,54.3347996,1.982421875
,54.3484759,1.796875
,54.3844733,1.6552734375
,54.3894998,1.552734375
,54.4246981,1.4599609375
,54.4469289,1.376953125
,54.4475235,1.2939453125
,54.4843185,1.2158203125
,54.4873,1.123046875
,54.5229502,1.015625
,54.5433806,0.8984375
,54.5514277,0.78125
,54.5857964,0.6591796875
,54.5915765,0.556640625
,54.6255339,0.52734375
,54.6282084,0.712890625
,54.6620881,1.220703125
,54.682048,1.7919921875
,54.6887779,2.353515625
,54.7103093,2.79296875
,54.7441952,3.1591796875
,54.7649295,3.3984375
,54.7705716,3.5546875
,54.791491,3.6181640625
,54.808119,3.603515625
,54.8432197,3.505859375
,54.8641497,3.33984375
,54.8693073,3.10546875
,54.9147723,2.841796875
,54.9154473,2.5830078125
,54.9308344,2.36328125
,54.9766892,2.177734375
,54.9772808,2.041015625
,54.9897203,1.9482421875
,55.0258939,1.85546875
,55.0292393,1.767578125
,55.0639123,1.6650390625
,55.0841347,1.54296875
,55.0899236,1.40625
,55.1270899,1.26953125
,55.1322979,1.1181640625
,55.169903,0.9716796875
,55.1705184,0.830078125
,55.1877411,0.76171875
,55.2266146,0.9326171875
,55.2310325,1.3427734375
,55.2513825,1.865234375
,55.2719346,2.32421875
,55.3081305,2.7392578125
,55.3113002,3.056640625
,55.3462096,3.30078125
,55.366659,3.45703125
,55.3713426,3.5546875
,55.3907169,3.5693359375
,55.4409869,3.505859375
,55.4413631,3.3642578125
,55.4498675,3.1591796875
,55.4856188,2.919921875
,55.5066462,2.6904296875
,55.5123372,2.4853515625
,55.5281641,2.314453125
,55.5638324,2.1826171875
,55.5951715,2.080078125
,55.5956578,1.9873046875
,55.6091604,1.89453125
,55.6566677,1.7822265625
,55.6571697,1.6552734375
,55.6715644,1.513671875
,55.6878026,1.357421875
,55.7248326,1.19140625
,55.7291061,1.025390625
,55.7644452,0.8740234375
,55.7715613,0.712890625
,55.812393,0.576171875
,55.8127667,0.537109375
,55.8304588,0.7568359375
,55.8685099,1.2255859375
,55.8878601,1.728515625
,55.8934054,2.216796875
,55.9090302,2.607421875
,55.9545212,2.94921875
,55.9548818,3.18359375
,55.9846469,3.349609375
,55.9911825,3.4375
,56.0272469,3.466796875
,56.0326456,3.4130859375
,56.067741,3.2861328125
,56.0726366,3.1103515625
,56.090705,2.8955078125
,56.1386324,2.6806640625
,56.1390998,2.4951171875
,56.1509649,2.3388671875
,56.1856039,2.2021484375
,56.2061005,2.08984375
,56.210356,1.9873046875
,56.2466012,1.875
,56.2662108,1.7578125
,56.2686216,1.640625
,56.3032496,1.5087890625
,56.3251435,1.357421875
,56.3323435,1.201171875
,56.3688037,1.03515625
,56.3715459,0.8740234375
,56.4069248,0.7275390625
,56.4348727,0.576171875
,56.4351731,0.44921875
,56.4512781,0.33203125
,56.4859523,0.283203125
,56.4905738,0.478515625
,56.5258638,0.9130859375
,56.5467538,1.46484375
,56.5548599,1.9677734375
,56.5731695,2.4267578125
,56.6117034,2.7783203125
,56.6120818,3.06640625
,56.6306396,3.251953125
,56.6511557,3.37890625
,56.6871197,3.4228515625
,56.7191888,3.388671875
,56.7197967,3.2763671875
,56.7333672,3.1005859375
,56.7708829,2.890625
,56.7761002,2.67578125
,56.8107268,2.48046875
,56.81109,2.3095703125
,56.8561469,2.16796875
,56.8565093,2.060546875
,56.8874241,1.9580078125
,56.8920145,1.8505859375
,56.92791,1.7333984375
,56.932891,1.611328125
,56.968119,1.4599609375
,56.98909,1.298828125
,56.9895867,1.1279296875
,57.0282285,0.9521484375
,57.032693,0.7861328125
,57.0517469,0.6298828125
,57.0893009,0.498046875
,57.1106028,0.556640625
,57.1111198,0.400390625
,57.1301364,0.2734375
,57.1498905,0.15625
,57.1977541,0.0341796875
,57.198119,0.01953125
,57.2118839,0.302734375
,57.2455578,0.8056640625
,57.2668976,1.3916015625
,57.2745391,1.9189453125
,57.3113839,2.3828125
,57.3138963,2.724609375
,57.3503191,2.9931640625
,57.3821051,3.1787109375
,57.3824715,3.2666015625
,57.3913319,3.291015625
,57.4276038,3.232421875
,57.4328126,3.095703125
,57.4686829,2.900390625
,57.4896133,2.666015625
,57.4947129,2.4462890625
,57.5322208,2.24609375
,57.5328077,2.0849609375
,57.5513194,1.97265625
,57.6038156,1.875
,57.6044259,1.77734375
,57.6149895,1.6796875
,57.650595,1.5576171875
,57.6527698,1.4208984375
,57.6992379,1.259765625
,57.6998326,1.083984375
,57.7285689,0.908203125
,57.7307607,0.7421875
,57.7755171,0.5908203125
,57.7762484,0.4443359375
,57.7951989,0.322265625
,57.8289108,0.2099609375
,57.8486792,0.107421875
,57.8514641,0.0439453125
,57.8849774,0.0048828125
,57.9055324,0.0048828125
,57.9133832,0.0048828125
,57.9477862,0.3369140625
,57.9540413,0.8837890625
,57.9740554,1.494140625
,58.0118809,2.0458984375
,58.0166755,2.4609375
,58.0518473,2.8076171875
,58.0546117,3.0322265625
,58.0913379,3.1884765625
,58.1164937,3.2470703125
,58.1168746,3.232421875
,58.1331692,3.134765625
,58.169996,2.9541015625
,58.1750986,2.734375
,58.2118875,2.490234375
,58.214678,2.2705078125
,58.2500394,2.080078125
,58.2723057,1.943359375
,58.2727865,1.8359375
,58.3098629,1.748046875
,58.3143733,1.669921875
,58.3645199,1.5673828125
,58.3648812,1.455078125
,58.3761773,1.3232421875
,58.411428,1.1767578125
,58.416215,1.0205078125
,58.432113,0.869140625
,58.4666488,0.7470703125
,58.4879293,0.615234375
,58.4960752,0.48828125
,58.5315329,0.3759765625
,58.5363797,0.2685546875
,58.5534994,0.1708984375
,58.5739377,0.1171875
,58.5923538,0.0830078125
,58.6276574,0.1611328125
,58.6489245,0.5615234375
,58.6538766,1.1083984375
,58.7030644,1.7041015625
,58.7034429,2.20703125
,58.7154629,2.6318359375
,58.7502086,2.9443359375
,58.7555543,3.1591796875
,58.7941631,3.2763671875
,58.8006017,3.3154296875
,58.8148633,3.2763671875
,58.8594885,3.1640625
,58.8598588,2.9833984375
,58.873987,2.7587890625
,58.9227698,2.529296875
,58.9232244,2.3095703125
,58.9514117,2.1337890625
,58.9571321,1.9921875
,58.9924964,1.875
,58.9928572,1.7724609375
,59.0128814,1.6650390625
,59.0477279,1.5478515625
,59.06936,1.416015625
,59.0752044,1.2646484375
,59.108644,1.1083984375
,59.1292185,0.947265625
,59.1370592,0.78125
,59.1530484,0.6298828125
,59.1870927,0.498046875
,59.2080216,0.37109375
,59.2150662,0.25390625
,59.2641565,0.1513671875
,59.2647625,0.05859375
,59.273033,0.0048828125
,59.309509,0.0048828125
,59.3313248,0.029296875
,59.3317315,0.380859375
,59.3668607,0.99609375
,59.4003995,1.58203125
,59.4007712,2.1533203125
,59.415935,2.587890625
,59.4632463,2.9638671875
,59.4636148,3.193359375
,59.4774643,3.349609375
,59.5131615,3.4130859375
,59.5400755,3.408203125
,59.5404444,3.3203125
,59.5537167,3.154296875
,59.5914103,2.9345703125
,59.5940613,2.685546875
,59.634117,2.431640625
,59.6634271,2.2216796875
,59.6637947,2.060546875
,59.6782304,1.93359375
,59.696858,1.826171875
,59.716342,1.7236328125
,59.7502186,1.6162109375
,59.7552199,1.4990234375
,59.7897522,1.357421875
,59.8100956,1.201171875
,59.8156578,1.0302734375
,59.8522454,0.8740234375
,59.8729898,0.7080078125
,59.8733515,0.5615234375
,59.9073694,0.4248046875
,59.9291588,0.3173828125
,59.934722,0.21484375
,59.9706528,0.126953125
,59.973904,0.048828125
,60.009487,0.0048828125
,60.0314815,0.0048828125
,60.0318619,0.0048828125
,60.0677298,0.1171875
,60.0886698,0.6298828125
,60.0961025,1.240234375
,60.1343255,1.884765625
,60.1347375,2.3974609375
,60.1822265,2.83203125
,60.1827018,3.1396484375
,60.2118418,3.349609375
,60.2203085,3.45703125
,60.238968,3.49609375
,60.2734421,3.4521484375
,60.2948553,3.3203125
,60.2955157,3.125
,60.3321082,2.8857421875
,60.3536045,2.6171875
,60.3581605,2.3681640625
,60.3965317,2.1435546875
,60.3969131,1.982421875
,60.4335657,1.8408203125
,60.4610103,1.7236328125
,60.461579,1.6064453125
,60.4772662,1.4794921875
,60.5129242,1.3330078125
,60.5164964,1.1767578125
,60.5535509,0.99609375
,60.5586331,0.830078125
,60.5950545,0.6640625
,60.5980796,0.5029296875
,60.6171089,0.361328125
,60.6343574,0.2392578125
,60.6768023,0.1318359375
,60.6774023,0.0439453125
,60.7070904,0.0048828125
,60.7158282,0.0048828125
,60.753784,0.0048828125
,60.7541574,0.0048828125
,60.7735961,0.0048828125
,60.8099518,0.05859375
,60.8304013,0.5859375
,60.8372575,1.259765625
,60.8731928,1.865234375
,60.8780267,2.3974609375
,60.9151309,2.802734375
,60.9183023,3.06640625
,60.9543109,3.232421875
,60.9597449,3.30078125
,60.997274,3.291015625
,60.997735,3.1884765625
,61.0350984,2.998046875
,61.0355222,2.7392578125
,61.0714902,2.431640625
,61.0916187,2.138671875
,61.0991922,1.875
,61.1361456,1.6748046875
,61.1390869,1.50390625
,61.1564394,1.3720703125
,61.1935716,1.259765625
,61.1960179,1.15234375
,61.2304527,1.044921875
,61.2518051,0.9228515625
,61.259053,0.7958984375
,61.3030199,0.6591796875
,61.3036362,0.5322265625
,61.3151576,0.400390625
,61.3524413,0.3125
,61.3575729,0.2099609375
,61.3947877,0.1220703125
,61.3976596,0.0537109375
,61.4138378,0.0048828125
,61.4348084,0.0048828125
,61.4744562,0.0048828125
,61.4748282,0.0048828125
,61.4941676,0.0048828125
,61.537467,0.0390625
,61.5379803,0.4296875
,61.5584256,1.0693359375
,61.5788816,1.7578125
,61.6141511,2.3193359375
,61.6194037,2.79296875
,61.661094,3.1103515625
,61.6616206,3.3251953125
,61.6832662,3.4130859375
,61.7007739,3.4033203125
,61.7172242,3.2958984375
,61.7548802,3.0859375
,61.775852,2.822265625
,61.7804091,2.509765625
,61.8172759,2.2314453125
,61.8178044,1.9873046875
,61.8537364,1.8017578125
,61.8736617,1.66015625
,61.880932,1.54296875
,61.8966382,1.4404296875
,61.9373546,1.3623046875
,61.9377365,1.2646484375
,61.9719998,1.1572265625
,61.9920735,1.044921875
,61.9996436,1.0009765625
,62.0384895,1.19140625
,62.0407759,0.9521484375
,62.0585576,0.7666015625
,62.09555159999999,0.6201171875
,62.1002206,0.498046875
,62.136687300000006,0.390625
,62.137279899999996,0.2978515625
,62.1723174,0.2294921875
,62.193222199999994,0.166015625
,62.2008146,0.1220703125
,62.236008600000005,0.146484375
,62.256048699999994,0.37109375
,62.26151659999999,0.9521484375
,62.2784341,1.6162109375
,62.31102370000001,2.265625
,62.33194949999999,2.763671875
,62.3390589,3.1640625
,62.3883761,3.4130859375
,62.3887438,3.5546875
,62.403166,3.583984375
,62.439187000000004,3.525390625
,62.4397855,3.3740234375
,62.4739003,3.1298828125
,62.479123799999996,2.83203125
,62.5145151,2.5244140625
,62.5200205,2.236328125
,62.54197619999999,2.01171875
,62.5775761,1.8408203125
,62.5802867,1.7041015625
,62.618279799999996,1.591796875
,62.61870999999999,1.494140625
,62.638687000000004,1.4013671875
,62.674716000000004,1.298828125
,62.6799388,1.19140625
,62.714499200000006,1.07421875
,62.734387,0.9521484375
,62.74044069999999,0.8349609375
,62.7754307,0.7177734375
,62.7960466,0.6103515625
,62.8032917,0.517578125
,62.8206268,0.41015625
,62.8572856,0.3369140625
,62.86259200000001,0.2734375
,62.879954,0.2197265625
,62.9144843,0.1708984375
,62.936090699999994,0.1904296875
,62.943339800000004,0.4345703125
,62.9788415,0.966796875
,62.981347,1.669921875
,62.9995203,2.2802734375
,63.034930599999996,2.8125
,63.0388834,3.193359375
,63.086451,3.4619140625
,63.087148600000006,3.5986328125
,63.1070527,3.642578125
,63.1219536,3.5888671875
,63.16454709999999,3.4423828125
,63.1649096,3.193359375
,63.180659899999995,2.900390625
,63.2004754,2.5830078125
,63.235895400000004,2.2998046875
,63.240339500000005,2.0556640625
,63.276596,1.8701171875
,63.280605699999995,1.71875
,63.3174257,1.5966796875
,63.32267830000001,1.4892578125
,63.337953,1.3916015625
,63.374696400000005,1.2841796875
,63.380858399999994,1.181640625
,63.4152548,1.0595703125
,63.435811099999995,0.9423828125
,63.441295600000004,0.8203125
,63.4773787,0.703125
,63.498584199999996,0.595703125
,63.503112099999996,0.498046875
,63.5189367,0.4052734375
,63.5563035,0.33203125
,63.56078290000001,0.263671875
,63.5964079,0.205078125
,63.6021506,0.1806640625
,63.622106,0.3271484375
,63.658275200000006,0.7568359375
,63.662949100000006,1.435546875
,63.69948599999999,2.060546875
,63.704030200000005,2.6171875
,63.7199816,3.0224609375
,63.7559188,3.330078125
,63.776965399999995,3.505859375
,63.7818441,3.5595703125
,63.8018701,3.525390625
,63.837358800000004,3.3935546875
,63.857131800000005,3.1640625
,63.864217999999994,2.8857421875
,63.900079899999994,2.5732421875
,63.90044519999999,2.2900390625
,63.941554100000005,2.0458984375
,63.941919999999996,1.8603515625
,63.962205299999994,1.7138671875
,63.9975065,1.5966796875
,64.0030734,1.494140625
,64.0231491,1.396484375
,64.0672065,1.2939453125
,64.0675747,1.181640625
,64.0874376,1.0693359375
,64.1006109,0.9521484375
,64.1353719,0.8349609375
,64.1579744,0.72265625
,64.1631317,0.6201171875
,64.2052887,0.5224609375
,64.2058794,0.4345703125
,64.2259922,0.3759765625
,64.240589,0.3173828125
,64.2751617,0.25390625
,64.2809685,0.2685546875
,64.3191605,0.5322265625
,64.3221753,1.064453125
,64.3439223,1.728515625
,64.3790253,2.28515625
,64.3857631,2.7587890625
,64.4048109,3.10546875
,64.4407521,3.3056640625
,64.4466983,3.3984375
,64.4613541,3.388671875
,64.4993748,3.2861328125
,64.5039287,3.0859375
,64.5227044,2.802734375
,64.5617572,2.5048828125
,64.5639901,2.2216796875
,64.6007473,1.9970703125
,64.6039385,1.826171875
,64.6376314,1.6943359375
,64.6429047,1.5966796875
,64.6793975,1.513671875
,64.6842086,1.435546875
,64.7031021,1.3525390625
,64.7398449,1.26953125
,64.7441914,1.1767578125
,64.7801254,1.083984375
,64.8021903,0.986328125
,64.8026269,0.888671875
,64.836361,0.791015625
,64.8431702,0.693359375
,64.8808989,0.6005859375
,64.8837157,0.5126953125
,64.9225632,0.4443359375
,64.9229605,0.498046875
,64.9586262,0.8154296875
,64.9793664,1.357421875
,64.9868618,1.9580078125
,65.0038334,2.4658203125
,65.0452348,2.8955078125
,65.0458206,3.203125
,65.0623834,3.369140625
,65.099275,3.447265625
,65.1202934,3.427734375
,65.1256872,3.3056640625
,65.1700256,3.1005859375
,65.1703926,2.8271484375
,65.1821872,2.548828125
,65.2185075,2.294921875
,65.2486237,2.0947265625
,65.2489866,1.9384765625
,65.2632634,1.826171875
,65.3131058,1.728515625
,65.3135739,1.640625
,65.3447346,1.54296875
,65.3453378,1.4404296875
,65.3628117,1.337890625
,65.3988435,1.2255859375
,65.4038771,1.11328125
,65.4405707,1.0009765625
,65.4449895,0.8935546875
,65.4652042,0.7861328125
,65.4992965,0.68359375
,65.5194788,0.5859375
,65.5233934,0.498046875
,65.5599265,0.419921875
,65.5623245,0.4150390625
,65.5992276,0.6201171875
,65.6043618,1.1083984375
,65.6399818,1.7431640625
,65.6453345,2.2900390625
,65.6809329,2.7734375
,65.6861935,3.1494140625
,65.7217735,3.3837890625
,65.7271166,3.53515625
,65.7443016,3.583984375
,65.7633495,3.564453125
,65.8002702,3.4619140625
,65.8053528,3.2763671875
,65.8401485,3.0419921875
,65.8460495,2.7783203125
,65.8953388,2.5390625
,65.8962106,2.32421875
,65.9149745,2.1630859375
,65.9225461,2.041015625
,65.9604563,1.9384765625
,65.9650547,1.8310546875
,65.9873687,1.7236328125
,66.0055726,1.611328125
,66.0415908,1.4794921875
,66.0463646,1.3525390625
,66.0838936,1.2158203125
,66.084499,1.083984375
,66.119583,0.966796875
,66.1257939,0.849609375
,66.145675,0.7373046875
,66.1659771,0.634765625
,66.2003358,0.537109375
,66.220643,0.4443359375
,66.2210684,0.3955078125
,66.2565948,0.4052734375
,66.2774485,0.6298828125
,66.2841657,1.1328125
,66.3195171,1.7529296875
,66.3243962,2.3193359375
,66.3467151,2.7587890625
,66.3672939,3.1201171875
,66.4031776,3.3544921875
,66.4062015,3.515625
,66.426477,3.5791015625
,66.4618367,3.5693359375
,66.483063,3.4814453125
,66.4834334,3.3203125
,66.5200133,3.1103515625
,66.5398659,2.861328125
,66.5451034,2.6220703125
,66.5812736,2.412109375
,66.6119565,2.24609375
,66.6123208,2.109375
,66.6238522,2.001953125
,66.6720183,1.9091796875
,66.672603,1.7919921875
,66.7027595,1.66015625
,66.7057666,1.5087890625
,66.7416124,1.357421875
,66.7653736,1.19140625
,66.7657488,1.0400390625
,66.8032788,0.888671875
,66.8036411,0.76171875
,66.8389367,0.64453125
,66.8596018,0.5419921875
,66.8661355,0.439453125
,66.9051428,0.3515625
,66.9057369,0.2685546875
,66.9403955,0.205078125
,66.9604724,0.244140625
,66.9682375,0.5224609375
,66.9829215,1.0205078125
,67.0207723,1.640625
,67.0416465,2.1728515625
,67.0457918,2.6318359375
,67.0891333,2.96875
,67.0894868,3.212890625
,67.1244934,3.349609375
,67.127727,3.408203125
,67.1636339,3.3837890625
,67.1687641,3.2861328125
,67.1850558,3.1103515625
,67.2198182,2.8857421875
,67.2404048,2.63671875
,67.2460819,2.3974609375
,67.2804433,2.1923828125
,67.3015806,2.0361328125
,67.3090123,1.904296875
,67.3456776,1.796875
,67.3476219,1.689453125
,67.3649402,1.5771484375
,67.4013318,1.4501953125
,67.4060857,1.318359375
,67.4509009,1.1669921875
,67.4515017,1.015625
,67.4682294,0.859375
,67.5121277,0.7177734375
,67.5126839,0.5810546875
,67.5233515,0.4736328125
,67.5575465,0.3857421875
,67.5783653,0.302734375
,67.585933,0.2197265625
,67.6221561,0.15625
,67.641892,0.0927734375
,67.649182,0.0537109375
,67.6645115,0.1123046875
,67.6992114,0.4443359375
,67.7217435,1.005859375
,67.7262232,1.6357421875
,67.7634554,2.16796875
,67.7654687,2.6123046875
,67.8026088,2.9296875
,67.8373109,3.1591796875
,67.8380215,3.271484375
,67.8493524,3.310546875
,67.8996308,3.2568359375
,67.8999904,3.1201171875
,67.9070859,2.919921875
,67.9271557,2.67578125
,67.9770885,2.431640625
,67.9775364,2.2216796875
,67.9879776,2.05078125
,68.0240161,1.93359375
,68.0554863,1.8310546875
,68.056097,1.748046875
,68.0713219,1.6650390625
,68.0861829,1.5771484375
,68.1210081,1.4794921875
,68.14296,1.3720703125
,68.1478632,1.2451171875
,68.1956208,1.1181640625
,68.1962293,0.9814453125
,68.2093485,0.8544921875
,68.258154,0.7275390625
,68.2588728,0.625
,68.2643718,0.52734375
,68.3001043,0.4541015625
,68.3209576,0.390625
,68.3287633,0.3369140625
,68.3675119,0.2880859375
,68.3678817,0.2392578125
,68.4132216,0.2197265625
,68.4138123,0.3662109375
,68.434579,0.751953125
,68.4470044,1.3623046875
,68.4831046,1.953125
,68.4884051,2.4853515625
,68.5255364,2.8955078125
,68.5299587,3.212890625
,68.5677544,3.4033203125
,68.5706817,3.525390625
,68.6065148,3.5498046875
,68.6123306,3.49609375
,68.6610535,3.3544921875
,68.6614126,3.154296875
,68.6690041,2.919921875
,68.6875326,2.6904296875
,68.7240987,2.4755859375
,68.7558086,2.3046875
,68.7562679,2.158203125
,68.7701092,2.05078125
,68.8054182,1.9384765625
,68.8071161,1.826171875
,68.8428896,1.708984375
,68.8640686,1.5869140625
,68.8682289,1.4501953125
,68.902753,1.298828125
,68.923185,1.1474609375
,68.9277815,0.99609375
,68.9643644,0.859375
,68.9864281,0.72265625
,68.9867974,0.60546875
,69.0336083,0.5078125
,69.0339735,0.4296875
,69.0539343,0.361328125
,69.0708218,0.302734375
,69.1057128,0.2490234375
,69.1060721,0.2099609375
,69.1548667,0.1953125
,69.1554562,0.2099609375
,69.1749772,0.3662109375
,69.1889349,0.80078125
,69.2320634,1.4453125
,69.2324328,2.080078125
,69.2506104,2.5830078125
,69.2953673,3.017578125
,69.2959704,3.3154296875
,69.3117845,3.5205078125
,69.3328549,3.623046875
,69.3738004,3.6572265625
,69.3743325,3.6083984375
,69.3892511,3.486328125
,69.4351559,3.30078125
,69.435521,3.0615234375
,69.45605,2.8271484375
,69.4708304,2.59765625
,69.5145385,2.412109375
,69.5149019,2.255859375
,69.5482076,2.12890625
,69.5485675,2.021484375
,69.5851181,1.9140625
,69.5894275,1.796875
,69.6398562,1.6650390625
,69.6402161,1.5234375
,69.6515796,1.3671875
,69.6858864,1.2158203125
,69.7060441,1.0546875
,69.7088205,0.908203125
,69.7447645,0.771484375
,69.7491118,0.6494140625
,69.7842153,0.546875
,69.7898116,0.4541015625
,69.8260275,0.37109375
,69.8264399,0.2978515625
,69.8727467,0.2685546875
,69.873384,0.2294921875
,69.8914318,0.2001953125
,69.9105162,0.2734375
,69.9460634,0.5908203125
,69.9530544,1.1865234375
,69.9866734,1.7919921875
,69.9894935,2.353515625
,70.0265173,2.783203125
,70.0317847,3.125
,70.0744399,3.33984375
,70.0752152,3.4716796875
,70.0888922,3.5205078125
,70.135192,3.5107421875
,70.1360332,3.408203125
,70.1501693,3.232421875
,70.1852737,2.9931640625
,70.1935194,2.7294921875
,70.2290177,2.4658203125
,70.2332145,2.24609375
,70.2768891,2.0654296875
,70.2772882,1.923828125
,70.2895274,1.8017578125
,70.3386843,1.6748046875
,70.3390767,1.54296875
,70.3691327,1.4111328125
,70.3694704,1.259765625
,70.4057384,1.103515625
,70.4320411,0.947265625
,70.4324189,0.791015625
,70.4496684,0.6494140625
,70.4867969,0.5224609375
,70.4891841,0.4052734375
,70.5260737,0.302734375
,70.5313443,0.21484375
,70.5666924,0.1318359375
,70.5672561,0.0634765625
,70.6015866,0.0341796875
,70.623747,0.0146484375
,70.6314305,0.029296875
,70.6669407,0.2001953125
,70.6700637,0.6884765625
,70.7067432,1.3134765625
,70.7112528,1.953125
,70.7572883,2.4560546875
,70.7578103,2.87109375
,70.7731335,3.1396484375
,70.8089323,3.310546875
,70.813532,3.37890625
,70.8305555,3.359375
,70.8690537,3.26171875
,70.8695625,3.0859375
,70.9041948,2.8369140625
,70.9268484,2.568359375
,70.9335415,2.3046875
,70.9718623,2.08984375
,70.972793,1.923828125
,70.9910017,1.8017578125
,71.0263765,1.7041015625
,71.0306653,1.611328125
,71.0643546,1.513671875
,71.0847042,1.4111328125
,71.0917161,1.298828125
,71.1303785,1.1767578125
,71.1515568,1.0498046875
,71.1519928,0.9228515625
,71.1882062,0.80078125
,71.1888254,0.693359375
,71.2375803,0.5908203125
,71.2386704,0.4931640625
,71.2523006,0.41015625
,71.2875457,0.3466796875
,71.2879968,0.2880859375
,71.3254536,0.2685546875
,71.3462431,0.33203125
,71.3551079,0.60546875
,71.3713481,1.1376953125
,71.407922,1.77734375
,71.4124175,2.3193359375
,71.4487671,2.79296875
,71.4691495,3.154296875
,71.4735483,3.37890625
,71.5106679,3.5107421875
,71.5128252,3.53515625
,71.5484615,3.4814453125
,71.5774282,3.349609375
,71.5780481,3.154296875
,71.5927612,2.9296875
,71.613669,2.685546875
,71.6563554,2.470703125
,71.6568831,2.2998046875
,71.6742207,2.158203125
,71.7093904,2.0556640625
,71.7098126,1.962890625
,71.7305962,1.8701171875
,71.7710619,1.7724609375
,71.7716527,1.66015625
,71.8062735,1.533203125
,71.8257792,1.40625
,71.8332971,1.2744140625
,71.8706662,1.15234375
,71.8737195,1.0205078125
,71.8931884,0.8984375
,71.928885,0.7861328125
,71.9322276,0.68359375
,71.9734873,0.5908203125
,71.9744531,0.5517578125
,72.0083041,0.712890625
,72.0406376,1.1328125
,72.0409985,1.69921875
,72.0543245,2.20703125
,72.1023618,2.65625
,72.1027317,3.02734375
,72.1216308,3.271484375
,72.1325068,3.4423828125
,72.1788449,3.53515625
,72.1791458,3.5595703125
,72.2099477,3.49609375
,72.2156266,3.359375
,72.2351632,3.173828125
,72.2716953,2.958984375
,72.2722133,2.7490234375
,72.307525,2.5732421875
,72.3129064,2.4267578125
,72.3520877,2.314453125
,72.3524526,2.20703125
,72.3894266,2.1142578125
,72.4108449,2.01171875
,72.4156438,1.904296875
,72.4510429,1.77734375
,72.4516565,1.640625
,72.4903811,1.4990234375
,72.5222322,1.3623046875
,72.5228434,1.2109375
,72.5332521,1.0693359375
,72.5696202,0.9228515625
,72.5897896,0.791015625
,72.5967216,0.6640625
,72.6116521,0.6005859375
,72.6452279,0.7470703125
,72.6653228,1.142578125
,72.6742263,1.669921875
,72.6956983,2.1533203125
,72.7315324,2.587890625
,72.7345282,2.9541015625
,72.7560928,3.203125
,72.7908482,3.37890625
,72.7953674,3.4765625
,72.8311763,3.515625
,72.8535973,3.466796875
,72.8542183,3.349609375
,72.8903419,3.1787109375
,72.8949818,2.96875
,72.9303166,2.7685546875
,72.9512832,2.5927734375
,72.9558768,2.4462890625
,73.0082572,2.32421875
,73.0091939,2.2119140625
,73.0145231,2.119140625
,73.0508062,2.0263671875
,73.0554082,1.9189453125
,73.0751863,1.796875
,73.1096656,1.669921875
,73.1304111,1.5185546875
,73.1349152,1.3623046875
,73.1686676,1.201171875
,73.1895366,1.0546875
,73.1923878,0.908203125
,73.2289391,0.771484375
,73.2332183,0.634765625
,73.2676825,0.5224609375
,73.2896059,0.4638671875
,73.2964977,0.615234375
,73.3179139,1.0400390625
,73.3330907,1.5283203125
,73.3802027,2.0361328125
,73.3810723,2.4658203125
,73.395394,2.7978515625
,73.4321242,3.0615234375
,73.4363012,3.232421875
,73.4725687,3.3447265625
,73.4752111,3.3740234375
,73.5201759,3.3251953125
,73.520535,3.2080078125
,73.5397812,3.02734375
,73.5533027,2.8271484375
,73.597984,2.63671875
,73.5984158,2.4658203125
,73.6166906,2.32421875
,73.6597442,2.20703125
,73.6603999,2.1142578125
,73.6775699,2.0166015625
,73.7124671,1.923828125
,73.7173507,1.8115234375
,73.735967,1.6796875
,73.78147,1.5380859375
,73.7818327,1.3818359375
,73.7952536,1.2158203125
,73.8313837,1.0498046875
,73.8365634,0.8837890625
,73.8725317,0.72265625
,73.8774748,0.5712890625
,73.8944462,0.4296875
,73.9378808,0.3076171875
,73.9382431,0.21484375
,73.9562804,0.263671875
,73.9910632,0.56640625
,73.9956742,1.064453125
,74.0323969,1.591796875
,74.0626904,2.041015625
,74.0634153,2.4267578125
,74.0745821,2.71484375
,74.1120529,2.939453125
,74.1169053,3.0712890625
,74.1522185,3.1396484375
,74.1557652,3.1201171875
,74.1766404,3.0224609375
,74.211383,2.8662109375
,74.2180927,2.6611328125
,74.2543003,2.4609375
,74.2586192,2.2705078125
,74.2742426,2.1240234375
,74.3100249,2.021484375
,74.3437493,1.9384765625
,74.3443731,1.865234375
,74.3566411,1.77734375
,74.3952701,1.6796875
,74.3958158,1.5576171875
,74.4375428,1.416015625
,74.4689783,1.259765625
,74.4693398,1.0986328125
,74.4745982,0.9326171875
,74.5118935,0.7763671875
,74.5473146,0.615234375
,74.5480119,0.46875
,74.5560937,0.3271484375
,74.5910761,0.205078125
,74.6114151,0.13671875
,74.6141818,0.13671875
,74.6481189,0.33203125
,74.6693903,0.7958984375
,74.6766107,1.30859375
,74.7271078,1.8310546875
,74.7277028,2.255859375
,74.7572097,2.6025390625
,74.7578232,2.841796875
,74.7940877,3.0078125
,74.7945717,3.0859375
,74.8298279,3.1103515625
,74.8501404,3.037109375
,74.8563176,2.8955078125
,74.892786,2.7099609375
,74.8985908,2.509765625
,74.9328515,2.3388671875
,74.9374054,2.1923828125
,74.9718222,2.08984375
,74.9930827,2.01171875
,75.0010433,1.93359375
,75.0165339,1.85546875
,75.0533065,1.7724609375
,75.0830892,1.6748046875
,75.0834556,1.552734375
,75.0982104,1.416015625
,75.1339577,1.2646484375
,75.1382564,1.1181640625
,75.1741303,0.9619140625
,75.2077794,0.8203125
,75.2082483,0.6884765625
,75.2160518,0.5712890625
,75.2552837,0.458984375
,75.2858227,0.3662109375
,75.2861715,0.2978515625
,75.3001359,0.3466796875
,75.3359909,0.6298828125
,75.3391629,1.1279296875
,75.3572929,1.6357421875
,75.3939939,2.1435546875
,75.3980291,2.5439453125
,75.4356306,2.880859375
,75.4362348,3.1103515625
,75.4854837,3.271484375
,75.4859948,3.3447265625
,75.5020469,3.349609375
,75.5175255,3.26171875
,75.541332,3.115234375
,75.5570342,2.9052734375
,75.5922215,2.705078125
,75.6109144,2.529296875
,75.6182116,2.3779296875
,75.6683805,2.255859375
,75.6689765,2.1484375
,75.6889939,2.0654296875
,75.7016699,1.9775390625
,75.7474551,1.8798828125
,75.747902,1.7724609375
,75.7586065,1.6552734375
,75.8086987,1.5185546875
,75.8092144,1.3720703125
,75.819879,1.220703125
,75.8566458,1.064453125
,75.8758217,0.908203125
,75.8803533,0.7666015625
,75.8965479,0.634765625
,75.9174503,0.5126953125
,75.9558691,0.400390625
,75.9562307,0.2978515625
,75.9922649,0.2392578125
,76.0114176,0.37109375
,76.0192587,0.7861328125
,76.0638375,1.298828125
,76.0646424,1.845703125
,76.0761861,2.3046875
,76.1116881,2.7099609375
,76.1406501,3.0029296875
,76.1410131,3.2275390625
,76.1592525,3.3544921875
,76.1959331,3.4130859375
,76.2010277,3.3837890625
,76.2200307,3.28125
,76.2412135,3.1201171875
,76.2626578,2.900390625
,76.2831131,2.6806640625
,76.2982173,2.4951171875
,76.334016,2.353515625
,76.3577939,2.2412109375
,76.3582759,2.138671875
,76.3946573,2.0556640625
,76.4176026,1.962890625
,76.4205709,1.8603515625
,76.4541725,1.73828125
,76.4746162,1.611328125
,76.4796719,1.4697265625
,76.5157777,1.3134765625
,76.5187514,1.1474609375
,76.5556142,0.986328125
,76.5607379,0.8251953125
,76.5956239,0.6787109375
,76.6008152,0.5419921875
,76.6178828,0.41015625
,76.6380106,0.322265625
,76.6579397,0.21484375
,76.6979257,0.1220703125
,76.7295475,0.0927734375
,76.7302065,0.2783203125
,76.7423394,0.7470703125
,76.7787506,1.279296875
,76.7833863,1.845703125
,76.7988903,2.3095703125
,76.818873,2.7099609375
,76.853802,2.998046875
,76.8758722,3.1982421875
,76.8803156,3.3056640625
,76.9161445,3.359375
,76.946333,3.3154296875
,76.9468276,3.1982421875
,76.9625425,3.017578125
,76.9814829,2.8125
,77.0150824,2.578125
,77.0365416,2.3974609375
,77.0396127,2.2412109375
,77.0774687,2.1240234375
,77.0825499,2.0263671875
,77.1191196,1.93359375
,77.1198854,1.8310546875
,77.1644615,1.7236328125
,77.1648335,1.6015625
,77.1859291,1.4599609375
,77.2016879,1.298828125
,77.220915,1.1279296875
,77.2595629,0.9521484375
,77.260166,0.7666015625
,77.2962981,0.6005859375
,77.3161603,0.44921875
,77.3188367,0.3076171875
,77.3670241,0.2099609375
,77.3675554,0.1123046875
,77.3879743,0.0048828125
,77.4006064,0.0048828125
,77.4356318,0.0048828125
,77.4361959,0.0048828125
,77.4701795,0.0048828125
,77.4923905,0.3125
,77.5021417,0.9228515625
,77.5205533,1.4892578125
,77.5407505,2.041015625
,77.5756163,2.470703125
,77.5801369,2.7783203125
,77.6164535,3.0078125
,77.6216275,3.1494140625
,77.658185,3.2373046875
,77.6608513,3.1982421875
,77.7000084,3.076171875
,77.7024763,2.900390625
,77.738609,2.67578125
,77.7728739,2.451171875
,77.7734803,2.2412109375
,77.7812763,2.0703125
,77.8007304,1.943359375
,77.8475731,1.845703125
,77.8478993,1.7578125
,77.8675108,1.669921875
,77.8842051,1.5625
,77.9198529,1.435546875
,77.9205495,1.2841796875
,77.9407082,1.11328125
,77.9748562,0.9326171875
,77.9960138,0.751953125
,78.0019239,0.5810546875
,78.0474184,0.4248046875
,78.0479198,0.283203125
,78.0583027,0.17578125
,78.0954537,0.0732421875
,78.1025151,0.0048828125
,78.1424074,0.0048828125
,78.1427724,0.0048828125
,78.1598291,0.0048828125
,78.1786278,0.0048828125
,78.212536,0.498046875
,78.2334876,1.0791015625
,78.2461159,1.669921875
,78.260722,2.1435546875
,78.3128595,2.5244140625
,78.3134697,2.7880859375
,78.3209545,2.96875
,78.3574659,3.0517578125
,78.3902503,3.0517578125
,78.3907183,2.9638671875
,78.404483,2.79296875
,78.4230571,2.5732421875
,78.4583652,2.3193359375
,78.4790563,2.0947265625
,78.4827523,1.904296875
,78.5191205,1.767578125
,78.5198034,1.6650390625
,78.5599083,1.58203125
,78.5812966,1.5087890625
,78.5845028,1.42578125
,78.6237239,1.3232421875
,78.6242908,1.201171875
,78.6409199,1.064453125
,78.6772299,0.9326171875
,78.6823106,0.7861328125
,78.7186149,0.64453125
,78.7233375,0.5078125
,78.7577305,0.380859375
,78.7785386,0.2587890625
,78.7789185,0.17578125
,78.8250846,0.09765625
,78.8255113,0.01953125
,78.8460023,0.0048828125
,78.8621616,0.0927734375
,78.9049359,0.517578125
,78.9053018,1.103515625
,78.9255171,1.7236328125
,78.943801,2.2314453125
,78.9782412,2.65625
,78.9993945,2.94921875
,79.0001173,3.1591796875
,79.0348242,3.271484375
,79.0560405,3.291015625
,79.0628993,3.232421875
,79.1066297,3.0908203125
,79.1076944,2.890625
,79.1236297,2.6416015625
,79.1450906,2.3876953125
,79.1819729,2.16796875
,79.1865867,1.9970703125
,79.2024023,1.8701171875
,79.2488762,1.7724609375
,79.2494805,1.6845703125
,79.2627211,1.591796875
,79.300201,1.484375
,79.3254526,1.3623046875
,79.325832,1.2255859375
,79.3722047,1.0791015625
,79.3725694,0.9375
,79.3823938,0.80078125
,79.4204012,0.6689453125
,79.4248431,0.5419921875
,79.4598034,0.4248046875
,79.4644273,0.322265625
,79.4992704,0.2197265625
,79.5027468,0.13671875
,79.5217142,0.17578125
,79.5417873,0.439453125
,79.562935,0.9716796875
,79.609763,1.54296875
,79.6101211,2.0947265625
,79.6245875,2.5146484375
,79.6598232,2.861328125
,79.6642011,3.0859375
,79.698998,3.232421875
,79.719279,3.291015625
,79.7217162,3.30078125
,79.754264,3.2275390625
,79.7757864,3.0712890625
,79.7845367,2.861328125
,79.8231488,2.6318359375
,79.8235256,2.3974609375
,79.8593071,2.20703125
,79.8633835,2.060546875
,79.8989561,1.943359375
,79.919043,1.845703125
,79.9234387,1.7529296875
,79.9593743,1.6552734375
,79.9639526,1.54296875
,79.9998223,1.4111328125
,80.0055694,1.2646484375
,80.0425077,1.1083984375
,80.0725163,0.95703125
,80.0730791,0.8056640625
,80.0833216,0.6689453125
,80.1206922,0.5517578125
,80.1273783,0.4443359375
,80.1454411,0.3466796875
,80.182552,0.2490234375
,80.1831429,0.1708984375
,80.2199941,0.185546875
,80.2430823,0.44921875
,80.2480341,1.025390625
,80.2624619,1.5869140625
,80.3010482,2.138671875
,80.3051228,2.55859375
,80.3403399,2.9052734375
,80.3449484,3.134765625
,80.3828021,3.30078125
,80.3877588,3.3740234375
,80.4254378,3.3837890625
,80.4298537,3.310546875
,80.44442,3.1689453125
,80.4635669,2.96875
,80.5022621,2.75390625
,80.5027203,2.5341796875
,80.5389595,2.3486328125
,80.557772,2.1875
,80.5652852,2.0703125
,80.6008127,1.9677734375
,80.6209236,1.8701171875
,80.6291521,1.767578125
,80.6458781,1.640625
,80.6902084,1.4990234375
,80.6906143,1.357421875
,80.7066579,1.19140625
,80.7514426,1.025390625
,80.7520341,0.869140625
,80.76706,0.712890625
,80.8014301,0.56640625
,80.8227983,0.4248046875
,80.8234283,0.322265625
,80.8623435,0.21484375
,80.8627056,0.2099609375
,80.8980793,0.478515625
,80.9213723,0.966796875
,80.9262604,1.533203125
,80.9622674,2.021484375
,80.9674447,2.4365234375
,80.9833481,2.7392578125
,81.0186387,2.96875
,81.0389924,3.095703125
,81.0459519,3.154296875
,81.0654912,3.134765625
,81.1106418,3.037109375
,81.1110093,2.8662109375
,81.1319688,2.646484375
,81.1477829,2.3974609375
,81.1638002,2.16796875
,81.199894,1.982421875
,81.2056144,1.8408203125
,81.2406131,1.728515625
,81.2450378,1.6357421875
,81.280651,1.54296875
,81.2872105,1.435546875
,81.3271301,1.30859375
,81.3275001,1.171875
,81.3624489,1.015625
,81.3824043,0.859375
,81.3850183,0.72265625
,81.4221748,0.576171875
,81.4256929,0.4443359375
,81.4604654,0.3125
,81.4813144,0.1953125
,81.4866944,0.0830078125
,81.5020041,0.0048828125
,81.5262828,0.0439453125
,81.5604398,0.3271484375
,81.5662602,0.8740234375
,81.6026669,1.435546875
,81.6054936,1.97265625
,81.6464452,2.3828125
,81.6469239,2.7001953125
,81.6685386,2.900390625
,81.7034648,3.0224609375
,81.7085074,3.0517578125
,81.7263455,3.0029296875
,81.7603835,2.87109375
,81.7643784,2.67578125
,81.7973801,2.4365234375
,81.8170284,2.2021484375
,81.8272536,1.9921875
,81.8783558,1.8408203125
,81.8790107,1.7333984375
,81.8835946,1.650390625
,81.919849,1.5869140625
,81.9411368,1.4892578125
,81.9460557,1.40625
,81.9816634,1.3037109375
,82.0026293,1.19140625
,82.0074181,1.0693359375
,82.042886,0.9423828125
,82.0477302,0.8203125
,82.0836422,0.693359375
,82.0898296,0.56640625
,82.1052406,0.4541015625
,82.1420852,0.3515625
,82.1468064,0.263671875
,82.1849422,0.2685546875
,82.1897163,0.48828125
,82.2244329,1.005859375
,82.2291644,1.5576171875
,82.2680083,2.0947265625
,82.2683267,2.509765625
,82.3032062,2.861328125
,82.3059716,3.0859375
,82.3441844,3.2275390625
,82.3485857,3.2861328125
,82.3677733,3.251953125
,82.4077854,3.134765625
,82.4095016,2.958984375
,82.4447158,2.7392578125
,82.445198,2.5146484375
,82.479802,2.3095703125
,82.5013461,2.1484375
,82.5063347,2.0361328125
,82.5276796,1.943359375
,82.5634917,1.8603515625
,82.5680834,1.7724609375
,82.6013123,1.6748046875
,82.6208751,1.5576171875
,82.6298538,1.5673828125
,82.6456627,1.4013671875
,82.6835184,1.2353515625
,82.7061175,1.0693359375
,82.7090627,0.9130859375
,82.755205,0.76171875
,82.7557989,0.6201171875
,82.7696895,0.4833984375
,82.7854053,0.3759765625
,82.8053053,0.3955078125
,82.8406751,0.6689453125
,82.8611769,1.1865234375
,82.8684657,1.71875
,82.8887762,2.236328125
,82.909317,2.63671875
,82.9448259,2.9736328125
,82.9508913,3.193359375
,82.9861267,3.330078125
,82.9900364,3.3935546875
,83.0226539,3.369140625
,83.0275444,3.2763671875
,83.0480519,3.115234375
,83.0831547,2.9052734375
,83.0869154,2.6806640625
,83.1209131,2.470703125
,83.142542,2.294921875
,83.151667,2.1533203125
,83.1662225,2.05078125
,83.2012548,1.9677734375
,83.2216514,1.875
,83.2288989,1.767578125
,83.268455,1.6455078125
,83.268811,1.5087890625
,83.316115,1.357421875
,83.3167143,1.201171875
,83.3461292,1.044921875
,83.3519177,0.8984375
,83.370382,0.732421875
,83.3886395,0.5810546875
,83.4239641,0.458984375
,83.4289532,0.3515625
,83.4729593,0.25390625
,83.4733834,0.205078125
,83.5043785,0.361328125
,83.5114064,0.80078125
,83.5330748,1.38671875
,83.5488299,1.9287109375
,83.5698965,2.421875
,83.5890591,2.7880859375
,83.6233275,3.076171875
,83.6437179,3.2666015625
,83.6493498,3.359375
,83.6846318,3.388671875
,83.7059718,3.330078125
,83.7135562,3.1982421875
,83.7293371,3.0126953125
,83.7490287,2.7978515625
,83.7832692,2.578125
,83.8037846,2.3828125
,83.8095363,2.2216796875
,83.844579,2.099609375
,83.8641842,2.001953125
,83.870617,1.904296875
,83.8872325,1.8017578125
,83.936907,1.6943359375
,83.9373182,1.5673828125
,83.9490697,1.4794921875
,83.9842232,1.396484375
,84.0038403,1.30859375
,84.009868,1.083984375
,84.0583671,0.9033203125
,84.058737,0.732421875
,84.0723924,0.5908203125
,84.0902223,0.458984375
,84.1092364,0.3759765625
,84.1435386,0.302734375
,84.1636953,0.2783203125
,84.1700954,0.3466796875
,84.2056827,0.546875
,84.2106915,1.0107421875
,84.2495047,1.533203125
,84.2522791,2.060546875
,84.2865922,2.490234375
,84.3081439,2.8076171875
,84.3087956,3.0517578125
,84.357754,3.1982421875
,84.358131,3.30078125
,84.3875302,3.3154296875
,84.3893792,3.2177734375
,84.4357841,3.0419921875
,84.4362886,2.8076171875
,84.4569302,2.55859375
,84.4693814,2.314453125
,84.5068801,2.109375
,84.5115297,1.953125
,84.5609691,1.8359375
,84.5614238,1.7529296875
,84.573213,1.6552734375
,84.6220128,1.5576171875
,84.6224886,1.4306640625
,84.6292949,1.298828125
,84.6686148,1.15234375
,84.6689913,0.99609375
,84.7055903,0.8154296875
,84.7292595,0.654296875
,84.7323735,0.5078125
,84.7472719,0.390625
,84.7674631,0.3369140625
,84.8035497,0.3076171875
,84.8079443,0.1904296875
,84.8531975,0.078125
,84.853781,0.0048828125
,84.8743868,0.0048828125
,84.8927911,0.0830078125
,84.9273244,0.5419921875
,84.9319988,1.123046875
,84.9673053,1.73828125
,84.9745064,2.2265625
,85.009716,2.63671875
,85.0102116,2.919921875
,85.0545503,3.0908203125
,85.0549122,3.1591796875
,85.0725346,3.1298828125
,85.0917013,3.0126953125
,85.1261399,2.822265625
,85.1458078,2.568359375
,85.1533478,2.294921875
,85.1701724,2.099609375
,85.2109032,1.923828125
,85.2114848,1.7822265625
,85.2422327,1.6796875
,85.250687,1.591796875
,85.3039712,1.5234375
,85.3045829,1.4306640625
,85.3143512,1.328125
,85.3498369,1.2158203125
,85.3503267,1.103515625
,85.371994,1.005859375
,85.4060511,0.888671875
,85.4118972,0.7568359375
,85.461273,0.6396484375
,85.461677,0.517578125
,85.4700149,0.4150390625
,85.5079192,0.341796875
,85.5388847,0.2490234375
,85.539326,0.2099609375
,85.5513075,0.33203125
,85.5884483,0.7177734375
,85.5913599,1.318359375
,85.6271054,1.9287109375
,85.6330464,2.4462890625
,85.6695101,2.822265625
,85.6748912,3.1201171875
,85.7117916,3.30078125
,85.7123796,3.41796875
,85.7569986,3.3984375
,85.7573641,3.291015625
,85.7722684,3.095703125
,85.7933367,2.8369140625
,85.8276272,2.5732421875
,85.8333287,2.3583984375
,85.8688549,2.1630859375
,85.8997147,1.9970703125
,85.9000728,1.8701171875
,85.9120964,1.7724609375
,85.9467636,1.69921875
,85.951886,1.6064453125
,85.9862055,1.50390625
,86.0070492,1.38671875
,86.0126971,1.259765625
,86.0482229,1.1279296875
,86.0535692,1.0009765625
,86.0711735,0.869140625
,86.1062422,0.7421875
,86.1110332,0.625
,86.1312481,0.5224609375
,86.1655923,0.4248046875
,86.1879126,0.33203125
,86.194056,0.2880859375
,86.2426819,0.4296875
,86.2430461,0.8935546875
,86.2642141,1.4697265625
,86.2769468,2.0703125
,86.2917991,2.5439453125
,86.3388053,2.9443359375
,86.3394077,3.212890625
,86.3536181,3.3984375
,86.3900354,3.4619140625
,86.392539,3.45703125
,86.4300554,3.359375
,86.4506992,3.1884765625
,86.4511913,2.9541015625
,86.4924258,2.685546875
,86.4929024,2.431640625
,86.5287253,2.216796875
,86.5333178,2.0556640625
,86.571106,1.943359375
,86.5754584,1.8505859375
,86.6106464,1.7724609375
,86.6158376,1.650390625
,86.6315425,1.5283203125
,86.6676349,1.396484375
,86.6736361,1.25
,86.7088104,1.103515625
,86.7304894,0.95703125
,86.7359147,0.8154296875
,86.7727231,0.68359375
,86.7753035,0.5615234375
,86.7913842,0.4541015625
,86.8251246,0.3515625
,86.8477259,0.263671875
,86.8529811,0.1806640625
,86.8995485,0.146484375
,86.8999657,0.302734375
,86.9132225,0.80078125
,86.9491566,1.40625
,86.9560003,2.0263671875
,86.9936126,2.509765625
,86.9940893,2.9248046875
,87.0130752,3.1982421875
,87.0475167,3.388671875
,87.0682924,3.4716796875
,87.07478,3.4765625
,87.1185597,3.3935546875
,87.1191574,3.232421875
,87.1342958,3.017578125
,87.1807932,2.75390625
,87.1815008,2.4951171875
,87.1917922,2.2705078125
,87.2262539,2.0849609375
,87.2476171,1.953125
,87.2558018,1.8408203125
,87.2919153,1.7431640625
,87.2946721,1.640625
,87.3297394,1.5234375
,87.3495683,1.38671875
,87.3530057,1.2353515625
,87.3729362,1.083984375
,87.4097486,0.9326171875
,87.4140488,0.7861328125
,87.4489073,0.6494140625
,87.4708387,0.5126953125
,87.4749883,0.390625
,87.4921506,0.2685546875
,87.5219752,0.185546875
,87.5331561,0.107421875
,87.5696161,0.0439453125
,87.5741715,0.1318359375
,87.6152853,0.5419921875
,87.6156586,1.1328125
,87.6494742,1.7724609375
,87.6546445,2.2900390625
,87.6884517,2.724609375
,87.7097077,3.017578125
,87.71719,3.212890625
,87.7332763,3.2958984375
,87.7695835,3.3056640625
,87.805137,3.2177734375
,87.8056245,3.046875
,87.815235,2.79296875
,87.8481439,2.51953125
,87.868236,2.2412109375
,87.875852,2.01171875
,87.9114474,1.8359375
,87.9320415,1.69921875
,87.93265,1.6015625
,87.9700899,1.50390625
,87.990329,1.40625
,87.9944526,1.298828125
,88.0155073,1.171875
,88.0511756,1.0498046875
,88.0727663,0.9228515625
,88.0733462,0.791015625
,88.0948373,0.6640625
,88.1304488,0.5419921875
,88.1355088,0.4248046875
,88.1548608,0.3173828125
,88.2060056,0.2099609375
,88.206533,0.126953125
,88.212526,0.078125
,88.2487585,0.1904296875
,88.2685591,0.5615234375
,88.2795029,1.171875
,88.2944075,1.7333984375
,88.3462035,2.2802734375
,88.3466795,2.67578125
,88.3669497,2.9833984375
,88.3761891,3.154296875
,88.4218099,3.251953125
,88.4221744,3.232421875
,88.4395016,3.1201171875
,88.4754025,2.919921875
,88.4758839,2.666015625
,88.5111087,2.392578125
,88.514752,2.1728515625
,88.5636435,2.0361328125
,88.5639982,1.93359375
,88.5927713,1.845703125
,88.5979618,1.748046875
,88.6394747,1.66015625
,88.6400798,1.5625
,88.6566077,1.46484375
,88.7013354,1.3720703125
,88.7017031,1.2548828125
,88.7155836,1.1328125
,88.7524599,1.0205078125
,88.7773603,0.908203125
,88.7777232,0.7861328125
,88.8262399,0.6640625
,88.8266551,0.5517578125
,88.8572223,0.458984375
,88.857673,0.41015625
,88.8926291,0.5517578125
,88.8952207,0.986328125
,88.9290178,1.6015625
,88.9496773,2.1630859375
,88.9600991,2.6611328125
,88.976075,3.0322265625
,89.0265573,3.3154296875
,89.0269213,3.4423828125
,89.0372845,3.5205078125
,89.0565177,3.5009765625
,89.0767164,3.4228515625
,89.1107859,3.2568359375
,89.1320568,3.02734375
,89.1375245,2.7685546875
,89.1737021,2.548828125
,89.1775516,2.34375
,89.2140357,2.20703125
,89.2149739,2.1240234375
,89.2600501,2.0458984375
,89.2604743,1.962890625
,89.2804323,1.85546875
,89.2984763,1.7431640625
,89.3337355,1.6259765625
,89.3379064,1.484375
,89.3572098,1.3427734375
,89.3769946,1.2060546875
,89.4137962,1.09375
,89.4161057,0.9912109375
,89.4518349,0.8740234375
,89.4715378,0.76171875
,89.4784876,0.64453125
,89.5152001,0.5419921875
,89.5178169,0.52734375
,89.5354232,0.76171875
,89.5714491,1.298828125
,89.6021532,1.8701171875
,89.6027639,2.4462890625
,89.6182394,2.880859375
,89.637908,3.232421875
,89.6712139,3.4619140625
,89.6924016,3.6328125
,89.6993658,3.701171875
,89.7206154,3.69140625
,89.7560174,3.583984375
,89.7563779,3.4033203125
,89.7906252,3.1884765625
,89.8130144,2.9638671875
,89.8198267,2.75390625
,89.8569462,2.578125
,89.8596164,2.44140625
,89.8792123,2.34375
,89.9253214,2.255859375
,89.9256971,2.1826171875
,89.9467957,2.0947265625
,89.959631,1.9677734375
,89.9788086,1.8310546875
,89.9983422,1.7041015625
,90.0329547,1.54296875
,90.055244,1.3818359375
,90.0599087,1.2060546875
,90.0956662,1.0400390625
,90.0960555,0.8935546875
,90.1325934,0.7568359375
,90.1602702,0.6298828125
,90.1609435,0.517578125
,90.1785355,0.4248046875
,90.2213903,0.498046875
,90.2222553,0.830078125
,90.2423437,1.3818359375
,90.2572732,1.9140625
,90.290402,2.4267578125
,90.312575,2.8173828125
,90.3196863,3.1298828125
,90.3388406,3.3203125
,90.3737622,3.4423828125
,90.3798883,3.4716796875
,90.4164519,3.41796875
,90.4194466,3.2861328125
,90.4411627,3.1005859375
,90.4773666,2.8515625
,90.4777302,2.626953125
,90.5123619,2.4267578125
,90.5351683,2.28515625
,90.5401738,2.158203125
,90.5747994,2.0556640625
,90.5792251,1.9580078125
,90.6289458,1.85546875
,90.6293169,1.7529296875
,90.6501895,1.6259765625
,90.6577061,1.484375
,90.6926443,1.3232421875
,90.7128442,1.1474609375
,90.7182559,0.9765625
,90.7558861,0.8154296875
,90.7749809,0.6591796875
,90.7823235,0.5126953125
,90.79861,0.390625
,90.8173943,0.302734375
,90.850694,0.1953125
,90.871637,0.107421875
,90.8800939,0.0244140625
,90.8957343,0.0048828125
,90.9157361,0.0048828125
,90.9515365,0.2587890625
,90.9726173,0.8154296875
,90.9775926,1.4013671875
,91.0122705,1.982421875
,91.0325259,2.4462890625
,91.038475,2.783203125
,91.0800302,3.046875
,91.0806273,3.1787109375
,91.1156344,3.2373046875
,91.1208246,3.203125
,91.1570353,3.1005859375
,91.1626649,2.9248046875
,91.1831765,2.685546875
,91.1979319,2.4462890625
,91.235344,2.2216796875
,91.2405913,2.0458984375
,91.2752301,1.9091796875
,91.2802815,1.8017578125
,91.3283714,1.728515625
,91.3290738,1.640625
,91.3424679,1.5380859375
,91.3803331,1.40625
,91.3808906,1.3525390625
,91.400706,1.201171875
,91.437428,1.0498046875
,91.4377901,0.8642578125
,91.4733029,0.7177734375
,91.4954133,0.5810546875
,91.4958497,0.4638671875
,91.5342097,0.37109375
,91.5625479,0.3369140625
,91.5631324,0.234375
,91.5793331,0.17578125
,91.6141966,0.1171875
,91.6346767,0.1611328125
,91.6405741,0.3076171875
,91.6856379,0.7666015625
,91.6860092,1.318359375
,91.702012,1.923828125
,91.7192571,2.3828125
,91.7550829,2.75390625
,91.7595621,2.9931640625
,91.7975689,3.1689453125
,91.8021015,3.2177734375
,91.8210094,3.18359375
,91.8557908,3.056640625
,91.8775567,2.8564453125
,91.8823655,2.5927734375
,91.9185806,2.314453125
,91.9189525,2.0703125
,91.9550529,1.884765625
,91.9612306,1.748046875
,91.9947625,1.640625
,92.0025658,1.5625
,92.0217399,1.484375
,92.0592328,1.4013671875
,92.0614714,1.298828125
,92.0987054,1.1865234375
,92.0990712,1.064453125
,92.1340802,0.9423828125
,92.1538478,0.8203125
,92.1620118,0.6982421875
,92.2000026,0.6005859375
,92.2004816,0.4931640625
,92.2383126,0.3955078125
,92.2392553,0.322265625
,92.2597398,0.25390625
,92.2971558,0.17578125
,92.3003083,0.1171875
,92.337178,0.1220703125
,92.3433714,0.3662109375
,92.3611268,0.8837890625
,92.3971389,1.533203125
,92.4174546,2.1044921875
,92.4223444,2.6123046875
,92.4394371,2.9736328125
,92.473661,3.2470703125
,92.4943327,3.3935546875
,92.5016041,3.4619140625
,92.5227802,3.4326171875
,92.5588914,3.3251953125
,92.5645058,3.1298828125
,92.5833975,2.8759765625
,92.6330412,2.59765625
,92.6334042,2.3486328125
,92.6540302,2.1337890625
,92.6596942,1.982421875
,92.711193,1.875
,92.7117786,1.7919921875
,92.7212854,1.69921875
,92.7562633,1.6015625
,92.7769897,1.4892578125
,92.7842955,1.357421875
,92.8343195,1.2158203125
,92.8349135,1.0693359375
,92.8399914,0.927734375
,92.8768249,0.80078125
,92.8823115,0.673828125
,92.9178284,0.5615234375
,92.9450015,0.4638671875
,92.9454811,0.3662109375
,92.9590389,0.2783203125
,92.9934698,0.224609375
,93.0131195,0.17578125
,93.0223348,0.1611328125
,93.0580065,0.3271484375
,93.0606144,0.83984375
,93.0964988,1.455078125
,93.1168986,2.080078125
,93.1225881,2.578125
,93.1435952,2.9931640625
,93.1781,3.271484375
,93.1827801,3.4765625
,93.2187878,3.5693359375
,93.2217439,3.6083984375
,93.258199,3.564453125
,93.2615698,3.4326171875
,93.2961792,3.2421875
,93.3171094,3.0126953125
,93.3257196,2.8076171875
,93.345558,2.587890625
,93.3814324,2.568359375
,93.382064,2.4755859375
,93.4230815,2.2412109375
,93.4235366,2.05078125
,93.4601079,1.8798828125
,93.4633954,1.708984375
,93.4975458,1.5380859375
,93.5173731,1.3671875
,93.5253294,1.1865234375
,93.5402834,1.015625
,93.5753446,0.8642578125
,93.6088552,0.7177734375
,93.6092273,0.5859375
,93.6245245,0.4638671875
,93.6617642,0.3564453125
,93.6623554,0.2587890625
,93.7016233,0.17578125
,93.7020277,0.126953125
,93.7225609,0.1025390625
,93.7629571,0.224609375
,93.763526,0.6494140625
,93.7966892,1.2841796875
,93.8179743,1.8994140625
,93.8248515,2.4462890625
,93.8618469,2.8515625
,93.866297,3.1689453125
,93.9038434,3.3642578125
,93.9042624,3.4619140625
,93.9387388,3.505859375
,93.9415034,3.4521484375
,93.9772935,3.3203125
,93.9978543,3.1103515625
,94.0031322,2.8466796875
,94.0248179,2.578125
,94.072397,2.314453125
,94.0729692,2.1044921875
,94.0875987,1.9580078125
,94.1033351,1.826171875
,94.1405714,1.71875
,94.1413227,1.611328125
,94.1795662,1.4892578125
,94.1852128,1.3525390625
,94.2204154,1.2109375
,94.2251048,1.0546875
,94.2603813,0.9033203125
,94.2808532,0.7470703125
,94.2830829,0.6103515625
,94.3188401,0.4931640625
,94.324434,0.4052734375
,94.3579564,0.3173828125
,94.3786081,0.2392578125
,94.3847452,0.1806640625
,94.4016731,0.1171875
,94.4284923,0.0830078125
,94.4429557,0.09765625
,94.4767214,0.2880859375
,94.4964856,0.7763671875
,94.5029789,1.4453125
,94.5384349,2.080078125
,94.5591667,2.5439453125
,94.5642281,2.9345703125
,94.6013796,3.203125
,94.606374,3.369140625
,94.6221125,3.427734375
,94.660508,3.3837890625
,94.665317,3.2275390625
,94.6837601,3.0126953125
,94.71878,2.7392578125
,94.7398024,2.4365234375
,94.7458406,2.1630859375
,94.7666904,1.943359375
,94.8006544,1.7724609375
,94.8210272,1.640625
,94.8235848,1.552734375
,94.8588669,1.484375
,94.8647743,1.40625
,94.9005671,1.30859375
,94.9052655,1.19140625
,94.9448595,1.083984375
,94.9748741,0.947265625
,94.975348,0.810546875
,94.9863589,0.6689453125
,95.002323,0.556640625
,95.039425,0.4345703125
,95.0674713,0.33203125
,95.0678366,0.3125
,95.0857472,0.244140625
,95.1305583,0.1513671875
,95.1309154,0.0830078125
,95.1522692,0.1171875
,95.1637611,0.283203125
,95.1855564,0.6494140625
,95.2202425,1.259765625
,95.2239334,1.8505859375
,95.245446,2.3779296875
,95.2821719,2.8076171875
,95.2880091,3.2421875
,95.3230396,3.4814453125
,95.3280417,3.69140625
,95.3481719,3.671875
,95.367707,3.515625
,95.3839469,3.330078125
,95.4259088,3.095703125
,95.4262742,2.9443359375
,95.446855,2.578125
,95.4669509,2.2216796875
,95.5041489,2.0263671875
,95.5087126,1.9287109375
,95.5444077,1.8310546875
,95.5474351,1.7919921875
,95.564893,1.6357421875
,95.6128013,1.5380859375
,95.61327,1.416015625
,95.6265866,1.2890625
,95.6631843,1.1669921875
,95.6661607,1.0546875
,95.7058097,0.9130859375
,95.7079881,0.7763671875
,95.7244745,0.6494140625
,95.7586737,0.5712890625
,95.7793989,0.46875
,95.7845841,0.3857421875
,95.8215734,0.33203125
,95.8264675,0.380859375
,95.8612038,0.5810546875
,95.8813019,1.0595703125
,95.8871549,1.6845703125
,95.9044448,2.2216796875
,95.9555127,2.6904296875
,95.9562602,3.02734375
,95.9655196,3.2763671875
,96.0023722,3.4228515625
,96.0327965,3.4716796875
,96.0331621,3.4326171875
,96.0483877,3.2958984375
,96.0694751,3.0712890625
,96.090712,2.7880859375
,96.1059469,2.5048828125
,96.1581859,2.2509765625
,96.1586457,2.08984375
,96.1666614,1.953125
,96.1875733,1.89453125
,96.2219317,1.8359375
,96.2420868,1.7919921875
,96.2496009,1.728515625
,96.2845835,1.630859375
,96.28518,1.513671875
,96.3209977,1.435546875
,96.3267106,1.2939453125
,96.3645956,1.1572265625
,96.3692864,1.044921875
,96.4046558,0.9716796875
,96.4067699,0.8154296875
,96.4475908,0.6640625
,96.447951,0.498046875
,96.4807429,0.3369140625
,96.4875905,0.263671875
,96.523898,0.3173828125
,96.5281518,0.576171875
,96.5733471,1.09375
,96.5739333,1.6357421875
,96.5902787,2.080078125
,96.6092838,2.4462890625
,96.6262245,2.666015625
,96.6645337,2.7587890625
,96.6845046,2.744140625
,96.6873012,2.6611328125
,96.7228329,2.4658203125
,96.7570785,2.1435546875
,96.7576898,1.81640625
,96.7681877,1.494140625
,96.8047281,1.240234375
,96.8120845,1.0400390625
,96.8304714,0.888671875
,96.8462253,0.810546875
,96.8825869,0.7861328125
,96.9139277,0.78125
,96.9142983,0.78125
,96.9289918,0.7666015625
,96.9759468,0.7470703125
,96.9763071,0.693359375
,96.9894239,0.6298828125
,97.0084532,0.546875
,97.0443677,0.4736328125
,97.049159,0.390625
,97.0837754,0.322265625
,97.0892926,0.263671875
,97.1080766,0.25390625
,97.1428135,0.2587890625
,97.1642724,0.4248046875
,97.171139,0.9033203125
,97.1891231,1.5673828125
,97.207348,2.216796875
,97.2426734,2.7197265625
,97.2634747,3.1103515625
,97.2679086,3.349609375
,97.302474,3.4814453125
,97.3230089,3.505859375
,97.3302612,3.3837890625
,97.3465345,3.1884765625
,97.3824971,2.8466796875
,97.3875224,2.509765625
,97.4078528,2.177734375
,97.4429505,1.9287109375
,97.464702,1.73828125
,97.4691843,1.591796875
,97.5054711,1.50390625
,97.5101908,1.4794921875
,97.5450947,1.435546875
,97.5515757,1.4013671875
,97.568371,1.3427734375
,97.6141689,1.3525390625
,97.6145236,1.3037109375
,97.6275898,1.259765625
,97.6643561,1.1328125
,97.6914802,1.0400390625
,97.6918733,0.9375
,97.7263088,0.830078125
,97.7321369,0.76171875
,97.7471438,0.9033203125
,97.7670642,1.2255859375
,97.8021324,1.7236328125
,97.8323823,2.2216796875
,97.83284,2.6123046875
,97.8502589,2.9150390625
,97.8861529,3.1103515625
,97.8913546,3.212890625
,97.9057802,3.2275390625
,97.9567349,3.134765625
,97.9571456,2.9443359375
,97.9861698,2.6611328125
,97.9908797,2.3876953125
,98.0348336,2.119140625
,98.0353127,1.9140625
,98.0518442,1.7626953125
,98.0973833,1.640625
,98.0977551,1.552734375
,98.1070546,1.4697265625
,98.1430688,1.376953125
,98.1760729,1.2646484375
,98.1765185,1.1083984375
,98.1907904,0.947265625
,98.2104726,0.78125
,98.2457013,0.6201171875
,98.2700027,0.4833984375
,98.2705959,0.3662109375
,98.2888328,0.2978515625
,98.3317839,0.341796875
,98.3323752,0.625
,98.348106,1.2158203125
,98.3928023,1.875
,98.3931935,2.373046875
,98.4126467,2.7734375
,98.4562767,3.02734375
,98.4568591,3.1689453125
,98.4681869,3.1787109375
,98.5168865,3.0859375
,98.5172509,2.880859375
,98.5286603,2.587890625
,98.5665975,2.275390625
,98.5869189,1.962890625
,98.5914686,1.73828125
,98.6282318,1.552734375
,98.6285882,1.42578125
,98.6740146,1.337890625
,98.6744677,1.2744140625
,98.689445,1.23046875
,98.7258371,1.1767578125
,98.7316804,1.1279296875
,98.7541319,1.0693359375
,98.7729883,1.005859375
,98.8069069,0.9326171875
,98.807496,0.849609375
,98.8454888,0.7666015625
,98.8653157,0.6982421875
,98.8703321,0.68359375
,98.9059022,0.9033203125
,98.9105741,1.4453125
,98.9472498,2.03125
,98.970041,2.568359375
,98.9706271,2.958984375
,99.0068829,3.271484375
,99.0277644,3.4765625
,99.0311438,3.5595703125
,99.0669673,3.5693359375
,99.0697334,3.486328125
,99.1068342,3.2958984375
,99.1124461,3.0126953125
,99.1459348,2.6611328125
,99.1665742,2.3095703125
,99.173812,2.01171875
,99.1906789,1.767578125
,99.2351107,1.5869140625
,99.2354786,1.4794921875
,99.2510894,1.3818359375
,99.2868038,1.2646484375
,99.2925771,1.162109375
,99.3120236,1.0693359375
,99.3470788,0.9765625
