fs,t,y
52.177803616669046,0.40292510000000004,1.3037109375
,0.4104996999999999,1.357421875
,0.44536409999999993,1.4404296875
,0.464769,1.5478515625
,0.4726566000000001,1.66015625
,0.5057936000000001,1.7578125
,0.5276219000000002,1.8408203125
,0.5347691000000001,1.9091796875
,0.569553,1.97265625
,0.5698406,2.01171875
,0.6046621999999999,2.060546875
,0.6254390000000001,2.0849609375
,0.6320459,2.08984375
,0.6661293000000001,2.0556640625
,0.6863624000000002,2.0361328125
,0.6938388999999998,1.982421875
,0.7291058000000001,1.93359375
,0.7346222,1.904296875
,0.7523607000000001,1.85546875
,0.7933512,1.8359375
,0.7937780000000001,1.81640625
,0.8141728000000001,1.8115234375
,0.8527936,1.77734375
,0.8530353000000002,1.7529296875
,0.8907731999999999,1.708984375
,0.8953894999999998,1.669921875
,0.9114420999999999,1.62109375
,0.9488591,1.62109375
,0.9544571999999998,1.591796875
,0.9737425000000002,1.572265625
,1.0092974,1.5380859375
,1.0131318,1.5185546875
,1.0506981999999998,1.474609375
,1.0535735000000002,1.4794921875
,1.0872652,1.4501953125
,1.1074301000000002,1.4208984375
,1.1142704,1.4111328125
,1.1324238000000002,1.3232421875
,1.1657658,1.3330078125
,1.1862811999999998,1.3330078125
,1.1931105,1.3525390625
,1.2437702000000002,1.4013671875
,1.2441189000000001,1.494140625
,1.2540358,1.5966796875
,1.2891175000000001,1.6943359375
,1.3110862,1.77734375
,1.3114873,1.8896484375
,1.3528402000000002,1.9580078125
,1.3532331000000002,2.0166015625
,1.3733870000000001,2.0703125
,1.4159413,2.080078125
,1.4163313,2.08984375
,1.4617806,2.0751953125
,1.4621005,2.0556640625
,1.4733872,2.0068359375
,1.5103080000000002,1.982421875
,1.5106036,1.93359375
,1.5554755999999998,1.904296875
,1.5557698000000002,1.865234375
,1.5868747,1.8408203125
,1.5961062,1.796875
,1.6326418,1.7626953125
,1.6328874999999998,1.71875
,1.6691836000000002,1.69921875
,1.6709409000000002,1.66015625
,1.7108325,1.640625
,1.7324988000000001,1.611328125
,1.7353644,1.5625
,1.7747587,1.533203125
,1.7751179000000001,1.494140625
,1.8207266999999998,1.455078125
,1.8210548000000002,1.42578125
,1.8310258,1.4404296875
,1.8682984,1.42578125
,1.9001073000000002,1.4111328125
,1.9004151,1.396484375
,1.9142658,1.376953125
,1.935638,1.34765625
,1.9720810000000002,1.337890625
,1.9724734000000002,1.3134765625
,2.0223969000000004,1.328125
,2.0233201999999997,1.30859375
,2.0318565,1.328125
,2.0687796,1.4794921875
,2.0897983,1.62109375
,2.0942857000000004,1.7626953125
,2.1309937000000003,1.85546875
,2.1359028,1.943359375
,2.1703121000000003,2.001953125
,2.1905756,2.05078125
,2.1931618999999998,2.080078125
,2.226872,2.1240234375
,2.2494392999999997,2.1337890625
,2.2519348,2.1240234375
,2.2894463,2.0849609375
,2.2942156000000002,2.041015625
,2.3353007999999997,1.982421875
,2.3659036,1.9580078125
,2.3662601,1.923828125
,2.3738023000000004,1.8701171875
,2.4129771,1.845703125
,2.4132156,1.8115234375
,2.4587111000000004,1.7822265625
,2.4590975999999998,1.7431640625
,2.4894426000000003,1.7041015625
,2.4949636999999996,1.6552734375
,2.536389,1.62109375
,2.5367773,1.58203125
,2.5575441000000003,1.5625
,2.5751593,1.533203125
,2.6126820000000004,1.5185546875
,2.6155044,1.4892578125
,2.6610002,1.46484375
,2.6612372000000004,1.4404296875
,2.6770180000000003,1.40625
,2.6957848,1.38671875
,2.713311,1.357421875
,2.7483943999999996,1.3525390625
,2.7541865999999997,1.318359375
,2.7907719999999996,1.2890625
,2.7954133,1.259765625
,2.833463,1.25
,2.8375926,1.2548828125
,2.8800264,1.337890625
,2.8802656000000004,1.4306640625
,2.8983878,1.513671875
,2.9138811000000002,1.58203125
,2.9340460000000004,1.748046875
,2.9748308000000003,1.8505859375
,2.9752357,1.9580078125
,3.0125161,2.021484375
,3.0172865,2.05078125
,3.0527065999999996,2.0751953125
,3.0563586999999997,2.0849609375
,3.0912325999999997,2.0751953125
,3.1119944999999998,2.05078125
,3.1146478999999996,2.041015625
,3.1495868,2.01171875
,3.1538988999999997,1.9775390625
,3.1759344,1.9384765625
,3.2119695000000004,1.89453125
,3.2153638000000004,1.85546875
,3.2518450000000003,1.81640625
,3.2521215999999997,1.767578125
,3.2725539,1.748046875
,3.3120615000000004,1.728515625
,3.3162035000000003,1.689453125
,3.3630408999999997,1.6552734375
,3.3633040999999997,1.6162109375
,3.3770958,1.5966796875
,3.4253939000000004,1.5576171875
,3.4258213,1.54296875
,3.4333771000000004,1.50390625
,3.4698960999999997,1.50390625
,3.4916381999999997,1.4697265625
,3.4963116000000003,1.4599609375
,3.5327799000000004,1.42578125
,3.5352021000000002,1.4111328125
,3.5787587,1.3720703125
,3.5791489,1.3525390625
,3.5995422,1.318359375
,3.6150857,1.328125
,3.6565592999999996,1.3232421875
,3.656846,1.3037109375
,3.6901697,1.30859375
,3.6949259999999997,1.3427734375
,3.7318466,1.435546875
,3.7363722,1.5283203125
,3.7831577999999997,1.640625
,3.7836108,1.73828125
,3.7962188,1.8359375
,3.8160569000000004,1.89453125
,3.8526631,1.9677734375
,3.8550478000000004,2.0166015625
,3.8902434,2.0751953125
,3.9104605,2.0947265625
,3.9157873,2.1044921875
,3.9531207999999998,2.08984375
,3.9588606000000004,2.0458984375
,3.9935509,2.001953125
,3.9938035000000003,1.9580078125
,4.0293351,1.9482421875
,4.0501151,1.9091796875
,4.0557488,1.8798828125
,4.0923022,1.8310546875
,4.0971594,1.8017578125
,4.1343407,1.7578125
,4.13962,1.728515625
,4.1552955,1.6796875
,4.1887935,1.6650390625
,4.2099155,1.6357421875
,4.2154891,1.611328125
,4.2540609,1.572265625
,4.2588286,1.5576171875
,4.2962325,1.5283203125
,4.2966235,1.494140625
,4.3360551,1.474609375
,4.3364462,1.4404296875
,4.386503,1.4306640625
,4.3867425,1.40625
,4.39609,1.40625
,4.4317675,1.38671875
,4.4374702,1.3720703125
,4.4740433,1.3427734375
,4.4795705,1.328125
,4.4969666,1.3037109375
,4.5315121,1.3427734375
,4.5344672,1.38671875
,4.5740308,1.484375
,4.5744228,1.6015625
,4.6211139,1.69921875
,4.6215035,1.796875
,4.6516714,1.865234375
,4.658495,1.93359375
,4.6956579,1.962890625
,4.7005793,1.9970703125
,4.7168674,2.0068359375
,4.7379568,2.0361328125
,4.7730924,2.0166015625
,4.7763426,2.001953125
,4.8127863,1.962890625
,4.8180476,1.9384765625
,4.838561,1.89453125
,4.8748861,1.8603515625
,4.8751849,1.81640625
,4.8956153,1.8408203125
,4.9366142,1.826171875
,4.9368515,1.8017578125
,4.9583838,1.7724609375
,4.9936938,1.7333984375
,4.9982364,1.7041015625
,5.0326764,1.6650390625
,5.0540983,1.6357421875
,5.0565405,1.6015625
,5.0774809,1.58203125
,5.1133099,1.5625
,5.1165657,1.54296875
,5.1550896,1.513671875
,5.1554804,1.4990234375
,5.20282,1.474609375
,5.2030685,1.4599609375
,5.2332213,1.4501953125
,5.2334733,1.416015625
,5.2795433,1.416015625
,5.2797842,1.396484375
,5.3006049,1.396484375
,5.317849,1.3671875
,5.3384954,1.3671875
,5.3878993,1.376953125
,5.3882186,1.455078125
,5.3956181,1.54296875
,5.4168144,1.689453125
,5.4509913,1.7919921875
,5.4561926,1.8994140625
,5.4940903,1.962890625
,5.4988012,2.0263671875
,5.5190741,2.0556640625
,5.5593604,2.099609375
,5.5597502,2.1142578125
,5.605467,2.109375
,5.6056655,2.08984375
,5.6249479,2.05078125
,5.6350084,2.0263671875
,5.6819956,1.9921875
,5.6823391,1.9580078125
,5.7024924,1.9287109375
,5.7191004,1.8896484375
,5.7551359,1.845703125
,5.7604129,1.806640625
,5.776464,1.767578125
,5.8226737,1.748046875
,5.822964,1.7236328125
,5.8530259,1.6943359375
,5.8587632,1.6748046875
,5.8957436,1.62109375
,5.9008542,1.591796875
,5.9465352,1.5625
,5.9468732,1.5478515625
,5.9564485,1.5185546875
,5.9948389,1.5185546875
,6.0265635,1.50390625
,6.026954399999999,1.494140625
,6.038556700000001,1.4697265625
,6.076162999999999,1.4501953125
,6.0814371000000005,1.416015625
,6.1163559,1.4013671875
,6.1166065,1.3720703125
,6.151922900000001,1.3623046875
,6.1565029,1.3427734375
,6.193488200000001,1.3623046875
,6.1986002,1.4111328125
,6.235723200000001,1.484375
,6.2410526,1.5966796875
,6.289166099999999,1.6943359375
,6.2896429000000005,1.806640625
,6.3026269,1.8896484375
,6.3211151,1.9140625
,6.3386786,1.9189453125
,6.3745691,2.021484375
,6.3798321,2.0751953125
,6.4305132,2.119140625
,6.4309046,2.119140625
,6.439988,2.1240234375
,6.4918415,2.0947265625
,6.4921811,2.0654296875
,6.5013004,2.0361328125
,6.517313,1.982421875
,6.5522905,1.9580078125
,6.572932,1.923828125
,6.578269199999999,1.8994140625
,6.6129628,1.865234375
,6.6334283,1.826171875
,6.640446300000001,1.77734375
,6.676951799999999,1.73828125
,6.7111026,1.6943359375
,6.711339799999999,1.6796875
,6.718608700000001,1.6552734375
,6.7534095999999995,1.6259765625
,6.7747954,1.5966796875
,6.779840399999999,1.5625
,6.799877499999999,1.5283203125
,6.8363207,1.5087890625
,6.8416981,1.4892578125
,6.8602240000000005,1.4501953125
,6.8785097,1.4501953125
,6.915763500000001,1.4306640625
,6.920533799999999,1.4208984375
,6.961401199999999,1.396484375
,6.9617933999999995,1.4013671875
,6.980305400000001,1.3916015625
,7.0152476,1.38671875
,7.0357728,1.3818359375
,7.0384726,1.435546875
,7.0751404,1.5185546875
,7.0785537000000005,1.630859375
,7.101274699999999,1.728515625
,7.149281500000001,1.8310546875
,7.1496403,1.9287109375
,7.1592172000000005,1.97265625
,7.1965036,2.0361328125
,7.218088699999999,2.0556640625
,7.2223462000000005,2.0458984375
,7.2401862999999995,2.0654296875
,7.2755951,2.099609375
,7.2813968,2.0849609375
,7.317247200000001,2.0654296875
,7.3178211,2.0263671875
,7.357076599999999,1.9970703125
,7.3622423,1.953125
,7.3832792000000005,1.923828125
,7.398719399999999,1.8798828125
,7.4345056,1.865234375
,7.4546618,1.826171875
,7.459711,1.81640625
,7.4967583,1.787109375
,7.5019455,1.7529296875
,7.5376771,1.71875
,7.5418327000000005,1.6796875
,7.583272900000001,1.640625
,7.583702499999999,1.6064453125
,7.5997255,1.6015625
,7.643853200000001,1.58203125
,7.6441046,1.5576171875
,7.6619446,1.5283203125
,7.7065714,1.50390625
,7.7069773,1.474609375
,7.723027500000001,1.4599609375
,7.740181700000001,1.4306640625
,7.759581300000001,1.4208984375
,7.779667999999999,1.4208984375
,7.8308403,1.4013671875
,7.8312325000000005,1.3916015625
,7.840485899999999,1.3916015625
,7.875461400000001,1.4501953125
,7.895989800000001,1.5283203125
,7.9018730999999995,1.650390625
,7.9188738999999995,1.73828125
,7.9395515,1.8701171875
,7.9865368,1.953125
,7.9869263,2.05078125
,8.0003234,2.099609375
,8.0476403,2.1533203125
,8.0480282,2.1630859375
,8.0776258,2.1728515625
,8.0823144,2.1533203125
,8.1023249,2.138671875
,8.1373266,2.099609375
,8.1585306,2.0458984375
,8.1612634,2.03125
,8.1805792,1.9921875
,8.2185663,1.962890625
,8.220595,1.923828125
,8.256369,1.89453125
,8.2823348,1.85546875
,8.2826472,1.8212890625
,8.3005572,1.7724609375
,8.3442666,1.7529296875
,8.3445848,1.71875
,8.3608603,1.69921875
,8.3951901,1.6650390625
,8.4158538,1.6357421875
,8.4235358,1.6064453125
,8.4589208,1.5673828125
,8.4637537,1.54296875
,8.4791435,1.513671875
,8.5149369,1.5185546875
,8.5351217,1.50390625
,8.5400709,1.4892578125
,8.5770615,1.4599609375
,8.5819177,1.4404296875
,8.6189768,1.4111328125
,8.62346,1.396484375
,8.6390583,1.3671875
,8.6739192,1.396484375
,8.6951625,1.4501953125
,8.7008549,1.552734375
,8.7372729,1.6552734375
,8.7416403,1.787109375
,8.7799765,1.8994140625
,8.7828502,1.9775390625
,8.8192352,2.05078125
,8.8197131,2.0849609375
,8.8555601,2.1484375
,8.8618659,2.1826171875
,8.9069948,2.20703125
,8.9072375,2.2021484375
,8.9221731,2.177734375
,8.9587813,2.1337890625
,8.9623695,2.08984375
,8.9972529,2.0458984375
,9.0180662,2.03125
,9.0208936,1.9970703125
,9.0575747,1.982421875
,9.0630849,1.962890625
,9.1084502,1.923828125
,9.1091761,1.884765625
,9.1235103,1.8408203125
,9.1691573,1.796875
,9.1693935,1.748046875
,9.1868711,1.708984375
,9.2016117,1.66015625
,9.2226535,1.6357421875
,9.263178,1.6015625
,9.2635023,1.58203125
,9.3091185,1.5478515625
,9.3093611,1.5234375
,9.3253721,1.484375
,9.344748,1.4501953125
,9.3618459,1.416015625
,9.380736,1.42578125
,9.417808,1.4208984375
,9.43827,1.396484375
,9.4409444,1.3720703125
,9.4781642,1.34765625
,9.5132574,1.357421875
,9.513653,1.416015625
,9.5244905,1.5185546875
,9.5402718,1.630859375
,9.5911265,1.767578125
,9.5913715,1.875
,9.6031403,1.962890625
,9.6375521,2.03125
,9.6428722,2.08984375
,9.6799543,2.1142578125
,9.6858868,2.1337890625
,9.7051816,2.1484375
,9.7216554,2.119140625
,9.7563603,2.109375
,9.762204,2.001953125
,9.8000764,2.0068359375
,9.8029613,1.9775390625
,9.8409083,1.9580078125
,9.8412288,1.9140625
,9.876701,1.884765625
,9.8969245,1.8408203125
,9.9054921,1.8115234375
,9.9226437,1.7626953125
,9.9421548,1.748046875
,9.9780488,1.71875
,9.9834045,1.689453125
,10.0200377,1.640625
,10.025126,1.630859375
,10.044527,1.6015625
,10.0892554,1.5673828125
,10.0896442,1.54296875
,10.1031048,1.5087890625
,10.1391674,1.4990234375
,10.1419414,1.4794921875
,10.1793256,1.4599609375
,10.1834862,1.435546875
,10.22057,1.4111328125
,10.2250955,1.3720703125
,10.2612685,1.3427734375
,10.26153,1.328125
,10.3090176,1.3525390625
,10.309405,1.40625
,10.3228206,1.50390625
,10.3578617,1.6259765625
,10.3640575,1.7236328125
,10.4034402,1.8359375
,10.4037366,1.8994140625
,10.4386277,1.9677734375
,10.4616715,2.001953125
,10.4619524,2.0556640625
,10.5081019,2.0751953125
,10.508402,2.08984375
,10.5237548,2.0751953125
,10.557741,2.0654296875
,10.5652235,2.0263671875
,10.6015018,1.9921875
,10.6067064,1.9482421875
,10.6251959,1.8505859375
,10.6426297,1.7724609375
,10.6782531,1.806640625
,10.6985085,1.8017578125
,10.7030857,1.7822265625
,10.7394246,1.7578125
,10.7441606,1.71875
,10.7824268,1.689453125
,10.7854378,1.650390625
,10.8355831,1.630859375
,10.8361084,1.591796875
,10.844152,1.5771484375
,10.8816537,1.5576171875
,10.881907,1.533203125
,10.9273914,1.50390625
,10.9276303,1.4892578125
,10.9483949,1.4599609375
,10.9670121,1.4404296875
,11.0053356,1.42578125
,11.0055792,1.3916015625
,11.0214975,1.376953125
,11.0586412,1.3818359375
,11.0803404,1.4111328125
,11.0848253,1.42578125
,11.1210243,1.4892578125
,11.1238557,1.572265625
,11.1586167,1.689453125
,11.1812208,1.7919921875
,11.1814714,1.9140625
,11.2251474,1.9921875
,11.2253935,2.0751953125
,11.2551262,2.12890625
,11.2648551,2.1826171875
,11.3018668,2.197265625
,11.3074229,2.2265625
,11.3272609,2.2216796875
,11.3427503,2.1826171875
,11.3806931,2.177734375
,11.4108544,2.1435546875
,11.4110899,2.1044921875
,11.4242238,2.05078125
,11.4737291,2.0263671875
,11.47416,1.982421875
,11.4874122,1.943359375
,11.5070773,1.89453125
,11.527653,1.796875
,11.5432814,1.7724609375
,11.5643745,1.7822265625
,11.5989901,1.7529296875
,11.6049823,1.728515625
,11.6410321,1.708984375
,11.6446237,1.669921875
,11.6914672,1.640625
,11.691857,1.6015625
,11.7077146,1.5869140625
,11.7242216,1.54296875
,11.7434597,1.5380859375
,11.7787837,1.5185546875
,11.7833747,1.50390625
,11.8190799,1.4794921875
,11.8455573,1.4697265625
,11.8458126,1.4404296875
,11.8800837,1.4208984375
,11.9006643,1.396484375
,11.9012895,1.40625
,11.9388522,1.435546875
,11.958936,1.5380859375
,11.9638677,1.650390625
,11.9996246,1.748046875
,12.0200236,1.85546875
,12.0282926,1.943359375
,12.0641076,2.0166015625
,12.0644997,2.0751953125
,12.1094654,2.1533203125
,12.1097781,2.1923828125
,12.1298599,2.216796875
,12.1461902,2.216796875
,12.1827248,2.1923828125
,12.1902234,2.1533203125
,12.2063038,2.109375
,12.2232189,2.05078125
,12.2585634,2.03125
,12.2640109,2.01171875
,12.3002073,1.962890625
,12.3046406,1.9287109375
,12.3399493,1.8798828125
,12.3603748,1.8505859375
,12.36549,1.806640625
,12.4064337,1.7724609375
,12.4066792,1.7138671875
,12.4270676,1.6796875
,12.4461164,1.6259765625
,12.4646886,1.611328125
,12.5150903,1.5771484375
,12.5153388,1.5576171875
,12.5257233,1.5234375
,12.563378,1.50390625
,12.5652648,1.4599609375
,12.5995344,1.4501953125
,12.6195117,1.4306640625
,12.6237148,1.4013671875
,12.6592568,1.396484375
,12.6645074,1.3818359375
,12.6986261,1.3671875
,12.7180427,1.3427734375
,12.7259795,1.3330078125
,12.7480104,1.34765625
,12.7945496,1.416015625
,12.7947915,1.5087890625
,12.8054957,1.640625
,12.842054,1.748046875
,12.8439323,1.865234375
,12.8805111,1.9384765625
,12.9008074,2.001953125
,12.9095582,2.0654296875
,12.9510724,2.08984375
,12.9513132,2.109375
,12.9661177,2.1044921875
,12.9854011,2.1044921875
,13.0275813,2.0751953125
,13.0278496,2.041015625
,13.0624774,2.0068359375
,13.0645463,1.97265625
,13.1011422,1.9384765625
,13.121027,1.9189453125
,13.1233889,1.8798828125
,13.1577082,1.865234375
,13.1780074,1.8408203125
,13.1872826,1.806640625
,13.2052437,1.7578125
,13.2396044,1.73828125
,13.2595021,1.7041015625
,13.269271,1.6552734375
,13.2880703,1.62109375
,13.324194,1.5869140625
,13.3295096,1.5576171875
,13.3455118,1.5185546875
,13.3877581,1.513671875
,13.3881496,1.494140625
,13.406601,1.46484375
,13.4407743,1.4404296875
,13.4622974,1.4111328125
,13.4677982,1.3818359375
,13.5033736,1.3623046875
,13.5037076,1.3330078125
,13.5386686,1.318359375
,13.5595935,1.328125
,13.5672011,1.3037109375
,13.6072662,1.2841796875
,13.6076278,1.26953125
,13.6284365,1.26953125
,13.6638115,1.259765625
,13.6886897,1.25
,13.6889993,1.240234375
,13.70594,1.240234375
,13.7428529,1.23046875
,13.747564,1.2353515625
,13.7962365,1.2109375
,13.7966626,1.2060546875
,13.8078412,1.19140625
,13.8429044,1.1767578125
,13.8734942,1.1572265625
,13.8737336,1.1865234375
,13.8855479,1.19140625
,13.919745,1.181640625
,13.9399097,1.1865234375
,13.9455958,1.181640625
,13.9813978,1.171875
,14.0034275,1.1669921875
,14.0104705,1.162109375
,14.024830699999999,1.1474609375
,14.0501979,1.162109375
,14.0686614,1.083984375
,14.0876494,1.1083984375
,14.1235414,1.1181640625
,14.128085299999999,1.15234375
,14.171423699999998,1.162109375
,14.1718157,1.162109375
,14.189619,1.181640625
,14.2103891,1.1669921875
,14.244184,1.1767578125
,14.265022600000002,1.171875
,14.268224199999999,1.19140625
,14.302869600000001,1.1865234375
,14.307957900000002,1.2109375
,14.3440735,1.2646484375
,14.348954800000001,1.38671875
,14.383210900000002,1.513671875
,14.403597999999999,1.6796875
,14.4061645,1.8115234375
,14.4515387,1.9580078125
,14.451928899999999,2.0654296875
,14.4678312,2.158203125
,14.514385,2.197265625
,14.5146576,2.24609375
,14.531109099999998,2.2607421875
,14.565554599999999,2.24609375
,14.5709172,2.2314453125
,14.587231800000001,2.197265625
,14.623553999999999,2.1826171875
,14.625602,2.1728515625
,14.662582400000002,2.1630859375
,14.684216500000002,2.1435546875
,14.689408700000001,2.1142578125
,14.734663600000001,2.0849609375
,14.734912099999999,2.0556640625
,14.746180200000001,2.0263671875
,14.7811926,2.0166015625
,14.7869107,1.9873046875
,14.821478599999999,1.953125
,14.842384299999999,1.9384765625
,14.8476742,1.904296875
,14.8823091,1.8701171875
,14.905383100000002,1.826171875
,14.909911699999999,1.8017578125
,14.931834299999998,1.7578125
,14.9485202,1.6845703125
,14.9674445,1.611328125
,15.0049363,1.640625
,15.0100823,1.640625
,15.059883200000002,1.640625
,15.060278499999999,1.6259765625
,15.070442,1.6162109375
,15.0901299,1.5869140625
,15.1237918,1.5673828125
,15.1444875,1.552734375
,15.1474005,1.6259765625
,15.183523000000001,1.7138671875
,15.189105699999999,1.806640625
,15.2325436,1.9189453125
,15.233011900000001,2.01171875
,15.249891900000001,2.099609375
,15.2867371,2.1533203125
,15.289723599999999,2.2021484375
,15.308734600000001,2.2216796875
,15.345272000000001,2.2607421875
,15.3493654,2.275390625
,15.384678099999999,2.2802734375
,15.390493500000002,2.24609375
,15.4370145,2.216796875
,15.4373365,2.16796875
,15.4506272,2.119140625
,15.498189400000001,2.08984375
,15.4984286,2.041015625
,15.519308599999999,2.0166015625
,15.5284808,1.982421875
,15.561666800000001,1.9580078125
,15.580679799999999,1.9189453125
,15.591098500000001,1.8798828125
,15.6108932,1.8310546875
,15.6470083,1.787109375
,15.6473525,1.7431640625
,15.6819004,1.7333984375
,15.687448199999999,1.7041015625
,15.70882,1.6943359375
,15.744386800000001,1.669921875
,15.748947399999999,1.650390625
,15.770702100000001,1.611328125
,15.805559200000001,1.591796875
,15.810400000000001,1.572265625
,15.846492300000001,1.5380859375
,15.851644,1.5087890625
,15.8682959,1.4794921875
,15.919543399999998,1.4697265625
,15.920013699999998,1.46484375
,15.948806399999999,1.4892578125
,15.949046500000001,1.5380859375
,15.9851849,1.6357421875
,16.0052649,1.7333984375
,16.0122602,1.8359375
,16.0284497,1.9091796875
,16.0630724,2.01171875
,16.0827089,2.0654296875
,16.0910667,2.109375
,16.1265784,2.1435546875
,16.1288254,2.1435546875
,16.1658617,2.1337890625
,16.1708066,2.1142578125
,16.2069903,2.099609375
,16.2293704,2.0556640625
,16.2296131,2.0361328125
,16.2761607,2.01171875
,16.2766343,1.9775390625
,16.2903442,1.9384765625
,16.3115154,1.8994140625
,16.3309665,1.85546875
,16.3643797,1.826171875
,16.3849428,1.7822265625
,16.3881028,1.7626953125
,16.4089382,1.7236328125
,16.4460813,1.7138671875
,16.4498282,1.689453125
,16.4953583,1.6455078125
,16.4956081,1.611328125
,16.5113125,1.5771484375
,16.5325635,1.5576171875
,16.5476679,1.5185546875
,16.5891569,1.513671875
,16.5894024,1.494140625
,16.6097127,1.474609375
,16.6436646,1.455078125
,16.6638669,1.4306640625
,16.6711789,1.4111328125
,16.7130331,1.4208984375
,16.7134249,1.455078125
,16.7586468,1.5380859375
,16.7588892,1.6552734375
,16.7694873,1.7529296875
,16.8078049,1.8701171875
,16.8080703,1.943359375
,16.85318,2.021484375
,16.8534234,2.0654296875
,16.8895846,2.1044921875
,16.8923579,2.119140625
,16.9139873,2.1337890625
,16.9298695,2.1142578125
,16.9787708,2.1240234375
,16.9793,2.08984375
,16.9906656,2.060546875
,17.0411695,2.021484375
,17.0414142,1.9970703125
,17.0509698,1.9482421875
,17.0846998,1.923828125
,17.1054804,1.884765625
,17.1073616,1.845703125
,17.1438925,1.81640625
,17.1662414,1.7919921875
,17.1713421,1.7578125
,17.2135849,1.7333984375
,17.2138452,1.7138671875
,17.2580644,1.689453125
,17.2583597,1.66015625
,17.269778,1.630859375
,17.3078721,1.611328125
,17.3083239,1.591796875
,17.3520713,1.58203125
,17.3524622,1.5478515625
,17.3731927,1.5185546875
,17.3935955,1.5087890625
,17.4304954,1.474609375
,17.4329241,1.455078125
,17.4486213,1.42578125
,17.4936923,1.4599609375
,17.493929,1.435546875
,17.5128681,1.5625
,17.5543751,1.689453125
,17.5546123,1.81640625
,17.5730278,1.9091796875
,17.5934379,2.0068359375
,17.6276488,2.0703125
,17.6474143,2.12890625
,17.6495403,2.1630859375
,17.6844457,2.2119140625
,17.7057741,2.2216796875
,17.7111698,2.24609375
,17.7562526,2.2265625
,17.7564968,2.1826171875
,17.773698,2.138671875
,17.8110177,2.0849609375
,17.8114072,2.041015625
,17.831826,1.9970703125
,17.8667305,1.982421875
,17.8693345,1.943359375
,17.9049825,1.904296875
,17.9254801,1.865234375
,17.9332947,1.8310546875
,17.9746157,1.77734375
,17.9750087,1.748046875
,17.9919736,1.6943359375
,18.0106197,1.669921875
,18.0468075,1.6552734375
,18.0521949,1.6162109375
,18.0977946,1.58203125
,18.0981026,1.54296875
,18.1119301,1.5283203125
,18.1470835,1.484375
,18.178109,1.455078125
,18.1784984,1.4208984375
,18.1921677,1.4111328125
,18.2111266,1.3916015625
,18.2482728,1.3916015625
,18.2531377,1.3818359375
,18.3012741,1.396484375
,18.3016632,1.455078125
,18.3142054,1.5625
,18.3302611,1.669921875
,18.3799398,1.8115234375
,18.3801758,1.8505859375
,18.3915116,1.8701171875
,18.4275427,1.9921875
,18.4320406,2.0703125
,18.4699963,2.1240234375
,18.4753523,2.1533203125
,18.5122029,2.1728515625
,18.5124381,2.158203125
,18.5504648,2.1337890625
,18.5507033,2.0947265625
,18.6000428,2.060546875
,18.6003747,2.021484375
,18.6302469,1.9873046875
,18.6332225,1.9482421875
,18.6769869,1.904296875
,18.6772324,1.875
,18.6940446,1.8212890625
,18.7272639,1.77734375
,18.7476656,1.73828125
,18.7532266,1.7236328125
,18.7745587,1.689453125
,18.792642,1.6650390625
,18.829463,1.630859375
,18.8322499,1.6015625
,18.8680166,1.5576171875
,18.8885254,1.533203125
,18.8889251,1.494140625
,18.9269472,1.494140625
,18.947536,1.474609375
,18.9525881,1.4599609375
,18.9909355,1.4208984375
,18.9912147,1.40625
,19.0360725,1.3818359375
,19.0363114,1.3525390625
,19.0562888,1.357421875
,19.0712233,1.396484375
,19.093258,1.4990234375
,19.1270849,1.62109375
,19.1342947,1.7431640625
,19.153796,1.845703125
,19.1892432,1.9287109375
,19.1937657,1.9921875
,19.2290056,2.041015625
,19.2358269,2.0751953125
,19.2568443,2.0703125
,19.2733022,2.05078125
,19.308684,2.109375
,19.313335,2.1337890625
,19.362456,2.1044921875
,19.3629274,2.080078125
,19.3734485,2.03125
,19.4086138,1.9970703125
,19.4293167,1.9482421875
,19.4374934,1.9189453125
,19.4510288,1.865234375
,19.4881746,1.8505859375
,19.4929876,1.8115234375
,19.5292403,1.7919921875
,19.5346034,1.748046875
,19.5801536,1.71875
,19.5804024,1.669921875
,19.5951708,1.6357421875
,19.6275299,1.5869140625
,19.6322154,1.58203125
,19.6665535,1.552734375
,19.6874571,1.5185546875
,19.6946551,1.494140625
,19.7296015,1.4697265625
,19.7360138,1.4404296875
,19.7840233,1.416015625
,19.7844141,1.4013671875
,19.7937646,1.3720703125
,19.8293025,1.3671875
,19.8322677,1.357421875
,19.8769172,1.3720703125
,19.8771547,1.42578125
,19.8953995,1.533203125
,19.9322279,1.6455078125
,19.9344169,1.767578125
,19.9697622,1.8798828125
,19.9909185,1.953125
,19.9940351,2.041015625
,20.0325494,2.1044921875
,20.0328698,2.16796875
,20.0785677,2.1826171875
,20.0788055,2.197265625
,20.0959513,2.1826171875
,20.142486,2.16796875
,20.1428046,2.119140625
,20.1575597,2.0703125
,20.1741344,2.01171875
,20.2210053,1.9873046875
,20.2212467,1.953125
,20.2361222,1.9140625
,20.2716906,1.8701171875
,20.2768633,1.8505859375
,20.3141419,1.8212890625
,20.3144682,1.7822265625
,20.3617287,1.73828125
,20.3621207,1.6943359375
,20.3917554,1.6748046875
,20.39845,1.6357421875
,20.4143258,1.6064453125
,20.4545427,1.5625
,20.4855892,1.533203125
,20.4858309,1.4892578125
,20.4968963,1.4599609375
,20.5132972,1.4306640625
,20.5477999,1.4306640625
,20.5681826,1.4013671875
,20.5760621,1.3818359375
,20.5955835,1.3623046875
,20.6430702,1.3330078125
,20.6433629,1.30859375
,20.6725709,1.298828125
,20.6779284,1.328125
,20.6940792,1.40625
,20.736143,1.54296875
,20.7365336,1.6650390625
,20.7545098,1.7919921875
,20.7977178,1.884765625
,20.7981071,1.9775390625
,20.8279925,2.03125
,20.8354263,2.08984375
,20.8521929,2.1044921875
,20.8862856,2.138671875
,20.9084876,2.1337890625
,20.9154518,2.12890625
,20.9349237,2.0947265625
,20.9555637,2.05078125
,20.9757656,2.0068359375
,21.0149531,1.9580078125
,21.0348914,1.9189453125
,21.0379941,1.875
,21.0762232,1.8310546875
,21.0766423,1.7919921875
,21.1245267,1.767578125
,21.1249174,1.73828125
,21.1358536,1.69921875
,21.1710637,1.650390625
,21.1762113,1.62109375
,21.2130019,1.572265625
,21.2175384,1.5380859375
,21.253067,1.5087890625
,21.2535436,1.46484375
,21.2926839,1.455078125
,21.3151561,1.4453125
,21.3155368,1.4501953125
,21.3554403,1.42578125
,21.3557018,1.4111328125
,21.375667,1.38671875
,21.4118313,1.3720703125
,21.4122896,1.328125
,21.4538278,1.3330078125
,21.4542294,1.3037109375
,21.4898366,1.3232421875
,21.5108724,1.376953125
,21.5159346,1.484375
,21.5576172,1.58203125
,21.5579945,1.71875
,21.5787499,1.8212890625
,21.593465,1.89453125
,21.6140191,1.97265625
,21.6495651,2.0263671875
,21.6555004,2.0654296875
,21.6923394,2.080078125
,21.6969559,2.08984375
,21.7452434,2.080078125
,21.7454808,2.0458984375
,21.7524157,2.0068359375
,21.7902324,1.97265625
,21.7928784,1.875
,21.8293275,1.884765625
,21.8496001,1.865234375
,21.8556883,1.8408203125
,21.9047001,1.8115234375
,21.9050889,1.7626953125
,21.923023,1.728515625
,21.9397954,1.6845703125
,21.9596054,1.650390625
,21.9738296,1.6015625
,22.0071373,1.5869140625
,22.0295955,1.5576171875
,22.0374914,1.5380859375
,22.0763618,1.4990234375
,22.0767489,1.474609375
,22.1232403,1.4404296875
,22.1236361,1.416015625
,22.1547229,1.3818359375
,22.1550384,1.3720703125
,22.1911491,1.337890625
,22.2117859,1.328125
,22.2168753,1.3037109375
,22.2625174,1.26953125
,22.2627566,1.2451171875
,22.2791635,1.2255859375
,22.3274104,1.2109375
,22.3278223,1.181640625
,22.3353793,1.1962890625
,22.3740657,1.1865234375
,22.3778923,1.1865234375
,22.4197949,1.171875
,22.4203652,1.162109375
,22.4372777,1.142578125
,22.46986,1.1328125
,22.4909939,1.11328125
,22.4961268,1.123046875
,22.5443861,1.1279296875
,22.5449112,1.11328125
,22.5574929,1.1083984375
,22.6067061,1.09375
,22.6069511,1.0986328125
,22.6194415,1.0888671875
,22.6537479,1.0791015625
,22.6597513,1.064453125
,22.6807523,1.0009765625
,22.6960694,0.9423828125
,22.7304132,0.9912109375
,22.7504281,1.015625
,22.7567975,1.0400390625
,22.7927734,1.044921875
,22.7973165,1.0546875
,22.8325474,1.0498046875
,22.8549581,1.0693359375
,22.8595862,1.07421875
,22.8762033,1.064453125
,22.9191911,1.09375
,22.9195793,1.09375
,22.9491937,1.1083984375
,22.958786,1.103515625
,22.9949681,1.1083984375
,22.9988528,1.0986328125
,23.0436811,1.0986328125
,23.0440438,1.0791015625
,23.0579293,1.083984375
,23.0789358,1.0791015625
,23.1150941,1.103515625
,23.1187997,1.162109375
,23.1544027,1.2890625
,23.1596216,1.4697265625
,23.2007234,1.630859375
,23.2010479,1.806640625
,23.2158891,1.9287109375
,23.2509764,2.0654296875
,23.2777778,2.138671875
,23.2783013,2.2021484375
,23.3257169,2.2314453125
,23.3260451,2.255859375
,23.339233,2.24609375
,23.3741338,2.2509765625
,23.3765549,2.2216796875
,23.4166316,2.2265625
,23.4170428,2.2021484375
,23.4516748,2.177734375
,23.4717248,2.1337890625
,23.4787749,2.1142578125
,23.5149865,2.08984375
,23.5378909,2.041015625
,23.5381615,1.9970703125
,23.5618786,1.962890625
,23.5977506,1.875
,23.5980483,1.8505859375
,23.6340619,1.845703125
,23.6386405,1.8212890625
,23.6767436,1.8017578125
,23.6790978,1.787109375
,23.7119096,1.7578125
,23.7334226,1.7236328125
,23.7397478,1.69921875
,23.7568178,1.669921875
,23.7923486,1.6552734375
,23.7982,1.6552734375
,23.8354182,1.62109375
,23.8395041,1.611328125
,23.8755627,1.5771484375
,23.8817612,1.5673828125
,23.9004352,1.5380859375
,23.9417107,1.5234375
,23.9421446,1.513671875
,23.9559927,1.58203125
,23.9933917,1.66015625
,24.0187159,1.787109375
,24.0191258,1.875
,24.0567972,1.982421875
,24.0612163,2.041015625
,24.0796245,2.099609375
,24.0977298,2.119140625
,24.1335813,2.1826171875
,24.1367381,2.197265625
,24.1724519,2.1875
,24.2037058,2.1630859375
,24.2041857,2.138671875
,24.2202572,2.099609375
,24.2563293,2.05078125
,24.2614033,2.0166015625
,24.2767261,1.9775390625
,24.3117677,1.962890625
,24.3325772,1.93359375
,24.3375382,1.904296875
,24.3735768,1.865234375
,24.3949481,1.8505859375
,24.400998,1.81640625
,24.4208628,1.7822265625
,24.4681685,1.7578125
,24.4686948,1.7138671875
,24.4985969,1.6845703125
,24.4988452,1.6455078125
,24.533571,1.6357421875
,24.5406785,1.6064453125
,24.5777227,1.58203125
,24.5833716,1.5576171875
,24.6024387,1.54296875
,24.6205568,1.5087890625
,24.6701109,1.494140625
,24.6705165,1.46484375
,24.6777357,1.46484375
,24.7181938,1.455078125
,24.7495618,1.4697265625
,24.7497737,1.4990234375
,24.7604245,1.5966796875
,24.8117371,1.708984375
,24.8120909,1.8017578125
,24.8230996,1.904296875
,24.8379561,1.9677734375
,24.8737652,2.041015625
,24.8786286,2.08984375
,24.9188724,2.138671875
,24.9190732,2.1533203125
,24.9528688,2.1728515625
,24.9751985,2.1533203125
,24.9824301,2.1337890625
,25.0002749,2.0947265625
,25.0187106,2.08984375
,25.0579735,2.0458984375
,25.0582757,2.01171875
,25.1038276,1.9873046875
,25.1041051,1.953125
,25.1251676,1.9140625
,25.1411471,1.865234375
,25.1823696,1.81640625
,25.1827155,1.77734375
,25.1975091,1.767578125
,25.2334039,1.7333984375
,25.2534418,1.7041015625
,25.2604308,1.669921875
,25.2944352,1.6357421875
,25.3154382,1.6015625
,25.3226339,1.5771484375
,25.3431641,1.5380859375
,25.3863018,1.513671875
,25.3865407,1.474609375
,25.4005729,1.4990234375
,25.4374359,1.4990234375
,25.4378302,1.4794921875
,25.4819373,1.4599609375
,25.4825133,1.4453125
,25.5018644,1.4306640625
,25.5225821,1.435546875
,25.5574715,1.494140625
,25.5577092,1.5869140625
,25.5946313,1.7236328125
,25.6187637,1.8408203125
,25.6207229,1.943359375
,25.6651954,2.0166015625
,25.6657629,2.0849609375
,25.6850304,2.119140625
,25.7022985,2.1533203125
,25.7445901,2.1875
,25.7448387,2.177734375
,25.7593327,2.1875
,25.7954165,2.16796875
,25.8255973,2.1435546875
,25.8258417,2.08984375
,25.8421285,2.05078125
,25.8789167,2.001953125
,25.8845972,1.9677734375
,25.8986274,1.9140625
,25.9355761,1.9091796875
,25.9648289,1.8701171875
,25.9650659,1.8408203125
,25.9814215,1.796875
,26.0288479,1.7626953125
,26.0291649,1.7138671875
,26.0411052,1.6845703125
,26.0764612,1.640625
,26.0977257,1.5966796875
,26.1050203,1.5087890625
,26.1215525,1.4306640625
,26.1560421,1.4453125
,26.1613931,1.4501953125
,26.1987802,1.4501953125
,26.203176,1.4306640625
,26.2467128,1.4111328125
,26.2470515,1.38671875
,26.2637872,1.3671875
,26.2794887,1.3427734375
,26.3158586,1.3427734375
,26.3366924,1.3525390625
,26.34119,1.4013671875
,26.3860787,1.5087890625
,26.3864489,1.6162109375
,26.404095,1.7431640625
,26.4243815,1.8408203125
,26.4422361,1.9482421875
,26.4759419,2.0068359375
,26.4802514,2.0849609375
,26.5169402,2.119140625
,26.5422132,2.1484375
,26.5424084,2.138671875
,26.589413,2.12890625
,26.5897306,2.099609375
,26.6029118,2.060546875
,26.6200494,2.01171875
,26.6549856,1.9873046875
,26.6754386,1.9580078125
,26.6805816,1.9384765625
,26.7179078,1.904296875
,26.7228358,1.865234375
,26.7638883,1.8310546875
,26.7641313,1.7919921875
,26.8092649,1.7626953125
,26.809503,1.71875
,26.8301742,1.69921875
,26.8402591,1.6650390625
,26.8885877,1.6357421875
,26.8888851,1.6064453125
,26.9085249,1.5771484375
,26.9227862,1.5478515625
,26.9592088,1.5283203125
,26.964242,1.494140625
,26.9996223,1.416015625
,27.0185981,1.42578125
,27.0188333,1.40625
,27.0610275,1.4013671875
,27.0612692,1.38671875
,27.0812238,1.38671875
,27.1174832,1.3720703125
,27.1399507,1.40625
,27.1446612,1.4599609375
,27.1852975,1.572265625
,27.1855448,1.6748046875
,27.2023081,1.81640625
,27.2354742,1.9091796875
,27.2556043,1.9970703125
,27.2637158,2.05078125
,27.3103897,2.08984375
,27.3107964,2.1142578125
,27.339338,2.1337890625
,27.3451108,2.1337890625
,27.3619692,2.1044921875
,27.3988232,2.0947265625
,27.4017438,2.0556640625
,27.4384156,2.021484375
,27.4416149,1.9970703125
,27.479194,1.9970703125
,27.4849952,1.97265625
,27.5204547,1.943359375
,27.5213193,1.904296875
,27.543014,1.884765625
,27.5618532,1.8505859375
,27.5973234,1.8310546875
,27.6192993,1.7822265625
,27.6224325,1.7431640625
,27.6687838,1.7138671875
,27.6691745,1.669921875
,27.6864442,1.6357421875
,27.7018599,1.591796875
,27.7385703,1.5869140625
,27.7431314,1.552734375
,27.7895583,1.533203125
,27.7898048,1.4990234375
,27.8028569,1.4794921875
,27.8378242,1.4404296875
,27.8460059,1.42578125
,27.8819598,1.3916015625
,27.8835648,1.376953125
,27.9019482,1.357421875
,27.9455127,1.396484375
,27.9459072,1.455078125
,27.9621663,1.6015625
,28.0065616,1.728515625
,28.0068131,1.8408203125
,28.0274094,1.9384765625
,28.0445534,2.0166015625
,28.0785722,2.0751953125
,28.1010104,2.1142578125
,28.1012601,2.16796875
,28.1387287,2.197265625
,28.1637932,2.20703125
,28.1641813,2.1923828125
,28.1998563,2.1533203125
,28.2053137,2.109375
,28.2563321,2.0703125
,28.2567255,2.0166015625
,28.2618311,1.982421875
,28.2980175,1.962890625
,28.3039769,1.9140625
,28.3481532,1.875
,28.3486396,1.826171875
,28.3655122,1.8017578125
,28.400976,1.7431640625
,28.4046119,1.7041015625
,28.422332,1.650390625
,28.4716657,1.630859375
,28.4720731,1.5966796875
,28.4825968,1.5869140625
,28.5176776,1.5478515625
,28.5373823,1.5185546875
,28.542557,1.484375
,28.5761948,1.4599609375
,28.597835,1.42578125
,28.6031527,1.4404296875
,28.6387088,1.4208984375
,28.6414558,1.396484375
,28.6634481,1.3720703125
,28.682488,1.34765625
,28.7196456,1.3330078125
,28.7248143,1.337890625
,28.7698155,1.396484375
,28.7700686,1.4892578125
,28.7856206,1.6162109375
,28.8039422,1.7236328125
,28.8470989,1.8505859375
,28.8473427,1.93359375
,28.8630089,2.0263671875
,28.9097225,2.0751953125
,28.9099678,2.119140625
,28.9299575,2.1533203125
,28.9464208,2.1533203125
,28.9812619,2.138671875
,28.9848914,2.1044921875
,29.0211081,2.08984375
,29.022892,2.041015625
,29.06397,2.001953125
,29.0941257,1.9580078125
,29.0943721,1.9287109375
,29.1067991,1.8701171875
,29.1571451,1.8359375
,29.1573809,1.787109375
,29.1642009,1.767578125
,29.1839901,1.73828125
,29.218264,1.69921875
,29.2385627,1.650390625
,29.2435629,1.6259765625
,29.2811913,1.5869140625
,29.3011543,1.5380859375
,29.3066691,1.50390625
,29.3231872,1.455078125
,29.358477,1.4404296875
,29.3633289,1.416015625
,29.3983159,1.4111328125
,29.4192373,1.38671875
,29.4250904,1.357421875
,29.4618384,1.3232421875
,29.4673492,1.3037109375
,29.4833662,1.26953125
,29.5071506,1.3037109375
,29.5244505,1.220703125
,29.5428486,1.279296875
,29.5808332,1.3818359375
,29.5848817,1.4892578125
,29.6201281,1.630859375
,29.6430326,1.748046875
,29.6478145,1.8701171875
,29.6894496,1.943359375
,29.6897748,2.0166015625
,29.7041916,2.05078125
,29.7397318,2.1044921875
,29.760848,2.119140625
,29.7653942,2.1337890625
,29.8005952,2.099609375
,29.8056418,2.0556640625
,29.8414177,2.0068359375
,29.8458824,1.9580078125
,29.8642301,1.904296875
,29.901056,1.904296875
,29.9027614,1.8798828125
,29.9405524,1.8359375
,29.9441889,1.806640625
,29.9806832,1.7578125
,29.9869857,1.7236328125
,30.023798300000003,1.6845703125
,30.029213900000002,1.6552734375
,30.0459533,1.6162109375
,30.064877799999998,1.5966796875
,30.1100863,1.5673828125
,30.1104354,1.54296875
,30.1242911,1.5087890625
,30.1585117,1.484375
,30.179091,1.455078125
,30.188045099999997,1.435546875
,30.226189400000003,1.416015625
,30.2265176,1.376953125
,30.245235299999997,1.3720703125
,30.2646072,1.3525390625
,30.300691899999997,1.34765625
,30.3067312,1.318359375
,30.344173400000003,1.3134765625
,30.344561400000003,1.328125
,30.3897792,1.4013671875
,30.390166800000003,1.50390625
,30.418892800000002,1.5869140625
,30.424138300000003,1.6552734375
,30.4603629,1.81640625
,30.4646629,1.9189453125
,30.4977869,2.01171875
,30.519332900000002,2.05078125
,30.5268971,2.1142578125
,30.5482546,2.1337890625
,30.569076699999997,2.12890625
,30.606944300000002,2.1044921875
,30.607180999999997,2.060546875
,30.625858299999997,2.03125
,30.660206799999997,2.001953125
,30.666005499999997,1.982421875
,30.7004468,1.943359375
,30.721521000000003,1.904296875
,30.725553400000003,1.865234375
,30.7608294,1.8310546875
,30.781587100000003,1.7919921875
,30.784997500000003,1.787109375
,30.824188999999997,1.748046875
,30.826304299999997,1.71875
,30.860996299999996,1.69921875
,30.868011000000003,1.6552734375
,30.902988800000003,1.62109375
,30.907446899999997,1.58203125
,30.949539100000003,1.5576171875
,30.949855,1.5185546875
,30.969018300000002,1.5185546875
,30.985333699999998,1.4892578125
,31.028483299999998,1.4794921875
,31.028874000000002,1.4453125
,31.0591637,1.4404296875
,31.0668176,1.4111328125
,31.101089100000003,1.396484375
,31.1213076,1.3623046875
,31.1242108,1.3720703125
,31.1593346,1.40625
,31.17993,1.513671875
,31.1880333,1.6357421875
,31.2266165,1.73828125
,31.2268526,1.8603515625
,31.2623209,1.9384765625
,31.267142200000002,2.0166015625
,31.302712900000003,2.0703125
,31.323726999999998,2.1240234375
,31.3267887,2.1435546875
,31.346547299999997,2.177734375
,31.381815099999997,2.177734375
,31.414931000000003,2.1630859375
,31.415168199999997,2.119140625
,31.429596600000004,2.0849609375
,31.466146700000003,2.0361328125
,31.4692955,1.9970703125
,31.507370700000003,1.9677734375
,31.507613499999998,1.9189453125
,31.526162,1.89453125
,31.5636633,1.8701171875
,31.568958000000002,1.8701171875
,31.587263200000002,1.8310546875
,31.6228398,1.7919921875
,31.643831300000002,1.7529296875
,31.649622,1.71875
,31.6650725,1.6748046875
,31.699911200000003,1.669921875
,31.7200136,1.6357421875
,31.7277918,1.6064453125
,31.775101399999997,1.5673828125
,31.775351,1.5478515625
,31.7876288,1.513671875
,31.8234706,1.4990234375
,31.8301418,1.474609375
,31.8469342,1.435546875
,31.8822769,1.42578125
,31.8867658,1.40625
,31.931428699999998,1.38671875
,31.931666,1.3720703125
,31.9474547,1.416015625
,31.993867,1.4892578125
,31.994106000000002,1.6064453125
,32.014689,1.7138671875
,32.0262668,1.845703125
,32.0468197,1.9384765625
,32.0894409,2.0361328125
,32.0896816,2.08984375
,32.1234005,2.138671875
,32.1287431,2.1826171875
,32.1644521,2.1923828125
,32.1691179,2.1923828125
,32.2051974,2.16796875
,32.211307,2.1484375
,32.2263264,2.08984375
,32.2617373,2.060546875
,32.2819005,2.021484375
,32.2896618,1.9970703125
,32.3256156,1.9482421875
,32.3303508,1.923828125
,32.3720912,1.8701171875
,32.3723358,1.8408203125
,32.388771,1.7919921875
,32.4070393,1.77734375
,32.4421152,1.7333984375
,32.4635357,1.71875
,32.4681323,1.6845703125
,32.4901612,1.6455078125
,32.5092318,1.6015625
,32.5583533,1.5625
,32.5585914,1.533203125
,32.5784327,1.50390625
,32.5879557,1.5087890625
,32.624529,1.484375
,32.6276108,1.46484375
,32.6626965,1.4404296875
,32.6828929,1.4208984375
,32.6901762,1.3916015625
,32.7274416,1.376953125
,32.7281328,1.357421875
,32.7470545,1.40625
,32.7917428,1.4990234375
,32.79199,1.6015625
,32.8070269,1.728515625
,32.8530515,1.826171875
,32.8532941,1.9287109375
,32.8739349,1.9921875
,32.8919016,2.0654296875
,32.9079281,2.0849609375
,32.9423149,2.138671875
,32.9476999,2.1533203125
,32.9829729,2.1728515625
,32.9888287,2.1533203125
,33.0231808,2.12890625
,33.0427434,2.080078125
,33.05064,2.0361328125
,33.0703729,1.9775390625
,33.1191577,1.9482421875
,33.119415,1.9091796875
,33.1268095,1.865234375
,33.1670796,1.8408203125
,33.1969997,1.81640625
,33.1972496,1.7822265625
,33.2085994,1.73828125
,33.2447392,1.7041015625
,33.2656264,1.669921875
,33.2707706,1.630859375
,33.2873024,1.5966796875
,33.3232003,1.5673828125
,33.32918,1.54296875
,33.3670196,1.5234375
,33.3674113,1.4990234375
,33.4022387,1.474609375
,33.4228627,1.455078125
,33.4306615,1.416015625
,33.4782626,1.3916015625
,33.4786558,1.3623046875
,33.4898807,1.3671875
,33.5400497,1.337890625
,33.5402877,1.328125
,33.549274,1.337890625
,33.60116,1.396484375
,33.6020398,1.494140625
,33.6099668,1.6455078125
,33.6269278,1.7529296875
,33.6651058,1.8798828125
,33.6825898,1.9677734375
,33.687981,2.041015625
,33.7231855,2.0751953125
,33.7434963,2.12890625
,33.7514016,2.1533203125
,33.7861227,2.1484375
,33.7905857,2.1337890625
,33.8118197,2.0947265625
,33.8327593,1.9921875
,33.8483363,1.9140625
,33.8852625,1.93359375
,33.9045148,1.923828125
,33.9088814,1.904296875
,33.9586336,1.875
,33.9588618,1.8408203125
,33.9806853,1.8017578125
,33.9927344,1.7822265625
,34.0087989,1.73828125
,34.0514915,1.71875
,34.0518066,1.69921875
,34.0731338,1.66015625
,34.0908246,1.6259765625
,34.1313195,1.591796875
,34.1315653,1.5673828125
,34.1509365,1.533203125
,34.1944659,1.5087890625
,34.1948018,1.474609375
,34.2263823,1.46484375
,34.2313502,1.4453125
,34.2704684,1.435546875
,34.2710208,1.40625
,34.3054454,1.396484375
,34.3256532,1.3671875
,34.3309556,1.3525390625
,34.3476195,1.3427734375
,34.3943415,1.416015625
,34.3946468,1.5283203125
,34.4142769,1.640625
,34.4302214,1.7724609375
,34.4658055,1.865234375
,34.4857234,1.9580078125
,34.492276,2.0166015625
,34.5284798,2.0751953125
,34.5287786,2.1044921875
,34.56388,2.1435546875
,34.5697808,2.158203125
,34.6068484,2.1533203125
,34.6140375,2.1240234375
,34.629662,2.0947265625
,34.6633546,2.0458984375
,34.6849329,2.01171875
,34.6921948,1.982421875
,34.7273553,1.9287109375
,34.7343454,1.8896484375
,34.7492759,1.845703125
,34.7833493,1.8359375
,34.8038895,1.8017578125
,34.811348,1.77734375
,34.8600437,1.728515625
,34.860286,1.689453125
,34.8724241,1.6455078125
,34.9241816,1.6259765625
,34.9245741,1.58203125
,34.9326243,1.5625
,34.952239,1.533203125
,35.0022121,1.5087890625
,35.0025915,1.474609375
,35.0118883,1.46484375
,35.0478359,1.4404296875
,35.054935,1.4111328125
,35.0734379,1.3916015625
,35.0901704,1.357421875
,35.1414644,1.34765625
,35.1419301,1.337890625
,35.1509444,1.3525390625
,35.1872622,1.38671875
,35.1921709,1.474609375
,35.2351013,1.5771484375
,35.2353501,1.7041015625
,35.2653147,1.8115234375
,35.2683213,1.9384765625
,35.304054,2.021484375
,35.3251035,2.0849609375
,35.3301839,2.1435546875
,35.3666451,2.1630859375
,35.3717596,2.1875
,35.410263,2.1826171875
,35.440955,2.177734375
,35.4413615,2.12890625
,35.4505854,2.1044921875
,35.4860868,2.060546875
,35.4900625,2.03125
,35.5285031,1.9775390625
,35.5332965,1.953125
,35.5779974,1.904296875
,35.5782448,1.875
,35.5928083,1.826171875
,35.6284607,1.7822265625
,35.6290185,1.7236328125
,35.6731798,1.7333984375
,35.6734736,1.7138671875
,35.691766,1.689453125
,35.735072,1.6552734375
,35.7353535,1.6162109375
,35.7535654,1.5869140625
,35.7883349,1.5576171875
,35.808745,1.533203125
,35.8091085,1.4990234375
,35.845391,1.494140625
,35.8654092,1.4697265625
,35.8711727,1.4501953125
,35.9082757,1.4208984375
,35.9134563,1.4013671875
,35.9504385,1.3671875
,35.9555329,1.3427734375
,35.9983947,1.3330078125
,35.9986346,1.3330078125
,36.0104997,1.416015625
,36.0474579,1.5234375
,36.0527905,1.6748046875
,36.0878183,1.796875
,36.0931269,1.9091796875
,36.138745,1.9873046875
,36.1389855,2.0654296875
,36.1505309,2.1142578125
,36.185929,2.1826171875
,36.1910457,2.2216796875
,36.226627,2.24609375
,36.2481757,2.2265625
,36.2533639,2.20703125
,36.2947991,2.1533203125
,36.2950508,2.1240234375
,36.3425105,2.0751953125
,36.342751,2.021484375
,36.3524811,1.9970703125
,36.3896397,1.9580078125
,36.389885,1.923828125
,36.4249998,1.8798828125
,36.4456372,1.8408203125
,36.4532978,1.796875
,36.4998567,1.7529296875
,36.5001144,1.7041015625
,36.5148729,1.6650390625
,36.5310146,1.6162109375
,36.5781755,1.6015625
,36.578415,1.5673828125
,36.6093538,1.5478515625
,36.614219,1.5185546875
,36.6548462,1.474609375
,36.6554106,1.4501953125
,36.6743477,1.42578125
,36.7084201,1.4111328125
,36.7289788,1.3818359375
,36.7317427,1.3720703125
,36.7688374,1.357421875
,36.7714789,1.337890625
,36.808043,1.318359375
,36.8287704,1.318359375
,36.8335322,1.34765625
,36.8681025,1.42578125
,36.8877165,1.54296875
,36.8901333,1.689453125
,36.9350945,1.806640625
,36.9353326,1.93359375
,36.953775,2.0263671875
,36.9984321,2.0849609375
,36.9986941,2.1435546875
,37.0149895,2.16796875
,37.0603385,2.1875
,37.0606519,2.1875
,37.0722074,2.1923828125
,37.1117563,2.16796875
,37.1120081,2.1240234375
,37.1562015,2.0703125
,37.1566041,2.0166015625
,37.1860107,1.9677734375
,37.1946285,1.93359375
,37.2151677,1.8896484375
,37.236553,1.796875
,37.256188,1.7333984375
,37.2736903,1.6552734375
,37.3086975,1.6748046875
,37.313783,1.6650390625
,37.3327462,1.650390625
,37.3686671,1.6162109375
,37.3907101,1.5966796875
,37.3957114,1.552734375
,37.4335974,1.5234375
,37.4338345,1.484375
,37.4690159,1.4794921875
,37.4741668,1.455078125
,37.5096546,1.435546875
,37.5148773,1.4013671875
,37.5616804,1.376953125
,37.5619178,1.3427734375
,37.5756915,1.3330078125
,37.6107222,1.3134765625
,37.6125946,1.279296875
,37.6331239,1.26953125
,37.6686231,1.2646484375
,37.6889855,1.298828125
,37.69411,1.3720703125
,37.7290607,1.50390625
,37.7489707,1.640625
,37.75664,1.77734375
,37.7728269,1.8798828125
,37.8114684,1.9873046875
,37.8403562,2.060546875
,37.8406218,2.1240234375
,37.8523986,2.16796875
,37.8882379,2.1875
,37.9093105,2.2021484375
,37.91692,2.1728515625
,37.9657402,2.1435546875
,37.9660563,2.08984375
,37.9728141,2.0654296875
,38.0087677,2.0166015625
,38.013618,1.982421875
,38.0622412,1.923828125
,38.0624773,1.89453125
,38.0944859,1.845703125
,38.0947857,1.81640625
,38.1168905,1.7724609375
,38.1365554,1.6748046875
,38.1533772,1.5966796875
,38.189487,1.611328125
,38.1949136,1.5966796875
,38.234306,1.5966796875
,38.2346225,1.5771484375
,38.2711439,1.54296875
,38.2761857,1.5234375
,38.3110021,1.484375
,38.3182611,1.455078125
,38.3344948,1.4208984375
,38.3689091,1.4208984375
,38.3737129,1.40625
,38.4110818,1.38671875
,38.4154796,1.3525390625
,38.4504157,1.328125
,38.4701767,1.298828125
,38.4769915,1.2890625
,38.4932305,1.2646484375
,38.5304979,1.298828125
,38.5351748,1.38671875
,38.5734706,1.4794921875
,38.5737123,1.62109375
,38.6202996,1.7333984375
,38.6205366,1.8505859375
,38.6517259,1.93359375
,38.6565067,2.0068359375
,38.6738058,2.041015625
,38.694095,2.1044921875
,38.7429841,2.1240234375
,38.743221,2.1533203125
,38.7620941,2.138671875
,38.7760366,2.1142578125
,38.8200287,2.0654296875
,38.8202742,2.0166015625
,38.8330375,1.962890625
,38.8683598,1.9482421875
,38.8732783,1.923828125
,38.9152605,1.8798828125
,38.9156693,1.845703125
,38.9458599,1.796875
,38.9571954,1.7626953125
,39.0065158,1.7138671875
,39.0067919,1.6796875
,39.0181028,1.6357421875
,39.0532266,1.591796875
,39.0535583,1.5478515625
,39.0903478,1.5283203125
,39.0954468,1.494140625
,39.1316347,1.474609375
,39.1368696,1.435546875
,39.178191,1.4111328125
,39.1785829,1.3916015625
,39.2259182,1.3525390625
,39.2261538,1.3232421875
,39.2356361,1.2939453125
,39.2712281,1.2939453125
,39.2744531,1.2744140625
,39.3118807,1.259765625
,39.3170144,1.2255859375
,39.3655464,1.2158203125
,39.3659573,1.220703125
,39.3766314,1.2890625
,39.4114043,1.376953125
,39.4147664,1.5283203125
,39.451293,1.66015625
,39.4566479,1.796875
,39.4779345,1.89453125
,39.5137358,1.9873046875
,39.51638,2.05078125
,39.5546242,2.0849609375
,39.5605342,2.119140625
,39.5740946,2.1240234375
,39.6162155,2.12890625
,39.6165924,2.109375
,39.647189,2.080078125
,39.6565044,2.0361328125
,39.6787298,1.9921875
,39.6976854,1.9384765625
,39.73332,1.8896484375
,39.7335658,1.8505859375
,39.77011,1.845703125
,39.7904447,1.8212890625
,39.7954791,1.7919921875
,39.8322083,1.7626953125
,39.8368864,1.7236328125
,39.8796698,1.6845703125
,39.8800556,1.640625
,39.8992581,1.6064453125
,39.9424181,1.552734375
,39.9427322,1.5185546875
,39.9561159,1.4697265625
,40.0036134,1.455078125
,40.004003,1.42578125
,40.0181114,1.4111328125
,40.0526776,1.376953125
,40.0578107,1.357421875
,40.0950286,1.318359375
,40.1006343,1.2890625
,40.1163012,1.2451171875
,40.1588551,1.2548828125
,40.1591889,1.2451171875
,40.1777813,1.23046875
,40.196583,1.2255859375
,40.2338,1.259765625
,40.2368264,1.34765625
,40.2832544,1.46484375
,40.2835683,1.6015625
,40.3129995,1.7138671875
,40.3164482,1.8359375
,40.3519806,1.9140625
,40.3563456,1.9873046875
,40.3920135,2.0361328125
,40.3965963,2.0751953125
,40.4317014,2.08984375
,40.4521642,2.08984375
,40.4588562,2.0751953125
,40.4763497,2.03125
,40.5151096,2.001953125
,40.5153536,1.962890625
,40.5513536,1.93359375
,40.5718552,1.8896484375
,40.5776266,1.8505859375
,40.6263234,1.796875
,40.6267318,1.7578125
,40.6553149,1.708984375
,40.6597006,1.6259765625
,40.6765521,1.5380859375
,40.7203099,1.5576171875
,40.7209858,1.533203125
,40.7371304,1.5185546875
,40.7722394,1.4794921875
,40.7927326,1.4794921875
,40.799786,1.4599609375
,40.8433831,1.42578125
,40.8436279,1.396484375
,40.8575558,1.3623046875
,40.9071782,1.34765625
,40.9076289,1.3330078125
,40.9370302,1.318359375
,40.9372741,1.2939453125
,40.9737321,1.2744140625
,40.9792717,1.240234375
,41.0165284,1.2109375
,41.0167697,1.19140625
,41.035437,1.2255859375
,41.073489,1.279296875
,41.0778891,1.38671875
,41.1249411,1.513671875
,41.1251832,1.6259765625
,41.1460533,1.73828125
,41.1602305,1.826171875
,41.1970251,1.9091796875
,41.197419,1.9580078125
,41.2347233,2.0166015625
,41.23511,2.0458984375
,41.2819198,2.060546875
,41.282322,2.05078125
,41.3118931,2.0361328125
,41.3206094,1.9970703125
,41.3384264,1.953125
,41.3574787,1.904296875
,41.4045775,1.875
,41.4048321,1.845703125
,41.4178016,1.81640625
,41.453496,1.787109375
,41.4742056,1.7431640625
,41.4795115,1.708984375
,41.5298727,1.66015625
,41.5301247,1.62109375
,41.5401475,1.5771484375
,41.5750781,1.4892578125
,41.5948609,1.474609375
,41.5996244,1.4697265625
,41.618158,1.4453125
,41.6394053,1.42578125
,41.6743296,1.4013671875
,41.6799103,1.38671875
,41.7142814,1.357421875
,41.7349622,1.3330078125
,41.7402655,1.3134765625
,41.7586351,1.279296875
,41.7935873,1.2744140625
,41.7980955,1.26953125
,41.8333515,1.2841796875
,41.8537547,1.2646484375
,41.8609339,1.279296875
,41.9030062,1.3134765625
,41.9033935,1.40625
,41.9168499,1.50390625
,41.9524105,1.6552734375
,41.9585001,1.7626953125
,41.9957153,1.875
,41.9976388,1.93359375
,42.0424119,1.9970703125
,42.0428191,2.021484375
,42.0625469,2.0654296875
,42.08143,2.0751953125
,42.0988238,2.060546875
,42.1332077,2.05078125
,42.1384394,2.021484375
,42.1735196,1.982421875
,42.1784786,1.9384765625
,42.2132272,1.904296875
,42.2340869,1.865234375
,42.2394902,1.826171875
,42.2579128,1.7822265625
,42.3059369,1.7529296875
,42.3061756,1.728515625
,42.3203706,1.7041015625
,42.3402324,1.669921875
,42.3741753,1.6357421875
,42.3792512,1.611328125
,42.4281317,1.5576171875
,42.4283689,1.5234375
,42.4497577,1.484375
,42.4592792,1.46484375
,42.4932271,1.4208984375
,42.4981063,1.4111328125
,42.5367118,1.376953125
,42.5372878,1.3671875
,42.5854437,1.3232421875
,42.5858305,1.3134765625
,42.6049326,1.26953125
,42.6233324,1.2548828125
,42.6382974,1.2158203125
,42.6784782,1.2255859375
,42.678952,1.220703125
,42.7160329,1.2890625
,42.7190428,1.38671875
,42.7557338,1.494140625
,42.761624,1.6259765625
,42.8018997,1.7236328125
,42.8021394,1.8212890625
,42.8232631,1.89453125
,42.8404402,1.9921875
,42.8810828,2.0458984375
,42.8813274,2.08984375
,42.9169943,2.099609375
,42.9210349,2.099609375
,42.9600193,2.0703125
,42.9602593,2.0458984375
,42.9791532,1.9970703125
,43.0209464,1.97265625
,43.0212006,1.943359375
,43.0395993,1.89453125
,43.0762913,1.85546875
,43.0817063,1.806640625
,43.1016451,1.7724609375
,43.1446076,1.7236328125
,43.1448547,1.6845703125
,43.1588484,1.640625
,43.1947465,1.6162109375
,43.2000449,1.58203125
,43.2356569,1.5625
,43.2560756,1.5234375
,43.2611605,1.4990234375
,43.2995278,1.4599609375
,43.2997728,1.42578125
,43.3465782,1.3818359375
,43.3468204,1.3671875
,43.3689226,1.34765625
,43.3806341,1.3134765625
,43.4248443,1.2939453125
,43.4250837,1.26953125
,43.4415807,1.2548828125
,43.4763888,1.2353515625
,43.4812915,1.2255859375
,43.5171908,1.2158203125
,43.5393808,1.2548828125
,43.5397712,1.3134765625
,43.5742031,1.435546875
,43.581789,1.5576171875
,43.600807,1.6845703125
,43.6368317,1.7724609375
,43.6573291,1.8603515625
,43.6634412,1.93359375
,43.6971011,1.962890625
,43.7023504,2.001953125
,43.7193535,2.0166015625
,43.7628753,2.041015625
,43.7633742,2.0361328125
,43.7815089,2.0068359375
,43.8171433,1.962890625
,43.8232301,1.923828125
,43.8576091,1.8896484375
,43.8629921,1.875
,43.8776693,1.8408203125
,43.9137809,1.8359375
,43.9336849,1.8115234375
,43.9418613,1.7919921875
,43.9811359,1.7431640625
,43.9815276,1.71875
,44.0009709,1.6796875
,44.0437023,1.630859375
,44.0440927,1.5966796875
,44.0732538,1.5576171875
,44.0851408,1.5380859375
,44.1003301,1.4306640625
,44.1376043,1.435546875
,44.1407682,1.42578125
,44.176483,1.4111328125
,44.1839354,1.3916015625
,44.2194099,1.3623046875
,44.222518,1.3330078125
,44.2607616,1.3232421875
,44.2610016,1.298828125
,44.3093091,1.2890625
,44.3095436,1.2890625
,44.3212506,1.2744140625
,44.3704216,1.2939453125
,44.3706649,1.34765625
,44.3826031,1.4697265625
,44.4174899,1.5625
,44.4385706,1.6748046875
,44.4407681,1.7529296875
,44.4776734,1.8505859375
,44.4826354,1.904296875
,44.5257762,1.962890625
,44.526275,1.9921875
,44.5426091,2.0166015625
,44.588268,2.0068359375
,44.5885888,2.001953125
,44.6019482,1.9580078125
,44.6494923,1.9580078125
,44.6497288,1.9287109375
,44.6646795,1.884765625
,44.6832618,1.845703125
,44.7289293,1.8115234375
,44.7293167,1.77734375
,44.7424368,1.73828125
,44.7641142,1.7041015625
,44.7805168,1.66015625
,44.8231852,1.6357421875
,44.823576,1.6162109375
,44.8685275,1.58203125
,44.8688673,1.5576171875
,44.882568,1.533203125
,44.9175128,1.50390625
,44.9377069,1.4794921875
,44.9434038,1.4697265625
,44.9640466,1.435546875
,45.0085363,1.3525390625
,45.0089887,1.337890625
,45.0215621,1.3525390625
,45.0720243,1.3427734375
,45.0722673,1.3427734375
,45.0838245,1.3232421875
,45.1340485,1.30859375
,45.1343861,1.2841796875
,45.1445181,1.298828125
,45.1623359,1.328125
,45.2120091,1.4306640625
,45.2123038,1.5380859375
,45.2223263,1.6552734375
,45.2575242,1.7431640625
,45.2648098,1.845703125
,45.3000014,1.9091796875
,45.3054428,1.9482421875
,45.3520819,1.9873046875
,45.3526419,2.01171875
,45.3623855,2.0361328125
,45.3975077,2.03125
,45.403201,2.021484375
,45.4468801,1.9873046875
,45.4471195,1.9580078125
,45.4652201,1.923828125
,45.5081493,1.884765625
,45.5084638,1.8408203125
,45.5198646,1.8310546875
,45.5554881,1.8017578125
,45.5752308,1.77734375
,45.5821502,1.7529296875
,45.6200567,1.708984375
,45.6253774,1.6748046875
,45.6451707,1.640625
,45.6948568,1.611328125
,45.6951335,1.5625
,45.7000089,1.5478515625
,45.7372502,1.5283203125
,45.7421213,1.5087890625
,45.777048,1.4794921875
,45.8069385,1.4599609375
,45.8073178,1.4306640625
,45.8248968,1.40625
,45.8598085,1.38671875
,45.865278,1.3671875
,45.882698,1.3330078125
,45.9168226,1.34765625
,45.9229219,1.3525390625
,45.958897,1.3427734375
,45.9643337,1.3720703125
,46.0094552,1.42578125
,46.009695,1.5283203125
,46.0255649,1.6259765625
,46.0453704,1.7431640625
,46.0627213,1.8310546875
,46.0978396,1.93359375
,46.1032173,2.001953125
,46.1490119,2.0654296875
,46.1493962,2.0947265625
,46.1670481,2.1337890625
,46.184647,2.12890625
,46.2193105,2.1240234375
,46.2411613,2.109375
,46.2414882,2.0556640625
,46.2891982,2.0361328125
,46.2894336,1.9921875
,46.3094527,1.9677734375
,46.325359,1.923828125
,46.360608,1.8994140625
,46.3651968,1.85546875
,46.4135633,1.8212890625
,46.4139556,1.77734375
,46.4442837,1.7724609375
,46.4446648,1.73828125
,46.47928,1.7138671875
,46.4843741,1.6748046875
,46.5192675,1.6455078125
,46.5399128,1.5966796875
,46.5450659,1.58203125
,46.5819147,1.5478515625
,46.5822113,1.513671875
,46.629925,1.494140625
,46.6302045,1.4794921875
,46.6495633,1.4599609375
,46.6645351,1.435546875
,46.7068657,1.416015625
,46.7071087,1.38671875
,46.7411702,1.3671875
,46.7477436,1.3427734375
,46.7833384,1.318359375
,46.7842689,1.318359375
,46.8184192,1.38671875
,46.8234947,1.4697265625
,46.8629391,1.5869140625
,46.8631781,1.71875
,46.8852536,1.8017578125
,46.9203148,1.8896484375
,46.9407818,1.953125
,46.9463361,2.0263671875
,46.963246,2.0556640625
,47.0038269,2.109375
,47.0042213,2.1337890625
,47.0240504,2.1435546875
,47.0607379,2.1240234375
,47.0661605,2.099609375
,47.111933,2.05078125
,47.1121801,2.0166015625
,47.1246718,1.97265625
,47.1740806,1.9580078125
,47.1742849,1.9091796875
,47.1849021,1.8896484375
,47.236692,1.8505859375
,47.2370951,1.8115234375
,47.2464024,1.7724609375
,47.282771,1.728515625
,47.2859035,1.6845703125
,47.3035782,1.6455078125
,47.3391586,1.630859375
,47.3439482,1.6015625
,47.3794626,1.5673828125
,47.4001114,1.533203125
,47.4050346,1.50390625
,47.4529696,1.4697265625
,47.4532857,1.4599609375
,47.4642134,1.4306640625
,47.4991304,1.42578125
,47.5089793,1.34765625
,47.5258189,1.26953125
,47.5607797,1.2939453125
,47.56638,1.2939453125
,47.6121061,1.3037109375
,47.6124086,1.298828125
,47.6269287,1.337890625
,47.6748685,1.4013671875
,47.6751051,1.50390625
,47.6847274,1.6015625
,47.7206774,1.73828125
,47.7240641,1.8310546875
,47.7686591,1.9189453125
,47.7690935,1.9873046875
,47.8143244,2.0361328125
,47.8152385,2.060546875
,47.8268561,2.0947265625
,47.8617706,2.099609375
,47.8823129,2.0751953125
,47.8827162,2.0703125
,47.9220602,2.041015625
,47.9536255,2.0068359375
,47.9540144,1.9775390625
,47.9673987,1.953125
,48.0164993,1.9140625
,48.0168578,1.8896484375
,48.0257169,1.8603515625
,48.0447014,1.8359375
,48.0801097,1.806640625
,48.0844472,1.787109375
,48.1244881,1.7431640625
,48.1247309,1.708984375
,48.1484953,1.6796875
,48.1862641,1.6357421875
,48.1865005,1.6015625
,48.2046386,1.5576171875
,48.2415311,1.5576171875
,48.2455942,1.5283203125
,48.2961486,1.513671875
,48.2964051,1.484375
,48.3080885,1.4599609375
,48.3424888,1.435546875
,48.3467979,1.4208984375
,48.3819008,1.3916015625
,48.389529,1.30859375
,48.4066396,1.25
,48.4415547,1.2841796875
,48.4442366,1.318359375
,48.4833457,1.40625
,48.51493,1.513671875
,48.5153601,1.6162109375
,48.5276744,1.7431640625
,48.5759923,1.8408203125
,48.5762392,1.923828125
,48.5839953,1.982421875
,48.6230388,2.0654296875
,48.6439471,2.109375
,48.6474054,2.1484375
,48.6835614,2.1533203125
,48.6863951,2.1435546875
,48.7218653,2.109375
,48.7424805,2.080078125
,48.7442275,2.0361328125
,48.7807246,2.0068359375
,48.7849937,1.9921875
,48.8275422,1.9482421875
,48.8283489,1.9189453125
,48.8574084,1.8798828125
,48.8682824,1.8505859375
,48.9037325,1.796875
,48.9086987,1.767578125
,48.9252162,1.71875
,48.9674196,1.7041015625
,48.9676916,1.669921875
,49.0149481,1.66015625
,49.0152648,1.6259765625
,49.0288707,1.6064453125
,49.0758035,1.572265625
,49.0760432,1.5478515625
,49.0848119,1.5087890625
,49.1198924,1.513671875
,49.125947,1.50390625
,49.1700345,1.4697265625
,49.1702764,1.4501953125
,49.2040856,1.42578125
,49.2093743,1.40625
,49.23006,1.376953125
,49.2790996,1.357421875
,49.2793452,1.357421875
,49.2876251,1.396484375
,49.3073673,1.4794921875
,49.3561326,1.6162109375
,49.3564684,1.73828125
,49.3671857,1.8603515625
,49.4045183,1.9384765625
,49.4097124,2.0166015625
,49.4464725,2.0947265625
,49.4512158,2.1240234375
,49.4707602,2.158203125
,49.4855088,2.1630859375
,49.5201703,2.1923828125
,49.5411331,2.16796875
,49.5466532,2.1435546875
,49.5696364,2.0947265625
,49.6044188,2.0556640625
,49.6097092,2.0068359375
,49.6286592,1.9775390625
,49.6469276,1.923828125
,49.685932,1.904296875
,49.6861764,1.875
,49.7194878,1.8505859375
,49.7401925,1.8017578125
,49.7474469,1.77734375
,49.7952761,1.728515625
,49.7957069,1.6796875
,49.8086899,1.6455078125
,49.8256806,1.6064453125
,49.8728212,1.591796875
,49.8734118,1.5673828125
,49.9018858,1.5478515625
,49.9089634,1.513671875
,49.9282195,1.4892578125
,49.9638045,1.455078125
,49.9850671,1.435546875
,49.9854655,1.4111328125
,50.0276212,1.42578125
,50.0278662,1.4208984375
,50.074252,1.4111328125
,50.0746328,1.40625
,50.0883878,1.4013671875
,50.1378817,1.4453125
,50.1382737,1.5185546875
,50.1493996,1.640625
,50.1854197,1.73828125
,50.1906171,1.85546875
,50.2067255,1.943359375
,50.2411833,2.05078125
,50.2620729,2.119140625
,50.2685004,2.1826171875
,50.3070074,2.20703125
,50.3075902,2.236328125
,50.3439235,2.236328125
,50.3643961,2.216796875
,50.3673839,2.177734375
,50.4016563,2.1630859375
,50.4064575,2.1337890625
,50.4420502,2.080078125
,50.4624699,2.041015625
,50.4699683,1.9970703125
,50.5108602,1.953125
,50.5112515,1.9091796875
,50.5456087,1.8798828125
,50.5663176,1.8310546875
,50.5668168,1.806640625
,50.6045802,1.7724609375
,50.6079955,1.7431640625
,50.6527811,1.69921875
,50.6531739,1.6748046875
,50.6713922,1.6259765625
,50.7140307,1.5869140625
,50.7142662,1.5625
,50.7276517,1.5234375
,50.7627138,1.5087890625
,50.7683675,1.494140625
,50.8032649,1.474609375
,50.8079213,1.4453125
,50.8559441,1.4208984375
,50.8562385,1.396484375
,50.885402,1.3671875
,50.8859863,1.337890625
,50.9338077,1.34765625
,50.9341968,1.279296875
,50.9637306,1.3818359375
,50.9685892,1.4990234375
,51.0120436,1.630859375
,51.0124298,1.7431640625
,51.041883,1.8798828125
,51.0506327,1.9775390625
,51.0866413,2.0361328125
,51.0924756,2.1044921875
,51.1092629,2.1484375
,51.1438146,2.1923828125
,51.1486133,2.2119140625
,51.1961115,2.216796875
,51.1965018,2.1875
,51.2267657,2.1484375
,51.2316022,2.1044921875
,51.274079,2.0556640625
,51.2743988,2.001953125
,51.2883801,1.9921875
,51.3231244,1.953125
,51.3435102,1.9189453125
,51.3503717,1.89453125
,51.3992977,1.8359375
,51.3996883,1.796875
,51.4114886,1.748046875
,51.447141,1.7138671875
,51.4474145,1.66015625
,51.4830373,1.6455078125
,51.503376,1.611328125
,51.5087251,1.5966796875
,51.5434755,1.5576171875
,51.5655066,1.54296875
,51.5703032,1.5087890625
,51.6179585,1.484375
,51.618383,1.455078125
,51.6266754,1.4501953125
,51.6624156,1.4306640625
,51.6832397,1.42578125
,51.6897458,1.4013671875
,51.7280119,1.3818359375
,51.7284045,1.3623046875
,51.7772125,1.34765625
,51.7776435,1.3671875
,51.8078758,1.4306640625
,51.810556,1.494140625
,51.8286599,1.5625
,51.8621842,1.728515625
,51.8841605,1.85546875
,51.8911196,1.9580078125
,51.9103701,2.03125
,51.9480514,2.0947265625
,51.9689148,2.12890625
,51.9736074,2.1484375
,52.0117894,2.158203125
,52.0121301,2.12890625
,52.0296675,2.119140625
,52.0648953,2.0849609375
,52.0713213,2.0703125
,52.0923581,2.041015625
,52.1361886,2.01171875
,52.1365067,1.97265625
,52.1524933,1.943359375
,52.1692305,1.89453125
,52.2051767,1.884765625
,52.2080615,1.8505859375
,52.2441891,1.81640625
,52.264401,1.77734375
,52.2715918,1.7431640625
,52.3210612,1.689453125
,52.3212995,1.6748046875
,52.3316685,1.640625
,52.3665355,1.591796875
,52.3671506,1.58203125
,52.4145516,1.5625
,52.4147922,1.5478515625
,52.43676,1.5234375
,52.4531384,1.50390625
,52.4917244,1.4697265625
,52.4919692,1.4501953125
,52.5088894,1.416015625
,52.5575477,1.40625
,52.5579343,1.38671875
,52.5715119,1.4013671875
,52.6061212,1.4404296875
,52.6108212,1.533203125
,52.6461345,1.66015625
,52.6665231,1.7626953125
,52.6715864,1.875
,52.7088524,1.9482421875
,52.7135964,2.0263671875
,52.7305999,2.0703125
,52.776241,2.12890625
,52.7766328,2.158203125
,52.7928405,2.1923828125
,52.8380699,2.1826171875
,52.838399,2.158203125
,52.8543645,2.109375
,52.9012091,2.0654296875
,52.9017729,2.021484375
,52.9108914,2.0068359375
,52.9474922,1.9677734375
,52.9499854,1.953125
,52.9858529,1.9189453125
,53.0060839,1.875
,53.013343,1.8408203125
,53.0578935,1.7919921875
,53.0581342,1.7529296875
,53.0709825,1.7138671875
,53.1051722,1.7041015625
,53.1265459,1.6796875
,53.1316925,1.6552734375
,53.1669457,1.6162109375
,53.1717496,1.591796875
,53.2078278,1.5625
,53.21384,1.54296875
,53.2303374,1.513671875
,53.2756296,1.50390625
,53.2758718,1.4990234375
,53.2920995,1.4794921875
,53.3374656,1.4599609375
,53.3378638,1.4306640625
,53.3541909,1.4111328125
,53.399281,1.396484375
,53.3996734,1.435546875
,53.4107983,1.4990234375
,53.4615552,1.630859375
,53.4617942,1.7431640625
,53.4726774,1.8701171875
,53.5237456,1.9580078125
,53.523984,2.05078125
,53.5331528,2.109375
,53.5852441,2.158203125
,53.5856022,2.1826171875
,53.5946076,2.216796875
,53.6166727,2.2216796875
,53.6320891,2.1923828125
,53.6532646,2.177734375
,53.6918768,2.1435546875
,53.6921385,2.1142578125
,53.7264153,2.0654296875
,53.7474861,2.03125
,53.755728,1.982421875
,53.8011545,1.9384765625
,53.8015454,1.89453125
,53.812988,1.8701171875
,53.8473003,1.826171875
,53.85283,1.796875
,53.8728883,1.748046875
,53.9092957,1.708984375
,53.9140827,1.6845703125
,53.9500334,1.630859375
,53.9544748,1.5869140625
,53.9711457,1.552734375
,54.0053959,1.5478515625
,54.0264241,1.5185546875
,54.0314874,1.5087890625
,54.0681496,1.4697265625
,54.0892336,1.455078125
,54.0946898,1.4306640625
,54.1372733,1.4306640625
,54.1375594,1.40625
,54.1525789,1.40625
,54.2006073,1.38671875
,54.2008431,1.4013671875
,54.212421,1.4306640625
,54.2487452,1.533203125
,54.2770451,1.6455078125
,54.2774389,1.7626953125
,54.2958908,1.8798828125
,54.3115954,1.9677734375
,54.33544,2.0654296875
,54.3524007,2.0556640625
,54.4016104,2.1435546875
,54.4019561,2.1923828125
,54.4306303,2.2314453125
,54.4341312,2.2265625
,54.4788815,2.2119140625
,54.479243,2.16796875
,54.4951292,2.12890625
,54.5122395,2.0703125
,54.5550496,2.041015625
,54.5552974,2.0166015625
,54.5731137,1.9677734375
,54.6181009,1.93359375
,54.6183411,1.8896484375
,54.6385339,1.85546875
,54.6546635,1.806640625
,54.6968368,1.7626953125
,54.6970727,1.7138671875
,54.7177307,1.689453125
,54.7328127,1.650390625
,54.7696371,1.630859375
,54.7751988,1.5869140625
,54.8115087,1.5576171875
,54.8163054,1.5185546875
,54.8354612,1.484375
,54.8516832,1.4453125
,54.8994353,1.4453125
,54.8998253,1.4404296875
,54.9185924,1.4111328125
,54.9349611,1.396484375
,54.9764881,1.357421875
,54.9767265,1.337890625
,54.9947934,1.30859375
,55.0310606,1.298828125
,55.0313272,1.3037109375
,55.0670389,1.376953125
,55.0872377,1.4794921875
,55.0927472,1.6259765625
,55.1324624,1.7431640625
,55.1328873,1.8798828125
,55.1690581,1.9677734375
,55.1893924,2.05078125
,55.1946698,2.119140625
,55.2163299,2.1435546875
,55.2507874,2.119140625
,55.2728228,2.138671875
,55.2732084,2.1630859375
,55.3174893,2.1484375
,55.3178007,2.119140625
,55.3337313,2.0751953125
,55.3711445,2.03125
,55.3755563,1.982421875
,55.412658,1.943359375
,55.412963,1.89453125
,55.458054,1.8701171875
,55.4584823,1.8359375
,55.4740076,1.796875
,55.5094862,1.7578125
,55.5311776,1.728515625
,55.5371676,1.6943359375
,55.5813603,1.640625
,55.5817585,1.6064453125
,55.5935425,1.5673828125
,55.631358,1.54296875
,55.6316192,1.513671875
,55.6653205,1.494140625
,55.6863361,1.46484375
,55.6970255,1.4404296875
,55.7158136,1.40625
,55.7688619,1.3818359375
,55.7692525,1.34765625
,55.7734338,1.34765625
,55.8141228,1.328125
,55.8143723,1.3134765625
,55.8516096,1.318359375
,55.8563363,1.328125
,55.9070223,1.4013671875
,55.9072833,1.50390625
,55.9148775,1.6455078125
,55.9318265,1.748046875
,55.9854725,1.8798828125
,55.9857867,1.962890625
,55.9943058,2.0458984375
,56.0294205,2.0849609375
,56.0347082,2.12890625
,56.0703609,2.1337890625
,56.0771791,2.1435546875
,56.1254383,2.1240234375
,56.125685,2.08984375
,56.1327833,2.03125
,56.1544185,2.0263671875
,56.2053227,2.001953125
,56.2057124,1.97265625
,56.2349236,1.9384765625
,56.2351625,1.8994140625
,56.2713087,1.8603515625
,56.2775638,1.8212890625
,56.2980371,1.7822265625
,56.3146088,1.73828125
,56.3487359,1.71875
,56.3695441,1.6845703125
,56.3747777,1.650390625
,56.4216759,1.611328125
,56.4219567,1.5869140625
,56.4429589,1.54296875
,56.4579682,1.5087890625
,56.4998076,1.4892578125
,56.5001396,1.4501953125
,56.5147411,1.4453125
,56.5621817,1.416015625
,56.5624252,1.40625
,56.5829834,1.3671875
,56.5971712,1.3525390625
,56.6416112,1.318359375
,56.6419295,1.30859375
,56.6527502,1.3037109375
,56.6901334,1.3916015625
,56.6946899,1.494140625
,56.7332599,1.6455078125
,56.7540176,1.7626953125
,56.7563706,1.8896484375
,56.7921442,1.97265625
,56.7972629,2.0654296875
,56.8343748,2.12890625
,56.8346165,2.158203125
,56.8711905,2.20703125
,56.8758531,2.2216796875
,56.9212158,2.216796875
,56.92161,2.1826171875
,56.9367658,2.1435546875
,56.9743505,2.0849609375
,56.9772067,2.0361328125
,57.0128488,1.982421875
,57.0180827,1.9384765625
,57.0342317,1.8896484375
,57.0680377,1.8701171875
,57.088695,1.8359375
,57.0958748,1.796875
,57.1312646,1.7626953125
,57.1363537,1.708984375
,57.1698576,1.669921875
,57.1916323,1.630859375
,57.1985373,1.6015625
,57.2152724,1.552734375
,57.2609242,1.5380859375
,57.2613126,1.5087890625
,57.2767936,1.494140625
,57.3226607,1.4599609375
,57.3231132,1.4404296875
,57.3393459,1.40625
,57.3838162,1.38671875
,57.3841802,1.357421875
,57.3952503,1.3525390625
,57.4328633,1.328125
,57.4376358,1.318359375
,57.478193,1.3037109375
,57.4785863,1.2890625
,57.5249633,1.3232421875
,57.5254697,1.3916015625
,57.5395627,1.513671875
,57.5559269,1.6357421875
,57.5911549,1.7919921875
,57.595548,1.904296875
,57.6300822,2.0068359375
,57.6502465,2.0751953125
,57.6553143,2.1337890625
,57.6930026,2.16796875
,57.697969,2.20703125
,57.7144343,2.2021484375
,57.7505004,2.2119140625
,57.759986,2.119140625
,57.7769828,2.0361328125
,57.7973009,2.021484375
,57.8340764,1.9970703125
,57.8387414,1.97265625
,57.8737476,1.93359375
,57.8772503,1.8994140625
,57.9136383,1.8505859375
,57.9187281,1.8115234375
,57.9358043,1.7578125
,57.9742391,1.73828125
,58.0051859,1.69921875
,58.0055013,1.66015625
,58.0174375,1.611328125
,58.0530014,1.5771484375
,58.0832657,1.5380859375
,58.0835048,1.513671875
,58.0985031,1.484375
,58.1164745,1.4453125
,58.1370647,1.42578125
,58.1770006,1.40625
,58.1772428,1.38671875
,58.2231349,1.376953125
,58.2233812,1.3623046875
,58.2391219,1.337890625
,58.2585153,1.318359375
,58.275882,1.2939453125
,58.3179936,1.2841796875
,58.3182397,1.2744140625
,58.3547902,1.3037109375
,58.3591115,1.3623046875
,58.3781069,1.474609375
,58.4137541,1.62109375
,58.4185991,1.728515625
,58.4594867,1.8505859375
,58.4597298,1.93359375
,58.4773253,2.0361328125
,58.5113329,2.0947265625
,58.5161245,2.1484375
,58.5537038,2.1630859375
,58.573882,2.1875
,58.5790038,2.16796875
,58.6293592,2.1435546875
,58.6295995,2.08984375
,58.6404325,1.9873046875
,58.6563145,1.89453125
,58.6913911,1.904296875
,58.7115445,1.884765625
,58.7193101,1.875
,58.7691924,1.845703125
,58.7694484,1.8115234375
,58.7790157,1.77734375
,58.831142,1.7333984375
,58.8313871,1.689453125
,58.8374414,1.6455078125
,58.8773467,1.6259765625
,58.877629,1.591796875
,58.9141083,1.5625
,58.9185636,1.5283203125
,58.957243,1.4892578125
,58.957627,1.455078125
,59.0031732,1.435546875
,59.0036561,1.4013671875
,59.0176769,1.38671875
,59.0651827,1.38671875
,59.0655689,1.357421875
,59.0792142,1.34765625
,59.1180689,1.3134765625
,59.1184546,1.298828125
,59.1555547,1.2646484375
,59.1758162,1.259765625
,59.1760542,1.2646484375
,59.2181184,1.3525390625
,59.2183638,1.46484375
,59.2398765,1.62109375
,59.2755323,1.73828125
,59.2803923,1.85546875
,59.3276846,1.9384765625
,59.3279251,2.01171875
,59.3368767,2.0458984375
,59.3743153,2.1044921875
,59.3800322,2.1435546875
,59.3978252,2.138671875
,59.4334274,2.12890625
,59.4389401,2.0947265625
,59.4758068,2.05078125
,59.4802422,2.001953125
,59.5170111,1.9677734375
,59.5213251,1.9189453125
,59.561481,1.875
,59.5617286,1.826171875
,59.5783698,1.806640625
,59.6145044,1.767578125
,59.6196703,1.7333984375
,59.6395913,1.689453125
,59.6753181,1.6552734375
,59.6952514,1.630859375
,59.7010944,1.5869140625
,59.75032,1.552734375
,59.7507101,1.5087890625
,59.7577893,1.50390625
,59.7920581,1.474609375
,59.8132635,1.4599609375
,59.8181165,1.4306640625
,59.8549421,1.4111328125
,59.8892795,1.3818359375
,59.8895297,1.3623046875
,59.8971781,1.3330078125
,59.9310732,1.318359375
,59.952519,1.3037109375
,59.9606597,1.2939453125
,59.9981276,1.2744140625
,59.9984478,1.2890625
,60.0457938,1.3525390625
,60.0463849,1.4453125
,60.0766847,1.5869140625
,60.077028,1.708984375
,60.1228475,1.845703125
,60.1231056,1.93359375
,60.1373993,2.0166015625
,60.172699,2.0703125
,60.1942689,2.119140625
,60.2011064,2.12890625
,60.2465575,2.138671875
,60.2469495,2.1240234375
,60.2587288,2.1533203125
,60.2939917,2.12890625
,60.300202,2.099609375
,60.3192146,2.060546875
,60.340281,2.0068359375
,60.3866382,1.97265625
,60.3870692,1.9287109375
,60.4028034,1.8994140625
,60.4217433,1.8505859375
,60.4646472,1.8115234375
,60.46489,1.7578125
,60.480244,1.73828125
,60.5000123,1.69921875
,60.5399833,1.6845703125
,60.5403037,1.640625
,60.5749216,1.6064453125
,60.5954139,1.5625
,60.6029098,1.533203125
,60.6192671,1.4892578125
,60.664764,1.4892578125
,60.6650042,1.474609375
,60.6840869,1.4453125
,60.7010434,1.4208984375
,60.7372989,1.3916015625
,60.7419507,1.3623046875
,60.7621267,1.337890625
,60.7988686,1.3232421875
,60.7992746,1.3037109375
,60.8182565,1.3037109375
,60.8540811,1.328125
,60.8811488,1.40625
,60.8813873,1.5185546875
,60.9176129,1.66015625
,60.9209124,1.77734375
,60.9607981,1.884765625
,60.9610484,1.982421875
,60.9953428,2.03125
,60.9983356,2.099609375
,61.0341325,2.138671875
,61.0532464,2.1826171875
,61.0601603,2.1826171875
,61.0942333,2.1630859375
,61.1148365,2.119140625
,61.1230845,2.0849609375
,61.1403922,2.021484375
,61.1805306,2.0068359375
,61.1809067,1.884765625
,61.2192996,1.8798828125
,61.2196887,1.845703125
,61.2733436,1.8212890625
,61.2736452,1.7724609375
,61.2833633,1.7626953125
,61.3204328,1.728515625
,61.3208265,1.689453125
,61.3655499,1.6455078125
,61.3657922,1.611328125
,61.3861501,1.5869140625
,61.4004511,1.552734375
,61.4366136,1.5234375
,61.4424372,1.4892578125
,61.4769588,1.4599609375
,61.4813019,1.4306640625
,61.5207036,1.4013671875
,61.5209398,1.3623046875
,61.5416873,1.357421875
,61.5630417,1.3427734375
,61.5977047,1.328125
,61.6024564,1.3232421875
,61.6409497,1.2890625
,61.6412013,1.2646484375
,61.6779505,1.25
,61.6841278,1.2939453125
,61.7012112,1.3623046875
,61.7359532,1.4990234375
,61.7408294,1.62109375
,61.776963,1.7578125
,61.7823646,1.85546875
,61.8295275,1.953125
,61.8297797,2.001953125
,61.8420954,2.05078125
,61.8608107,2.0751953125
,61.9085601,2.109375
,61.9088772,2.1044921875
,61.9228915,2.1044921875
,61.9411449,2.0654296875
,61.9770574,2.01171875
,61.9821112,1.962890625
,62.016380600000005,1.9091796875
,62.0360807,1.865234375
,62.044854799999996,1.8212890625
,62.0642646,1.73828125
,62.08078449999999,1.7138671875
,62.1152524,1.7041015625
,62.1357172,1.6845703125
,62.14091380000001,1.66015625
,62.1807551,1.62109375
,62.2113423,1.591796875
,62.2116585,1.54296875
,62.225183400000006,1.50390625
,62.274460000000005,1.4794921875
,62.274852100000004,1.4306640625
,62.280196000000004,1.4208984375
,62.316363499999994,1.4111328125
,62.32168420000001,1.4111328125
,62.3602408,1.38671875
,62.364764699999995,1.3623046875
,62.3842003,1.3330078125
,62.4193731,1.3134765625
,62.419651200000004,1.279296875
,62.452192100000005,1.279296875
,62.472305399999996,1.2646484375
,62.48185719999999,1.25
,62.50213170000001,1.25
,62.5358911,1.3037109375
,62.558253300000004,1.3916015625
,62.565125699999996,1.54296875
,62.5855265,1.6748046875
,62.602234499999994,1.767578125
,62.6375766,1.875
,62.64281149999999,1.943359375
,62.6619762,1.9970703125
,62.707339000000005,2.0263671875
,62.7075768,2.0556640625
,62.7286022,2.05078125
,62.7456322,2.0263671875
,62.7614961,1.9873046875
,62.800542300000004,1.9580078125
,62.8008045,1.923828125
,62.8479976,1.904296875
,62.848563999999996,1.865234375
,62.8643898,1.8408203125
,62.909688599999996,1.806640625
,62.909946000000005,1.7626953125
,62.923899000000006,1.7236328125
,62.9731283,1.6748046875
,62.9734385,1.6455078125
,63.00249719999999,1.5966796875
,63.002746099999996,1.5771484375
,63.0489898,1.5380859375
,63.0492519,1.5185546875
,63.06270859999999,1.484375
,63.098288100000005,1.4697265625
,63.118582599999996,1.4306640625
,63.124003900000005,1.40625
,63.1428655,1.376953125
,63.1616183,1.3720703125
,63.20600159999999,1.34765625
,63.206390999999996,1.34765625
,63.235875500000006,1.328125
,63.2438229,1.298828125
,63.278059400000004,1.2744140625
,63.298879400000004,1.25
,63.305808999999996,1.2353515625
,63.3213703,1.2646484375
,63.3576752,1.376953125
,63.389152100000004,1.4990234375
,63.389390000000006,1.630859375
,63.404454400000006,1.7431640625
,63.4542979,1.8408203125
,63.4547331,1.9140625
,63.46613790000001,1.9775390625
,63.481380900000005,2.0166015625
,63.514364400000005,2.0556640625
,63.5360919,2.0947265625
,63.542845400000004,2.080078125
,63.5644709,2.0654296875
,63.583134799999996,2.0263671875
,63.6238144,1.9970703125
,63.6240509,1.9482421875
,63.6719061,1.9140625
,63.6723281,1.8701171875
,63.6833551,1.8603515625
,63.7023372,1.8212890625
,63.7358619,1.796875
,63.757612699999996,1.7529296875
,63.7647429,1.728515625
,63.8094696,1.6845703125
,63.8098712,1.6455078125
,63.826095499999994,1.5966796875
,63.8735217,1.58203125
,63.8739116,1.5576171875
,63.8827548,1.5185546875
,63.9185267,1.50390625
,63.9234596,1.474609375
,63.9447476,1.4501953125
,63.9834324,1.42578125
,63.9838214,1.4111328125
,64.0280321,1.376953125
,64.028395,1.3525390625
,64.0481627,1.3232421875
,64.0640142,1.3134765625
,64.1052666,1.2939453125
,64.1057268,1.298828125
,64.1226859,1.298828125
,64.1569338,1.34765625
,64.1776897,1.4501953125
,64.187578,1.5625
,64.2311715,1.6845703125
,64.2315673,1.787109375
,64.2426727,1.904296875
,64.2902968,1.9775390625
,64.2905341,2.0458984375
,64.3109873,2.0849609375
,64.3252122,2.119140625
,64.3610194,2.12890625
,64.3815422,2.1484375
,64.3820675,2.1240234375
,64.4330354,2.1142578125
,64.4333545,2.080078125
,64.444361,2.0361328125
,64.4943191,1.9921875
,64.4945689,1.962890625
,64.5055255,1.923828125
,64.5559145,1.875
,64.5564419,1.8359375
,64.5678658,1.7919921875
,64.5885437,1.69921875
,64.6038634,1.62109375
,64.6498923,1.6455078125
,64.6502852,1.6357421875
,64.6650921,1.62109375
,64.7114312,1.5869140625
,64.7116803,1.552734375
,64.7272306,1.513671875
,64.7613037,1.494140625
,64.7638512,1.455078125
,64.7976954,1.4453125
,64.8179574,1.435546875
,64.8258514,1.40625
,64.8604546,1.38671875
,64.8659134,1.3623046875
,64.9041306,1.3525390625
,64.9043694,1.3232421875
,64.9470241,1.30859375
,64.947291,1.298828125
,64.9676727,1.3671875
,64.9848064,1.4501953125
,65.0189723,1.5869140625
,65.0389859,1.69921875
,65.0454067,1.81640625
,65.0814321,1.8994140625
,65.0870965,1.982421875
,65.1034123,2.021484375
,65.1402357,2.0947265625
,65.1459219,2.138671875
,65.1809524,2.1435546875
,65.1856389,2.1435546875
,65.2205642,2.119140625
,65.2406819,2.080078125
,65.2464543,2.03125
,65.2823478,1.9921875
,65.2827547,1.943359375
,65.3204043,1.9140625
,65.3236066,1.875
,65.3602374,1.8359375
,65.3829891,1.8017578125
,65.3850201,1.7822265625
,65.4308667,1.7333984375
,65.431176,1.689453125
,65.4599256,1.6650390625
,65.4682554,1.611328125
,65.5072999,1.5673828125
,65.5075482,1.5234375
,65.5421376,1.513671875
,65.5442606,1.474609375
,65.5818929,1.455078125
,65.5869211,1.42578125
,65.6338783,1.396484375
,65.6341475,1.3623046875
,65.6469358,1.3427734375
,65.664513,1.3037109375
,65.7014236,1.3037109375
,65.7066042,1.2841796875
,65.7422577,1.26953125
,65.7477165,1.240234375
,65.7898397,1.2548828125
,65.7902333,1.298828125
,65.8088265,1.3720703125
,65.8517532,1.4892578125
,65.8522358,1.611328125
,65.8665106,1.7431640625
,65.8863027,1.8505859375
,65.9288892,1.943359375
,65.9291377,2.001953125
,65.9496639,2.0556640625
,65.9671312,2.08984375
,66.0021058,2.0947265625
,66.0217975,2.080078125
,66.025021,2.080078125
,66.0635983,2.05078125
,66.0640008,2.0166015625
,66.100839,1.9873046875
,66.1071504,1.9287109375
,66.1458797,1.8896484375
,66.1463281,1.845703125
,66.1810965,1.8212890625
,66.2023781,1.767578125
,66.2055206,1.7431640625
,66.2430984,1.7041015625
,66.2473734,1.6748046875
,66.2862496,1.6357421875
,66.2866408,1.6015625
,66.3328271,1.552734375
,66.3332149,1.5234375
,66.3625147,1.484375
,66.36693,1.455078125
,66.4015927,1.4111328125
,66.4061389,1.4404296875
,66.4392309,1.435546875
,66.4602784,1.416015625
,66.4671533,1.40625
,66.517307,1.376953125
,66.517697,1.3525390625
,66.528326,1.3232421875
,66.5767577,1.30859375
,66.5770047,1.2841796875
,66.5864131,1.298828125
,66.6063862,1.34765625
,66.6433318,1.4453125
,66.6464196,1.5625
,66.6677364,1.7041015625
,66.6893199,1.806640625
,66.731986,1.89453125
,66.7323794,1.9775390625
,66.7450921,2.0166015625
,66.7814601,2.0654296875
,66.8116929,2.08984375
,66.8120906,2.109375
,66.8283869,2.08984375
,66.8730586,2.060546875
,66.8734435,2.01171875
,66.8897934,1.97265625
,66.9048995,1.923828125
,66.9426188,1.9189453125
,66.9480952,1.8896484375
,66.9834715,1.8603515625
,66.9861503,1.8212890625
,67.0224974,1.7822265625
,67.058241,1.73828125
,67.0586343,1.71875
,67.0695499,1.689453125
,67.0851436,1.640625
,67.1331186,1.6162109375
,67.1334168,1.513671875
,67.1531338,1.513671875
,67.1693048,1.4990234375
,67.2111979,1.494140625
,67.2116236,1.4697265625
,67.2456347,1.4453125
,67.2486052,1.42578125
,67.2895448,1.40625
,67.2899362,1.3720703125
,67.3201826,1.3720703125
,67.328099,1.357421875
,67.3636,1.337890625
,67.3686076,1.337890625
,67.4054117,1.3330078125
,67.4100181,1.376953125
,67.4609202,1.4599609375
,67.461173,1.5966796875
,67.4666427,1.7138671875
,67.5069293,1.8408203125
,67.5072098,1.93359375
,67.5296686,2.01171875
,67.565222,2.060546875
,67.5683458,2.1142578125
,67.6052902,2.12890625
,67.6103772,2.1435546875
,67.625778,2.1240234375
,67.6633693,2.119140625
,67.6663922,2.0849609375
,67.7018498,2.0654296875
,67.722569,2.021484375
,67.7304328,1.9775390625
,67.7496559,1.9384765625
,67.7907761,1.8994140625
,67.7910137,1.85546875
,67.8076211,1.806640625
,67.8538765,1.7919921875
,67.8542687,1.7529296875
,67.8682997,1.71875
,67.9039513,1.6796875
,67.9085899,1.640625
,67.9455831,1.5966796875
,67.9511717,1.5771484375
,67.9701828,1.54296875
,67.9904979,1.4453125
,68.0107873,1.38671875
,68.0277762,1.328125
,68.0705878,1.3671875
,68.0709787,1.3720703125
,68.0892979,1.3818359375
,68.1320778,1.357421875
,68.1323619,1.357421875
,68.1780678,1.3330078125
,68.1785246,1.318359375
,68.1867836,1.298828125
,68.2240381,1.3525390625
,68.2570487,1.4208984375
,68.2574371,1.5478515625
,68.2707242,1.66015625
,68.307565,1.787109375
,68.3093323,1.875
,68.346479,1.9677734375
,68.3513766,2.041015625
,68.3670921,2.08984375
,68.402418,2.138671875
,68.4075425,2.1630859375
,68.457054,2.16796875
,68.4572892,2.16796875
,68.4795163,2.1630859375
,68.4904968,2.1337890625
,68.5259085,2.08984375
,68.5467661,2.041015625
,68.5471714,2.01171875
,68.5981297,1.9775390625
,68.5984832,1.943359375
,68.6099037,1.8994140625
,68.6452587,1.865234375
,68.6513243,1.8359375
,68.6895926,1.787109375
,68.6898344,1.7431640625
,68.7069072,1.6943359375
,68.7536976,1.6796875
,68.7541527,1.6455078125
,68.784525,1.62109375
,68.7890722,1.5869140625
,68.8329134,1.5478515625
,68.833304,1.5087890625
,68.8638173,1.484375
,68.8727605,1.4453125
,68.8917412,1.4208984375
,68.9095837,1.3818359375
,68.9297442,1.3671875
,68.9707208,1.3427734375
,68.9709634,1.3427734375
,69.0052829,1.328125
,69.0094483,1.3134765625
,69.0454506,1.3427734375
,69.0661692,1.40625
,69.071281,1.5185546875
,69.1105732,1.6259765625
,69.11081,1.7578125
,69.1298275,1.8603515625
,69.1657197,1.953125
,69.1709171,2.0166015625
,69.2200292,2.0703125
,69.2205953,2.099609375
,69.2322215,2.1337890625
,69.2477297,2.1240234375
,69.2819641,2.1337890625
,69.302526,2.119140625
,69.3095303,2.0703125
,69.3448597,2.0263671875
,69.3658284,1.982421875
,69.3718826,1.943359375
,69.4069284,1.8994140625
,69.4118239,1.85546875
,69.4279098,1.8017578125
,69.4632219,1.7822265625
,69.4853318,1.7529296875
,69.4907199,1.728515625
,69.5345706,1.689453125
,69.534877,1.650390625
,69.5517447,1.62109375
,69.587988,1.5771484375
,69.5885476,1.5380859375
,69.629678,1.5234375
,69.6300651,1.5087890625
,69.6767685,1.474609375
,69.6770075,1.455078125
,69.6905562,1.42578125
,69.7379243,1.4013671875
,69.7383035,1.3720703125
,69.7678075,1.3525390625
,69.7722823,1.328125
,69.8142829,1.2939453125
,69.8146362,1.2646484375
,69.830392,1.2841796875
,69.8640291,1.337890625
,69.8843398,1.4501953125
,69.8901708,1.5576171875
,69.9252056,1.6748046875
,69.9461169,1.787109375
,69.9536135,1.8603515625
,69.9734311,1.9287109375
,69.9909242,1.97265625
,70.0304364,2.0361328125
,70.0306825,2.060546875
,70.0631531,2.080078125
,70.0835408,2.0556640625
,70.091982,2.0361328125
,70.1291753,1.982421875
,70.1338401,1.9482421875
,70.1489655,1.89453125
,70.1855062,1.8798828125
,70.2069684,1.8505859375
,70.2091527,1.81640625
,70.2492911,1.767578125
,70.2817189,1.7529296875
,70.2821107,1.71875
,70.2932501,1.669921875
,70.3419507,1.6357421875
,70.3422011,1.5966796875
,70.3505442,1.5771484375
,70.3873645,1.552734375
,70.3901275,1.5283203125
,70.4345973,1.4990234375
,70.434904,1.474609375
,70.4557593,1.4453125
,70.4725193,1.4111328125
,70.4888586,1.3818359375
,70.5237247,1.396484375
,70.5461398,1.318359375
,70.5505884,1.337890625
,70.5912111,1.3427734375
,70.5915324,1.3232421875
,70.6383599,1.3232421875
,70.6387572,1.3330078125
,70.6588565,1.416015625
,70.672118,1.5087890625
,70.7101748,1.6259765625
,70.7105607,1.71875
,70.7452557,1.845703125
,70.7508651,1.923828125
,70.7946277,2.0166015625
,70.7948721,2.0556640625
,70.8161673,2.099609375
,70.8329949,2.1142578125
,70.8688666,2.1142578125
,70.8692573,2.08984375
,70.9193614,2.08984375
,70.9195971,2.05078125
,70.9399525,2.01171875
,70.9519081,1.97265625
,70.9975598,1.9287109375
,70.9978207,1.8896484375
,71.0137435,1.845703125
,71.0337748,1.81640625
,71.0492902,1.77734375
,71.0863939,1.7626953125
,71.0914886,1.7333984375
,71.1383116,1.6943359375
,71.138745,1.650390625
,71.1546569,1.6259765625
,71.1992701,1.5771484375
,71.1996586,1.5478515625
,71.2158594,1.513671875
,71.229742,1.4697265625
,71.27618,1.4599609375
,71.2766559,1.4453125
,71.2915408,1.435546875
,71.327451,1.4013671875
,71.3332706,1.3818359375
,71.3539948,1.357421875
,71.3906548,1.337890625
,71.3952222,1.3037109375
,71.4154521,1.23046875
,71.4307589,1.19140625
,71.4654806,1.3037109375
,71.4867111,1.4208984375
,71.494397,1.5625
,71.542156,1.6796875
,71.5425484,1.826171875
,71.5541154,1.9384765625
,71.5938238,2.0068359375
,71.5942185,2.0751953125
,71.6110925,2.1044921875
,71.6469484,2.1533203125
,71.6519485,2.1728515625
,71.6982337,2.177734375
,71.6986686,2.1484375
,71.7134022,2.1142578125
,71.7486642,2.060546875
,71.7691923,2.021484375
,71.7723874,1.97265625
,71.7914641,1.9580078125
,71.8394777,1.9189453125
,71.8397132,1.884765625
,71.8536932,1.85546875
,71.9002207,1.806640625
,71.9004565,1.767578125
,71.9130815,1.71875
,71.9468014,1.6748046875
,71.9671001,1.6357421875
,71.9731049,1.6162109375
,72.0094064,1.58203125
,72.011685,1.5478515625
,72.057162,1.5087890625
,72.0574026,1.4892578125
,72.0772991,1.4599609375
,72.0959397,1.4404296875
,72.1112949,1.40625
,72.1456028,1.396484375
,72.1673742,1.3720703125
,72.1725605,1.3720703125
,72.2163185,1.3427734375
,72.2167517,1.3134765625
,72.2326077,1.298828125
,72.2692927,1.2939453125
,72.2961098,1.34765625
,72.2969939,1.4306640625
,72.3160909,1.5576171875
,72.3326543,1.6650390625
,72.369534,1.8017578125
,72.3712152,1.89453125
,72.4101701,1.97265625
,72.4155406,2.0263671875
,72.4653179,2.080078125
,72.4656912,2.099609375
,72.4770832,2.1142578125
,72.4955721,2.119140625
,72.5126126,2.0849609375
,72.5584511,2.0654296875
,72.5587804,2.041015625
,72.5891557,2.0263671875
,72.5938986,1.9873046875
,72.6347794,1.953125
,72.6351027,1.9091796875
,72.6648684,1.875
,72.6728912,1.8212890625
,72.7107425,1.8017578125
,72.7112153,1.7578125
,72.7470188,1.7236328125
,72.7681187,1.6796875
,72.7749607,1.6455078125
,72.8216852,1.591796875
,72.8219555,1.572265625
,72.8369275,1.5380859375
,72.8543251,1.4990234375
,72.8727889,1.474609375
,72.894214,1.4501953125
,72.9323747,1.42578125
,72.9349389,1.40625
,72.9793695,1.376953125
,72.9796084,1.3525390625
,72.9960969,1.3232421875
,73.0131968,1.2890625
,73.0575274,1.2744140625
,73.0577783,1.2646484375
,73.0730044,1.2744140625
,73.1072879,1.2939453125
,73.1279453,1.3525390625
,73.1364557,1.4697265625
,73.1713875,1.5771484375
,73.1764492,1.7041015625
,73.196733,1.7919921875
,73.2453092,1.8798828125
,73.2457382,1.93359375
,73.2536633,2.01171875
,73.2895257,2.0458984375
,73.294461,2.0751953125
,73.3313779,2.080078125
,73.3381979,2.080078125
,73.3715959,2.0458984375
,73.3778076,2.0068359375
,73.3929026,1.9580078125
,73.4300499,1.93359375
,73.4358212,1.89453125
,73.4554816,1.875
,73.4754744,1.8408203125
,73.5114884,1.796875
,73.5159876,1.7626953125
,73.5366184,1.7236328125
,73.5576503,1.6845703125
,73.5732191,1.6455078125
,73.6189094,1.640625
,73.6192959,1.6162109375
,73.6491574,1.591796875
,73.656182,1.552734375
,73.6767985,1.5234375
,73.7127839,1.4892578125
,73.7156031,1.474609375
,73.7342358,1.435546875
,73.7724455,1.42578125
,73.7726917,1.4208984375
,73.8080798,1.3916015625
,73.8288253,1.3671875
,73.8364174,1.3427734375
,73.8718008,1.3330078125
,73.8747713,1.3037109375
,73.9108706,1.2890625
,73.9308132,1.298828125
,73.9383984,1.3134765625
,73.9541578,1.3671875
,73.9886522,1.5478515625
,74.0083429,1.689453125
,74.0144831,1.81640625
,74.0515491,1.8994140625
,74.0574116,1.9677734375
,74.0945359,2.01171875
,74.0977402,2.0556640625
,74.1432688,2.080078125
,74.1436572,2.0751953125
,74.1643434,2.0751953125
,74.1760776,2.05078125
,74.2214961,2.0166015625
,74.2218162,1.962890625
,74.2385141,1.93359375
,74.2839617,1.8896484375
,74.2841981,1.865234375
,74.2944075,1.81640625
,74.3306835,1.7919921875
,74.3363673,1.7626953125
,74.3556977,1.7431640625
,74.3916587,1.69921875
,74.4244047,1.6650390625
,74.4247973,1.6357421875
,74.4382487,1.591796875
,74.4855178,1.552734375
,74.4859169,1.513671875
,74.4946792,1.5087890625
,74.5300241,1.4794921875
,74.5360349,1.46484375
,74.5724895,1.4306640625
,74.5777315,1.416015625
,74.6251149,1.3916015625
,74.6255067,1.396484375
,74.6350325,1.3720703125
,74.6853623,1.3818359375
,74.6856862,1.3623046875
,74.6949008,1.357421875
,74.7309797,1.357421875
,74.7522243,1.4306640625
,74.7564721,1.5283203125
,74.7917529,1.6357421875
,74.7967897,1.748046875
,74.8413347,1.8408203125
,74.8417222,1.884765625
,74.8557485,1.97265625
,74.8770872,2.0654296875
,74.9120567,2.1240234375
,74.9168302,2.158203125
,74.9519746,2.16796875
,74.9578409,2.1630859375
,74.9939586,2.1337890625
,74.9991048,2.0947265625
,75.0170093,2.041015625
,75.0361901,2.0166015625
,75.071756,1.9970703125
,75.0764592,1.9580078125
,75.121674,1.9189453125
,75.1219099,1.8798828125
,75.1389559,1.8603515625
,75.1823569,1.81640625
,75.1827568,1.7822265625
,75.1955896,1.728515625
,75.2313043,1.708984375
,75.2356903,1.669921875
,75.2776482,1.650390625
,75.2779502,1.6064453125
,75.2985505,1.572265625
,75.338042,1.5283203125
,75.3386857,1.4990234375
,75.3572579,1.4599609375
,75.4036965,1.46484375
,75.4039333,1.4501953125
,75.4177019,1.4404296875
,75.4678682,1.4208984375
,75.4681051,1.4013671875
,75.478359,1.3720703125
,75.5138441,1.3525390625
,75.5460254,1.3427734375
,75.5464148,1.3671875
,75.5553058,1.4453125
,75.591388,1.552734375
,75.6118532,1.6748046875
,75.6168948,1.7919921875
,75.6514009,1.9189453125
,75.6719698,2.001953125
,75.6770409,2.080078125
,75.7141975,2.138671875
,75.7350494,2.1630859375
,75.7401938,2.1923828125
,75.7574679,2.1923828125
,75.8068323,2.20703125
,75.8071139,2.1826171875
,75.8177369,2.1533203125
,75.8541188,2.1044921875
,75.8592389,2.060546875
,75.894167,2.01171875
,75.8995244,1.9775390625
,75.9154715,1.93359375
,75.9520095,1.9140625
,75.9571406,1.875
,75.9928081,1.845703125
,75.9984873,1.796875
,76.0362278,1.7724609375
,76.0392385,1.728515625
,76.0869279,1.6796875
,76.0871721,1.6455078125
,76.0942137,1.6015625
,76.1293622,1.58203125
,76.1505959,1.5625
,76.1578043,1.552734375
,76.1996799,1.5234375
,76.2000707,1.494140625
,76.2367778,1.46484375
,76.2371696,1.4404296875
,76.2554553,1.4111328125
,76.2900396,1.4111328125
,76.3098112,1.3818359375
,76.3181298,1.3671875
,76.3517679,1.3623046875
,76.3722515,1.3916015625
,76.3778092,1.46484375
,76.4145786,1.5625
,76.4197622,1.6943359375
,76.4367231,1.8017578125
,76.4606434,1.923828125
,76.4770232,1.93359375
,76.5120624,2.0361328125
,76.5408352,2.0947265625
,76.5410734,2.1533203125
,76.5762487,2.1728515625
,76.5808943,2.1826171875
,76.616734,2.1533203125
,76.6193384,2.1240234375
,76.636382,2.0703125
,76.6714813,2.0849609375
,76.6916235,2.0703125
,76.6995468,2.0263671875
,76.7411325,1.9970703125
,76.7415245,1.962890625
,76.7876868,1.923828125
,76.7879302,1.875
,76.8007172,1.8310546875
,76.8168877,1.77734375
,76.8529577,1.748046875
,76.8596849,1.7138671875
,76.8985367,1.6796875
,76.8989285,1.640625
,76.9338598,1.6162109375
,76.9539124,1.5771484375
,76.9590765,1.5478515625
,76.9948395,1.533203125
,77.0144915,1.494140625
,77.0168287,1.484375
,77.0543806,1.4599609375
,77.083367,1.4501953125
,77.0836064,1.42578125
,77.0998308,1.4013671875
,77.1340145,1.3671875
,77.155546,1.3623046875
,77.1560535,1.3623046875
,77.1927875,1.4599609375
,77.1981163,1.552734375
,77.2348172,1.6845703125
,77.2404985,1.796875
,77.2865088,1.904296875
,77.286836,1.9677734375
,77.3008942,2.0458984375
,77.3476919,2.0947265625
,77.3479528,2.1142578125
,77.3616518,2.0751953125
,77.3793652,2.0361328125
,77.3990381,2.060546875
,77.4347765,2.060546875
,77.4569992,2.05078125
,77.4614057,2.021484375
,77.480726,1.982421875
,77.5156305,1.9482421875
,77.5210883,1.9140625
,77.5368422,1.8701171875
,77.5718393,1.85546875
,77.591684,1.8212890625
,77.5998802,1.7822265625
,77.6354684,1.7626953125
,77.6407655,1.708984375
,77.6753455,1.6796875
,77.6815852,1.6357421875
,77.7010671,1.6162109375
,77.7188244,1.572265625
,77.7385032,1.572265625
,77.7826054,1.54296875
,77.7828481,1.533203125
,77.7988189,1.4990234375
,77.8342763,1.484375
,77.853994,1.4453125
,77.861919,1.4306640625
,77.8778827,1.396484375
,77.9201976,1.38671875
,77.9204638,1.357421875
,77.9685186,1.38671875
,77.968758,1.4306640625
,77.9799256,1.50390625
,78.0315411,1.6162109375
,78.0317829,1.728515625
,78.0435406,1.845703125
,78.058504,1.9287109375
,78.1092365,2.0263671875
,78.1096017,2.080078125
,78.1211102,2.12890625
,78.1706219,2.1484375
,78.1708582,2.1630859375
,78.1821748,2.1484375
,78.2169877,2.1337890625
,78.2218743,2.08984375
,78.2632745,2.05078125
,78.2635186,2.0166015625
,78.2815287,1.9677734375
,78.3002658,1.943359375
,78.319956,1.9091796875
,78.3566523,1.8798828125
,78.3586488,1.8408203125
,78.3937123,1.806640625
,78.41446,1.7626953125
,78.4213518,1.728515625
,78.4574438,1.6845703125
,78.4578328,1.6748046875
,78.4955622,1.640625
,78.517239,1.611328125
,78.5218814,1.58203125
,78.5416492,1.5576171875
,78.5905725,1.5234375
,78.5908072,1.4990234375
,78.6022361,1.474609375
,78.6211818,1.4404296875
,78.6394053,1.4306640625
,78.6832478,1.4111328125
,78.6835286,1.396484375
,78.7152933,1.376953125
,78.7222394,1.3818359375
,78.7618243,1.38671875
,78.7622171,1.435546875
,78.7787391,1.513671875
,78.8230437,1.6552734375
,78.8234303,1.7822265625
,78.8548948,1.9140625
,78.8604841,2.001953125
,78.9024158,2.08984375
,78.9028043,2.1630859375
,78.948084,2.2021484375
,78.9483325,2.236328125
,78.9579766,2.2509765625
,78.9935332,2.2705078125
,79.0142651,2.2509765625
,79.0211497,2.2216796875
,79.05832,2.1728515625
,79.0629037,2.1240234375
,79.099748,2.0654296875
,79.103146,2.021484375
,79.1393753,1.9677734375
,79.1446123,1.9287109375
,79.160736,1.8798828125
,79.1964686,1.8603515625
,79.1999765,1.81640625
,79.2446504,1.8017578125
,79.2448946,1.7626953125
,79.2632811,1.71875
,79.2997147,1.6748046875
,79.3028932,1.6357421875
,79.353054,1.591796875
,79.3532961,1.552734375
,79.384408,1.5380859375
,79.3847914,1.5087890625
,79.4035327,1.484375
,79.4225869,1.4599609375
,79.4571702,1.4306640625
,79.4780894,1.40625
,79.4824916,1.3916015625
,79.5002223,1.357421875
,79.5376203,1.34765625
,79.5423447,1.357421875
,79.5790404,1.357421875
,79.5819187,1.416015625
,79.6032095,1.50390625
,79.6502535,1.640625
,79.6504959,1.7529296875
,79.6643888,1.875
,79.6794383,1.962890625
,79.7275185,2.0654296875
,79.7279101,2.119140625
,79.7412436,2.1923828125
,79.7905756,2.216796875
,79.7909683,2.236328125
,79.8045358,2.2216796875
,79.8230542,2.1875
,79.8402955,2.1337890625
,79.8823431,2.1142578125
,79.8827361,1.9970703125
,79.9276272,1.8994140625
,79.9278728,1.8994140625
,79.9420827,1.884765625
,79.9800419,1.8603515625
,79.9826902,1.826171875
,80.0209646,1.7919921875
,80.0256899,1.7431640625
,80.0679442,1.7041015625
,80.0682865,1.6650390625
,80.0821924,1.640625
,80.130806,1.6015625
,80.1311989,1.572265625
,80.1434964,1.5380859375
,80.1914008,1.5087890625
,80.191852,1.4892578125
,80.2057826,1.4453125
,80.2417738,1.42578125
,80.2420171,1.38671875
,80.2782628,1.3916015625
,80.2835444,1.3671875
,80.3020245,1.3525390625
,80.3387095,1.318359375
,80.3433345,1.3037109375
,80.3801005,1.26953125
,80.3842524,1.2744140625
,80.4002377,1.3134765625
,80.4425285,1.435546875
,80.4432465,1.5673828125
,80.4723461,1.708984375
,80.4830079,1.806640625
,80.5180101,1.9189453125
,80.537398,2.001953125
,80.5441879,2.05078125
,80.5813506,2.0947265625
,80.5815966,2.109375
,80.6174762,2.12890625
,80.6232213,2.1142578125
,80.6608119,2.1044921875
,80.6611929,2.05078125
,80.7080667,2.0068359375
,80.7083515,1.962890625
,80.728527,1.923828125
,80.7464766,1.8798828125
,80.7667792,1.8115234375
,80.7814408,1.7333984375
,80.8306807,1.748046875
,80.8310698,1.7578125
,80.842355,1.73828125
,80.8778912,1.7138671875
,80.8832801,1.669921875
,80.9197147,1.6455078125
,80.92477,1.6015625
,80.9710925,1.5673828125
,80.9713297,1.5283203125
,80.9834405,1.513671875
,81.0044765,1.4892578125
,81.0237725,1.4794921875
,81.0447588,1.4501953125
,81.0645699,1.4306640625
,81.1026608,1.40625
,81.1030509,1.3818359375
,81.1223676,1.3427734375
,81.1580924,1.34765625
,81.1624884,1.337890625
,81.1835323,1.3232421875
,81.2342533,1.3525390625
,81.2346442,1.4306640625
,81.2461875,1.5576171875
,81.2820437,1.6796875
,81.2848137,1.81640625
,81.3006265,1.904296875
,81.335264,2.01171875
,81.3553474,2.080078125
,81.362488,2.12890625
,81.3989299,2.1484375
,81.4030342,2.1728515625
,81.4374028,2.158203125
,81.467641,2.1337890625
,81.4681231,2.1044921875
,81.4815994,2.05078125
,81.5302266,2.0068359375
,81.5304632,1.97265625
,81.5446381,1.953125
,81.5917531,1.904296875
,81.5920848,1.8701171875
,81.6053029,1.8310546875
,81.6250102,1.796875
,81.668726,1.7431640625
,81.6690433,1.708984375
,81.6986191,1.6552734375
,81.7016176,1.6357421875
,81.7400399,1.6015625
,81.7450697,1.5673828125
,81.7809382,1.5185546875
,81.7865244,1.513671875
,81.8235352,1.4892578125
,81.8239648,1.455078125
,81.8725122,1.4306640625
,81.8729079,1.4013671875
,81.8927281,1.3916015625
,81.9042091,1.376953125
,81.9502757,1.3623046875
,81.9505135,1.337890625
,81.9662645,1.318359375
,81.999484,1.2939453125
,82.0201794,1.298828125
,82.0234117,1.3427734375
,82.0605167,1.474609375
,82.0635264,1.6064453125
,82.099254,1.7431640625
,82.1050234,1.8798828125
,82.1400053,1.962890625
,82.1471632,2.0458984375
,82.1831727,2.0947265625
,82.1859318,2.1435546875
,82.202532,2.1630859375
,82.2382231,2.1923828125
,82.2432719,2.197265625
,82.277627,2.1826171875
,82.2986458,2.138671875
,82.3061674,2.099609375
,82.3561813,2.041015625
,82.3566132,2.001953125
,82.3619174,1.953125
,82.3964888,1.9287109375
,82.4158595,1.884765625
,82.4257916,1.8603515625
,82.4638749,1.81640625
,82.4642632,1.7626953125
,82.5014819,1.71875
,82.5063711,1.6796875
,82.5419854,1.6357421875
,82.5738745,1.5966796875
,82.5742095,1.5673828125
,82.5849071,1.5234375
,82.6219536,1.4990234375
,82.6263321,1.4794921875
,82.6617425,1.4501953125
,82.6647147,1.4208984375
,82.700631,1.4013671875
,82.7211894,1.3671875
,82.7266927,1.337890625
,82.7486341,1.3232421875
,82.7632677,1.2890625
,82.7956659,1.279296875
,82.8170759,1.2744140625
,82.8274435,1.298828125
,82.8455645,1.328125
,82.8830286,1.435546875
,82.9133716,1.5478515625
,82.9136687,1.6943359375
,82.9249455,1.806640625
,82.9768732,1.9384765625
,82.9772651,2.021484375
,82.9867941,2.0947265625
,83.0246548,2.138671875
,83.0249364,2.177734375
,83.0606519,2.1826171875
,83.0808754,2.1923828125
,83.0884543,2.16796875
,83.105926,2.1142578125
,83.12506,2.0849609375
,83.1611145,2.0361328125
,83.1636047,1.9921875
,83.1986383,1.9384765625
,83.2246017,1.904296875
,83.2249154,1.8603515625
,83.2615383,1.8115234375
,83.2812149,1.7626953125
,83.2883717,1.6748046875
,83.303356,1.5869140625
,83.3498753,1.6064453125
,83.3501186,1.591796875
,83.3695211,1.572265625
,83.3879545,1.552734375
,83.4236997,1.5185546875
,83.4262542,1.4892578125
,83.4616624,1.4501953125
,83.4812175,1.4208984375
,83.4842766,1.376953125
,83.5355068,1.3671875
,83.5359773,1.3427734375
,83.545814,1.328125
,83.5826299,1.2939453125
,83.6042021,1.279296875
,83.6086249,1.2451171875
,83.6595045,1.23046875
,83.6599015,1.2158203125
,83.6640054,1.25
,83.6995831,1.3134765625
,83.7201055,1.4453125
,83.7272386,1.5966796875
,83.7631138,1.7138671875
,83.7663766,1.8310546875
,83.8028954,1.9140625
,83.8327335,1.9873046875
,83.8331429,2.0263671875
,83.8444345,2.1044921875
,83.8794691,2.12890625
,83.8996441,2.138671875
,83.9075123,2.119140625
,83.9444098,2.0849609375
,83.9488132,2.03125
,83.9871437,1.982421875
,83.9875377,1.9287109375
,84.0057175,1.8994140625
,84.0255029,1.8798828125
,84.0602603,1.8359375
,84.0798283,1.7919921875
,84.0880469,1.7431640625
,84.1273874,1.708984375
,84.1277764,1.66015625
,84.1641733,1.6259765625
,84.1690718,1.58203125
,84.20359,1.54296875
,84.2238243,1.494140625
,84.228609,1.484375
,84.2466635,1.4453125
,84.2825743,1.42578125
,84.3019922,1.3916015625
,84.3077353,1.3720703125
,84.3451447,1.3330078125
,84.3502133,1.3232421875
,84.3856751,1.298828125
,84.3859327,1.2646484375
,84.4220673,1.2548828125
,84.4502133,1.240234375
,84.4505213,1.2255859375
,84.4686358,1.2060546875
,84.503458,1.220703125
,84.5236953,1.2646484375
,84.528609,1.3720703125
,84.5471457,1.4892578125
,84.5654756,1.640625
,84.6057983,1.7529296875
,84.6060395,1.865234375
,84.6251428,1.9384765625
,84.6678552,1.9921875
,84.6987163,2.041015625
,84.6989603,2.05078125
,84.7096512,2.060546875
,84.7254929,2.0361328125
,84.7616081,2.0263671875
,84.792688,1.982421875
,84.7930084,1.943359375
,84.8074373,1.89453125
,84.8417053,1.8603515625
,84.8636108,1.8212890625
,84.8707472,1.8017578125
,84.8857253,1.7626953125
,84.9319553,1.7529296875
,84.9323455,1.7138671875
,84.9521338,1.6845703125
,84.9670478,1.630859375
,85.0004551,1.611328125
,85.027147,1.572265625
,85.0274064,1.533203125
,85.0709365,1.494140625
,85.0712212,1.455078125
,85.1054328,1.42578125
,85.1058149,1.396484375
,85.1387505,1.3916015625
,85.1632223,1.3720703125
,85.168381,1.34765625
,85.2117995,1.3232421875
,85.212129,1.298828125
,85.2423853,1.2646484375
,85.2500517,1.2451171875
,85.2689223,1.220703125
,85.2876981,1.2353515625
,85.3092462,1.279296875
,85.3282059,1.34765625
,85.3636196,1.4697265625
,85.367614,1.5869140625
,85.4027353,1.7236328125
,85.4248901,1.8115234375
,85.4302478,1.89453125
,85.4495228,1.943359375
,85.4664805,2.0068359375
,85.5005491,2.0361328125
,85.5211476,2.060546875
,85.5272457,2.041015625
,85.5608015,2.021484375
,85.5838698,1.9775390625
,85.591826,1.93359375
,85.608129,1.8798828125
,85.6268808,1.875
,85.6754845,1.8505859375
,85.6758095,1.8115234375
,85.6972039,1.7822265625
,85.710622,1.7431640625
,85.7295623,1.708984375
,85.7513873,1.6650390625
,85.7710408,1.6259765625
,85.7850949,1.591796875
,85.8189135,1.5673828125
,85.8463504,1.4599609375
,85.8467021,1.4501953125
,85.8799417,1.4306640625
,85.9001641,1.4306640625
,85.9080181,1.4111328125
,85.9415327,1.3916015625
,85.9632015,1.3818359375
,85.972166,1.3525390625
,86.0063847,1.3330078125
,86.0065977,1.3037109375
,86.042105,1.298828125
,86.0644686,1.279296875
,86.0684786,1.2646484375
,86.1008742,1.2548828125
,86.1203483,1.2890625
,86.1312265,1.3623046875
,86.1721024,1.484375
,86.1724312,1.5966796875
,86.1877693,1.7333984375
,86.235152,1.8408203125
,86.2355044,1.9287109375
,86.2491577,1.982421875
,86.2833566,2.0361328125
,86.3124004,2.0703125
,86.3126761,2.0751953125
,86.3448925,2.080078125
,86.3667196,2.0458984375
,86.3670375,2.03125
,86.4016291,2.001953125
,86.4233611,1.97265625
,86.4304958,1.93359375
,86.4670311,1.89453125
,86.4890129,1.845703125
,86.4893673,1.8115234375
,86.5229314,1.7626953125
,86.5269942,1.7431640625
,86.561518,1.69921875
,86.5921654,1.6650390625
,86.5923677,1.6357421875
,86.6117647,1.5966796875
,86.630408,1.5625
,86.6531697,1.513671875
,86.6710002,1.484375
,86.6922037,1.4404296875
,86.7128865,1.357421875
,86.7280631,1.3427734375
,86.763921,1.34765625
,86.7928195,1.3330078125
,86.7931702,1.328125
,86.8266257,1.2939453125
,86.8312454,1.2744140625
,86.8695275,1.25
,86.8713572,1.23046875
,86.9152401,1.201171875
,86.9155087,1.2548828125
,86.9301282,1.328125
,86.9640098,1.4208984375
,86.9700148,1.552734375
,87.0018645,1.6650390625
,87.0242648,1.7822265625
,87.0303575,1.8701171875
,87.0641079,1.93359375
,87.084272,1.982421875
,87.0882425,2.0361328125
,87.1197825,2.0751953125
,87.1485366,2.0849609375
,87.1488836,2.0751953125
,87.184784,2.0556640625
,87.2047513,2.0166015625
,87.212741,1.97265625
,87.248495,1.943359375
,87.2488631,1.8798828125
,87.2828937,1.8603515625
,87.3032724,1.81640625
,87.3115777,1.7919921875
,87.3495225,1.748046875
,87.3499011,1.71875
,87.3827824,1.669921875
,87.4026386,1.6455078125
,87.408659,1.6015625
,87.4432665,1.591796875
,87.4756764,1.5576171875
,87.4760801,1.54296875
,87.491582,1.5185546875
,87.5261505,1.4892578125
,87.5304772,1.455078125
,87.5658499,1.435546875
,87.5850699,1.40625
,87.5934786,1.3671875
,87.6282737,1.3427734375
,87.6286657,1.30859375
,87.652527,1.2939453125
,87.6709742,1.26953125
,87.7104719,1.2646484375
,87.739463,1.25
,87.7398048,1.2451171875
,87.7511988,1.2744140625
,87.7893146,1.3525390625
,87.7897044,1.455078125
,87.8096708,1.5966796875
,87.8452471,1.7041015625
,87.8525649,1.806640625
,87.8713807,1.8896484375
,87.9101945,1.93359375
,87.9147168,1.9775390625
,87.9334751,2.001953125
,87.9698117,2.021484375
,87.970055,2.0068359375
,88.0059047,2.001953125
,88.0109584,1.9775390625
,88.0530635,1.9482421875
,88.0534273,1.8994140625
,88.0983843,1.865234375
,88.0986301,1.81640625
,88.1118894,1.7822265625
,88.1286232,1.7431640625
,88.1635431,1.71875
,88.1852902,1.689453125
,88.1923285,1.669921875
,88.2403974,1.640625
,88.2407684,1.5966796875
,88.2524829,1.5673828125
,88.2893997,1.5234375
,88.2941742,1.4892578125
,88.3090126,1.455078125
,88.3481358,1.4453125
,88.3780164,1.42578125
,88.3784538,1.40625
,88.3914814,1.3720703125
,88.4280872,1.34765625
,88.4327087,1.3134765625
,88.4685712,1.2939453125
,88.4738808,1.259765625
,88.494869,1.240234375
,88.5312959,1.2255859375
,88.531566,1.1962890625
,88.5687377,1.1865234375
,88.572684,1.171875
,88.608659,1.1572265625
,88.6134724,1.1376953125
,88.6488354,1.1279296875
,88.6538811,1.1083984375
,88.6903886,1.0986328125
,88.6907428,1.083984375
,88.7351562,1.09375
,88.7354714,1.0888671875
,88.7560872,1.0888671875
,88.7727284,1.07421875
,88.8077387,1.07421875
,88.8141338,1.0595703125
,88.8494267,1.0546875
,88.855072,1.044921875
,88.8713501,1.025390625
,88.9079177,1.03515625
,88.9109832,1.03515625
,88.9466707,1.025390625
,88.9543369,1.025390625
,88.9996923,1.03515625
,89.0000829,1.03515625
,89.0153274,1.0498046875
,89.0310733,1.044921875
,89.0521407,1.0546875
,89.0923967,1.0595703125
,89.0927977,1.0693359375
,89.1284722,1.064453125
,89.1330488,1.0546875
,89.1704477,1.0595703125
,89.2006324,1.044921875
,89.2008879,1.044921875
,89.2146515,1.03515625
,89.2362165,0.9912109375
,89.2521774,0.9375
,89.2728898,0.9912109375
,89.3097006,1.0107421875
,89.3140757,1.0498046875
,89.3569419,1.0546875
,89.3572091,1.1181640625
,89.3758179,1.2060546875
,89.4104978,1.3671875
,89.4110307,1.5185546875
,89.4490392,1.69921875
,89.4538572,1.8359375
,89.4734725,1.97265625
,89.4935453,2.0703125
,89.5301666,2.1240234375
,89.535828,2.1533203125
,89.5563547,2.16796875
,89.5754272,2.158203125
,89.5923291,2.1337890625
,89.6263996,2.1240234375
,89.6482056,2.109375
,89.6528835,2.0849609375
,89.6968377,2.060546875
,89.6970843,2.0361328125
,89.7132849,2.0166015625
,89.7593851,1.9921875
,89.7597317,1.9580078125
,89.789275,1.9384765625
,89.7939023,1.93359375
,89.8350732,1.8896484375
,89.8354661,1.865234375
,89.8812342,1.8212890625
,89.881697,1.796875
,89.8941747,1.7578125
,89.9307777,1.7236328125
,89.9312731,1.6845703125
,89.9756425,1.6748046875
,89.9758802,1.6552734375
,90.0046623,1.650390625
,90.0126787,1.630859375
,90.0530806,1.611328125
,90.0533648,1.5869140625
,90.0885194,1.5625
,90.1077136,1.533203125
,90.1153291,1.46484375
,90.1497424,1.46484375
,90.1705245,1.4453125
,90.1739832,1.46484375
,90.2111722,1.5087890625
,90.2134165,1.591796875
,90.2490126,1.6796875
,90.2696723,1.8017578125
,90.2749357,1.89453125
,90.3180138,1.982421875
,90.3183463,2.041015625
,90.3353634,2.109375
,90.3530173,2.138671875
,90.3877843,2.1728515625
,90.4092996,2.1728515625
,90.4162865,2.1630859375
,90.4567071,2.1484375
,90.4571143,2.1044921875
,90.4911025,2.060546875
,90.4941144,2.0166015625
,90.5357845,2.01171875
,90.5361703,1.982421875
,90.5551247,1.953125
,90.5903591,1.9140625
,90.5955512,1.8896484375
,90.6304268,1.845703125
,90.6513733,1.81640625
,90.6516989,1.7724609375
,90.6910343,1.7529296875
,90.691422,1.728515625
,90.7363334,1.69921875
,90.7366329,1.6650390625
,90.756806,1.640625
,90.7748622,1.62109375
,90.8142863,1.58203125
,90.8145244,1.5625
,90.8504947,1.533203125
,90.8522151,1.5283203125
,90.8921576,1.4990234375
,90.8925743,1.4892578125
,90.9321436,1.46484375
,90.9348887,1.4404296875
,90.9717068,1.4111328125
,90.9749838,1.40625
,91.0182811,1.4208984375
,91.018669,1.5087890625
,91.0480841,1.6015625
,91.0559519,1.7333984375
,91.076105,1.85546875
,91.1121882,1.943359375
,91.1168506,2.021484375
,91.1358809,2.0654296875
,91.1706548,2.119140625
,91.1913506,2.12890625
,91.1967125,2.1435546875
,91.2130957,2.1240234375
,91.2501396,2.119140625
,91.2540332,2.08984375
,91.2906164,2.0654296875
,91.2957912,2.021484375
,91.3442933,1.9873046875
,91.3446873,1.9482421875
,91.3584158,1.9091796875
,91.3747252,1.8603515625
,91.3936369,1.85546875
,91.4354836,1.8310546875
,91.4357243,1.7919921875
,91.4547514,1.7626953125
,91.4888243,1.728515625
,91.5103919,1.689453125
,91.5172136,1.66015625
,91.5387218,1.630859375
,91.5548919,1.591796875
,91.5742876,1.5771484375
,91.6093124,1.5576171875
,91.6167338,1.5380859375
,91.6564118,1.5087890625
,91.6567499,1.4794921875
,91.6767015,1.455078125
,91.7144481,1.4306640625
,91.7188067,1.4208984375
,91.7337864,1.3818359375
,91.7696526,1.3818359375
,91.7744489,1.298828125
,91.8097638,1.3525390625
,91.8140953,1.40625
,91.8574691,1.50390625
,91.8577711,1.6015625
,91.9012401,1.7138671875
,91.9014951,1.796875
,91.9185308,1.884765625
,91.9355329,1.923828125
,91.9705608,1.9921875
,91.9740061,2.0263671875
,92.0105159,2.0556640625
,92.0313755,2.05078125
,92.0357005,2.060546875
,92.071849,2.041015625
,92.092967,2.01171875
,92.0977874,1.97265625
,92.1145822,1.93359375
,92.1492284,1.9140625
,92.1714883,1.884765625
,92.1768802,1.85546875
,92.2118823,1.8212890625
,92.2159048,1.787109375
,92.2519768,1.748046875
,92.2725023,1.7138671875
,92.2750729,1.6796875
,92.3115242,1.6748046875
,92.3141653,1.650390625
,92.349618,1.62109375
,92.3695338,1.6015625
,92.3764847,1.5673828125
,92.4118027,1.54296875
,92.4190834,1.513671875
,92.4602518,1.494140625
,92.4606519,1.46484375
,92.4751167,1.4599609375
,92.5124589,1.4404296875
,92.5144535,1.4306640625
,92.5504494,1.40625
,92.5717422,1.3916015625
,92.5783266,1.3818359375
,92.6173627,1.4013671875
,92.6181994,1.4501953125
,92.6634432,1.4892578125
,92.6637691,1.591796875
,92.6751634,1.7333984375
,92.7259901,1.8408203125
,92.7262419,1.9091796875
,92.7572345,1.97265625
,92.7575867,2.0068359375
,92.804014,2.0361328125
,92.8044018,2.041015625
,92.8211899,2.05078125
,92.8347871,2.0166015625
,92.8809628,2.0068359375
,92.8813558,1.9775390625
,92.9117275,1.9482421875
,92.9186698,1.9091796875
,92.9582244,1.875
,92.958617,1.8359375
,93.0031149,1.8017578125
,93.003356,1.7822265625
,93.0167276,1.73828125
,93.0508371,1.7236328125
,93.0711182,1.71875
,93.0776712,1.7236328125
,93.1286852,1.69921875
,93.1289323,1.6845703125
,93.1390011,1.6552734375
,93.1743881,1.630859375
,93.1748877,1.591796875
,93.2108311,1.591796875
,93.2318759,1.572265625
,93.2366077,1.5576171875
,93.2716613,1.533203125
,93.2771929,1.5087890625
,93.3154656,1.4794921875
,93.3453805,1.474609375
,93.3456648,1.455078125
,93.3555732,1.4208984375
,93.390523,1.4404296875
,93.4105307,1.4697265625
,93.4164882,1.5478515625
,93.4548964,1.640625
,93.4858097,1.7529296875
,93.4862026,1.845703125
,93.4992161,1.93359375
,93.5476634,1.9921875
,93.547994,2.0361328125
,93.5682398,2.0654296875
,93.578048,2.1142578125
,93.626073,2.12890625
,93.6268286,2.12890625
,93.6376125,2.1142578125
,93.6724882,2.0703125
,93.6931158,2.0361328125
,93.6993369,1.9921875
,93.7485625,1.9677734375
,93.7488182,1.9189453125
,93.7564872,1.8994140625
,93.7897349,1.8701171875
,93.8105514,1.845703125
,93.8200444,1.806640625
,93.8550194,1.787109375
,93.8601009,1.73828125
,93.9067169,1.708984375
,93.9071047,1.669921875
,93.9165822,1.6552734375
,93.9521984,1.62109375
,93.9719791,1.6162109375
,93.9769498,1.5966796875
,94.0127029,1.5673828125
,94.0328266,1.54296875
,94.0389335,1.513671875
,94.0753405,1.484375
,94.0755988,1.4599609375
,94.1126896,1.4697265625
,94.1331891,1.46484375
,94.1378216,1.4453125
,94.1718329,1.4208984375
,94.1930969,1.4208984375
,94.2003517,1.4453125
,94.2479788,1.5283203125
,94.2483191,1.62109375
,94.2567119,1.7431640625
,94.2941394,1.875
,94.297574,1.8798828125
,94.3343138,1.9921875
,94.3372416,2.0556640625
,94.3755866,2.1240234375
,94.4031878,2.1484375
,94.4034337,2.177734375
,94.4202338,2.1728515625
,94.4564627,2.1630859375
,94.4567201,2.1240234375
,94.4935158,2.1142578125
,94.4989484,2.0703125
,94.5343207,2.0361328125
,94.5394354,1.9873046875
,94.5594397,1.953125
,94.6076357,1.904296875
,94.6078721,1.884765625
,94.6367519,1.845703125
,94.6373812,1.806640625
,94.6844313,1.7822265625
,94.6847541,1.748046875
,94.700535,1.71875
,94.7370416,1.6845703125
,94.7417633,1.650390625
,94.7766171,1.6064453125
,94.7826228,1.5771484375
,94.7982034,1.5478515625
,94.8403344,1.533203125
,94.8405742,1.513671875
,94.8595841,1.50390625
,94.8788989,1.474609375
,94.9168409,1.455078125
,94.9372507,1.4404296875
,94.9392613,1.4013671875
,94.9738064,1.376953125
,94.9954885,1.3525390625
,94.9983383,1.38671875
,95.0188402,1.4306640625
,95.0534202,1.5234375
,95.0748232,1.630859375
,95.0811932,1.7529296875
,95.1199267,1.8505859375
,95.1203301,1.9677734375
,95.1413344,2.03125
,95.1616025,2.041015625
,95.1780077,2.041015625
,95.2133249,2.119140625
,95.2176967,2.1484375
,95.2521178,2.177734375
,95.2724916,2.1728515625
,95.2794411,2.1337890625
,95.3186506,2.0947265625
,95.3233768,2.041015625
,95.3420297,2.001953125
,95.3591181,1.953125
,95.3940816,1.9384765625
,95.3991518,1.9091796875
,95.4499462,1.875
,95.4503358,1.8310546875
,95.4806216,1.796875
,95.4808632,1.7578125
,95.5271171,1.7333984375
,95.5274312,1.6845703125
,95.5484422,1.6650390625
,95.5593477,1.6455078125
,95.6051475,1.6064453125
,95.6057061,1.5771484375
,95.6222395,1.5478515625
,95.6679516,1.5283203125
,95.6684745,1.494140625
,95.6829841,1.4697265625
,95.6978422,1.4404296875
,95.7453443,1.4306640625
,95.7455488,1.40625
,95.776135,1.3916015625
,95.7787503,1.3720703125
,95.8154154,1.3623046875
,95.8381046,1.3671875
,95.8442416,1.416015625
,95.8583463,1.494140625
,95.8934797,1.650390625
,95.8981533,1.7822265625
,95.9331991,1.8798828125
,95.9549036,1.9677734375
,95.9622075,2.03125
,96.0111966,2.080078125
,96.0115915,2.109375
,96.0223995,2.138671875
,96.0718986,2.1337890625
,96.0721794,2.119140625
,96.0793337,2.0849609375
,96.1138243,2.0556640625
,96.1336321,2.0263671875
,96.1418628,2.001953125
,96.1761537,1.962890625
,96.1829721,1.93359375
,96.2188144,1.9091796875
,96.2239486,1.8603515625
,96.2598053,1.8212890625
,96.2600471,1.77734375
,96.294272,1.7626953125
,96.3000749,1.728515625
,96.335276,1.6943359375
,96.3564101,1.6552734375
,96.3641748,1.62109375
,96.382969,1.58203125
,96.4310666,1.5576171875
,96.4314581,1.5185546875
,96.4408239,1.513671875
,96.4605573,1.494140625
,96.5071377,1.4794921875
,96.5074556,1.4453125
,96.5235628,1.435546875
,96.5696213,1.4111328125
,96.569938,1.3818359375
,96.5827868,1.3671875
,96.6007856,1.3330078125
,96.6464922,1.3525390625
,96.6468057,1.4111328125
,96.6607903,1.5185546875
,96.7083127,1.6357421875
,96.7088878,1.7578125
,96.7212854,1.8603515625
,96.7711932,1.943359375
,96.7715825,2.001953125
,96.8023626,2.080078125
,96.8027509,2.1240234375
,96.8216747,2.1435546875
,96.8639331,2.1630859375
,96.8641747,2.138671875
,96.9085843,2.119140625
,96.9088325,2.0703125
,96.9232433,2.041015625
,96.960176,1.9873046875
,96.9652469,1.9580078125
,96.9801935,1.9091796875
,97.0162309,1.89453125
,97.0366415,1.85546875
,97.0418239,1.8408203125
,97.0785386,1.796875
,97.0818464,1.7626953125
,97.1269971,1.728515625
,97.127387,1.689453125
,97.1575919,1.640625
,97.1602679,1.6552734375
,97.1968989,1.640625
,97.202134,1.6162109375
,97.2512162,1.5869140625
,97.2516094,1.5625
,97.2625851,1.5380859375
,97.3136545,1.5087890625
,97.3140509,1.494140625
,97.3435777,1.4697265625
,97.3438162,1.46484375
,97.3621051,1.4501953125
,97.3818538,1.4306640625
,97.4174922,1.4111328125
,97.4229255,1.416015625
,97.4675213,1.4404296875
,97.4679332,1.5283203125
,97.4843212,1.6552734375
,97.5010716,1.7578125
,97.5347076,1.884765625
,97.5549783,1.982421875
,97.5623284,2.080078125
,97.6080577,2.138671875
,97.6083674,2.1875
,97.6252718,2.20703125
,97.671118,2.2265625
,97.6715091,2.216796875
,97.6864281,2.2265625
,97.7028862,2.1240234375
,97.7496296,2.1142578125
,97.7503491,2.08984375
,97.7625957,2.05078125
,97.7963008,2.0068359375
,97.8287715,1.9873046875
,97.8290175,1.953125
,97.8444368,1.904296875
,97.8787535,1.865234375
,97.8994738,1.8212890625
,97.903514,1.796875
,97.9528818,1.7578125
,97.9532711,1.7333984375
,97.9652433,1.689453125
,97.9843928,1.6552734375
,98.0308545,1.6162109375
,98.0311896,1.572265625
,98.0423375,1.5380859375
,98.0936397,1.533203125
,98.0940432,1.5087890625
,98.1030122,1.4892578125
,98.1381891,1.474609375
,98.1426405,1.4404296875
,98.1773434,1.416015625
,98.1983519,1.3916015625
,98.2064737,1.3818359375
,98.2227567,1.357421875
,98.2591457,1.376953125
,98.2620375,1.42578125
,98.2973671,1.54296875
,98.3028007,1.650390625
,98.3409202,1.787109375
,98.3430059,1.884765625
,98.3787303,1.982421875
,98.4039982,2.05078125
,98.4043632,2.1240234375
,98.4224166,2.1630859375
,98.4660931,2.20703125
,98.4664803,2.2265625
,98.4832868,2.216796875
,98.5176345,2.1875
,98.5383347,2.1435546875
,98.543477,2.0947265625
,98.5778061,2.05078125
,98.5850918,1.9580078125
,98.6038773,1.9287109375
,98.6534685,1.9091796875
,98.6537547,1.884765625
,98.6657907,1.85546875
,98.7013162,1.8212890625
,98.7042876,1.7919921875
,98.7418596,1.7431640625
,98.7471414,1.69921875
,98.7933968,1.669921875
,98.7939456,1.62109375
,98.8012617,1.6015625
,98.8370549,1.552734375
,98.8691726,1.533203125
,98.8694142,1.4990234375
,98.8837855,1.484375
,98.9212448,1.4453125
,98.9257629,1.4208984375
,98.9414033,1.38671875
,98.9768549,1.3916015625
,99.0114916,1.3671875
,99.0118808,1.357421875
,99.0256391,1.328125
,99.072028,1.3134765625
,99.0724379,1.3037109375
,99.084406,1.3720703125
,99.1338082,1.46484375
,99.1343327,1.5771484375
,99.1562571,1.7236328125
,99.1630941,1.8505859375
,99.1991411,1.953125
,99.2046046,2.0361328125
