Time,PPG_Signal
0.6572098,0.8154296875
0.6930781,0.8544921875
0.6933963,0.9521484375
0.7296858,1.11328125
0.750579,1.2646484375
0.7556301,1.42578125
0.7908434,1.5478515625
0.7961938,1.6552734375
0.8475919,1.71875
0.8479885,1.7626953125
0.853691,1.77734375
0.8886481,1.7822265625
0.9093367,1.7578125
0.9145251,1.7138671875
0.9503223,1.650390625
0.9721128,1.5966796875
0.9774438,1.5478515625
1.019241,1.50390625
1.0200591,1.4697265625
1.0352022,1.4404296875
1.0566284,1.4208984375
1.075202,1.396484375
1.1264833,1.376953125
1.1268103,1.34765625
1.1356649,1.3134765625
1.1698277,1.279296875
1.1913248,1.2451171875
1.1983347,1.2060546875
1.2356332,1.15234375
1.2360971,1.123046875
1.2711846,1.103515625
1.2767048,1.083984375
1.3159684,1.0595703125
1.3162788,1.0400390625
1.3614131,1.0205078125
1.3618568,1.0107421875
1.3905788,0.9912109375
1.3989144,0.9765625
1.4142707,0.95703125
1.4491727,0.9423828125
1.4703893,0.927734375
1.4774609,0.9326171875
1.4972933,0.947265625
1.5478754,1.015625
1.548408,1.1279296875
1.5594195,1.2744140625
1.5755464,1.416015625
1.6123336,1.5576171875
1.616401,1.6748046875
1.6565355,1.748046875
1.657055,1.8017578125
1.7043155,1.8212890625
1.7046459,1.826171875
1.7171224,1.806640625
1.7504573,1.7724609375
1.7708349,1.71875
1.7749967,1.6650390625
1.8091024,1.611328125
1.830174,1.5673828125
1.8379111,1.5283203125
1.87781,1.4990234375
1.87811,1.474609375
1.9156835,1.4501953125
1.9177612,1.42578125
1.9342386,1.3916015625
1.9689629,1.3720703125
1.9890395,1.3427734375
1.9961538,1.3134765625
2.0335358,1.279296875
2.0380447,1.240234375
2.0724851,1.2060546875
2.0930965,1.1767578125
2.0997876,1.142578125
2.1362673,1.1181640625
2.1367166,1.0888671875
2.1761356,1.07421875
2.2072671,1.0546875
2.2076106,1.03515625
2.2179954,1.005859375
2.2396354,0.9912109375
2.2756006,0.966796875
2.2809273,0.947265625
2.3171238,0.9423828125
2.3175864,0.9765625
2.3527132,1.07421875
2.3564144,1.201171875
2.3899608,1.3525390625
2.4104122,1.484375
2.4192305,1.611328125
2.4689836,1.69921875
2.4692872,1.767578125
2.4757185,1.8017578125
2.5098526,1.8310546875
2.5310721,1.8359375
2.5371297,1.806640625
2.578098,1.767578125
2.5785443,1.7138671875
2.5984307,1.650390625
2.6336683,1.5966796875
2.6542936,1.552734375
2.6548065,1.513671875
2.7035251,1.494140625
2.7038201,1.46484375
2.7247841,1.4404296875
2.7383352,1.4111328125
2.7751073,1.38671875
2.7767874,1.3525390625
2.8104586,1.318359375
2.8311227,1.2744140625
2.8422827,1.2158203125
2.8579417,1.162109375
2.8932812,1.1474609375
2.8970559,1.123046875
2.9311021,1.103515625
2.952071,1.083984375
2.9579057,1.064453125
2.9933326,1.0546875
3.0150404,1.0400390625
3.0192773,1.0302734375
3.0359366,1.0205078125
3.0731799,1.005859375
3.0774073,0.986328125
3.1118029,0.966796875
3.1310717,0.95703125
3.1386504,0.9765625
3.1719271,1.044921875
3.191832,1.162109375
3.201152,1.3037109375
3.2174807,1.435546875
3.2630169,1.5673828125
3.2633141,1.6650390625
3.2801731,1.748046875
3.2988563,1.787109375
3.3404988,1.8115234375
3.3407981,1.806640625
3.3615025,1.7919921875
3.3767637,1.748046875
3.4141072,1.7041015625
3.4166611,1.650390625
3.4648492,1.6015625
3.4652409,1.5625
3.4803316,1.5283203125
3.5267725,1.4990234375
3.5273172,1.4892578125
3.5403514,1.474609375
3.5558048,1.4501953125
3.6048835,1.42578125
3.6053557,1.396484375
3.6341221,1.3623046875
3.6385051,1.3232421875
3.6614042,1.2841796875
3.7119748,1.2451171875
3.7123801,1.2060546875
3.720696,1.171875
3.757849,1.1376953125
3.7583067,1.11328125
3.7957579,1.0986328125
3.7985943,1.0888671875
3.8347633,1.07421875
3.8375568,1.0595703125
3.8734295,1.0400390625
3.8930146,1.025390625
3.9011026,1.0009765625
3.9437289,0.9814453125
3.9440336,0.9619140625
3.9593039,0.966796875
3.9963104,0.99609375
3.9995001,1.0791015625
4.0363369,1.19140625
4.0426424,1.3330078125
4.0615736,1.455078125
4.0970692,1.572265625
4.115843,1.650390625
4.1187484,1.7138671875
4.1560422,1.7431640625
4.1590745,1.7626953125
4.2075041,1.7529296875
4.2078026,1.71875
4.2219414,1.6748046875
4.2427206,1.6162109375
4.2783331,1.5673828125
4.2786323,1.5283203125
4.3157665,1.50390625
4.318512,1.484375
4.355122,1.46484375
4.3592999,1.4453125
4.3953763,1.4208984375
4.4263646,1.3916015625
4.4267565,1.3671875
4.4423728,1.3330078125
4.4619195,1.279296875
4.4978222,1.23046875
4.4981226,1.201171875
4.5357352,1.1767578125
4.5398234,1.1572265625
4.5746123,1.1376953125
4.5965276,1.1181640625
4.6023636,1.103515625
4.6396022,1.083984375
4.6440513,1.064453125
4.6601092,1.044921875
4.6796878,1.0302734375
4.7219686,1.0107421875
4.7224337,0.9912109375
4.7426638,0.9765625
4.77878,0.9716796875
4.7812255,0.99609375
4.8159131,1.083984375
4.8446656,1.201171875
4.8451144,1.3232421875
4.859245,1.455078125
4.907331,1.5576171875
4.9076944,1.640625
4.9287293,1.689453125
4.9423574,1.71875
4.9627309,1.728515625
5.0042286,1.71875
5.004546,1.6845703125
5.0198094,1.6455078125
5.0561285,1.5966796875
5.0591792,1.552734375
5.0975798,1.513671875
5.1017834,1.4794921875
5.1416212,1.455078125
5.1421352,1.4306640625
5.177734,1.4111328125
5.2048996,1.38671875
5.2053751,1.3671875
5.2198464,1.337890625
5.2409234,1.30859375
5.2751469,1.26953125
5.296795,1.2353515625
5.3024918,1.201171875
5.3447733,1.1669921875
5.3450871,1.1328125
5.3898076,1.1083984375
5.3902773,1.083984375
5.3998267,1.07421875
5.4335401,1.0595703125
5.4559725,1.044921875
5.4609204,1.0302734375
5.4950438,1.0107421875
5.5171557,0.9912109375
5.5224379,0.9716796875
5.5621827,0.9521484375
5.5626457,0.9521484375
5.5920605,0.986328125
5.6020336,1.064453125
5.6376825,1.1865234375
5.642337,1.3134765625
5.6764524,1.4453125
5.6972344,1.5625
5.7026358,1.66015625
5.7202897,1.728515625
5.7400255,1.7724609375
5.7747154,1.796875
5.7953083,1.7919921875
5.8013071,1.7724609375
5.8241173,1.7333984375
5.8430199,1.689453125
5.8787308,1.6357421875
5.9032899,1.591796875
5.9036583,1.5478515625
5.9216755,1.5283203125
5.9624429,1.50390625
5.9627613,1.484375
5.9832973,1.4599609375
6.0187682,1.4306640625
6.0215836,1.4013671875
6.0736658,1.3671875
6.0744052,1.328125
6.1025883,1.279296875
6.1050204,1.2353515625
6.1205533,1.2109375
6.1533478,1.19140625
6.1728248,1.1669921875
6.18339,1.1474609375
6.2177127,1.1279296875
6.2224724,1.11328125
6.2571354,1.0986328125
6.2895032,1.0888671875
6.2900138,1.07421875
6.3026577,1.064453125
6.3510093,1.0498046875
6.3513676,1.03515625
6.3642719,1.0107421875
6.4145515,0.9912109375
6.4148625,0.9765625
6.4241856,0.9814453125
6.4755315,1.0400390625
6.4758928,1.1328125
6.48109,1.26953125
6.5216904,1.396484375
6.5221526,1.5185546875
6.5685973,1.6064453125
6.5690753,1.6845703125
6.5894119,1.71875
6.604215,1.748046875
6.6200158,1.748046875
6.6618695,1.73828125
6.6621997,1.7041015625
6.7076572,1.66015625
6.7080619,1.611328125
6.7234737,1.572265625
6.7698425,1.5380859375
6.7702555,1.50390625
6.7853351,1.484375
6.8010445,1.4599609375
6.836242,1.4453125
6.8567587,1.42578125
6.8617784,1.4013671875
6.8981526,1.3720703125
6.9043123,1.3427734375
6.9237976,1.30859375
6.9585468,1.26953125
6.9802442,1.2353515625
6.9865223,1.201171875
7.0037216,1.1669921875
7.0387822,1.1474609375
7.041175,1.1279296875
7.0811834,1.1083984375
7.1116236,1.0888671875
7.1120929,1.0693359375
7.1246915,1.0595703125
7.1457572,1.044921875
7.1805309,1.025390625
7.1809638,1.005859375
7.2205511,0.9912109375
7.2517684,0.9716796875
7.2521258,0.966796875
7.2635766,0.9814453125
7.3133506,1.0498046875
7.3137782,1.15234375
7.3254994,1.2841796875
7.3415053,1.40625
7.3914937,1.533203125
7.391891,1.630859375
7.4234095,1.6943359375
7.4238108,1.7333984375
7.4595071,1.748046875
7.4851779,1.7529296875
7.485591,1.7333984375
7.5228074,1.69921875
7.5230536,1.6455078125
7.5574899,1.6015625
7.5628384,1.5576171875
7.5960616,1.5185546875
7.6180299,1.4892578125
7.6255131,1.474609375
7.6593013,1.4501953125
7.6806348,1.42578125
7.6849499,1.396484375
7.7058902,1.3623046875
7.742322,1.30859375
7.742723,1.2744140625
7.782427,1.25
7.7828239,1.2158203125
7.8285048,1.1865234375
7.8288852,1.15234375
7.8483832,1.123046875
7.8668221,1.0986328125
7.902476,1.0888671875
7.9028929,1.0693359375
7.9399738,1.064453125
7.9447242,1.0546875
7.9637849,1.0400390625
7.9973021,1.0205078125
8.0188246,1.0107421875
8.0253868,0.99609375
8.0603423,0.9716796875
8.0666281,0.95703125
8.0844241,0.95703125
8.1015575,1.0009765625
8.1362414,1.083984375
8.1564799,1.2109375
8.1635936,1.337890625
8.1974691,1.4697265625
8.2190959,1.572265625
8.2272274,1.6552734375
8.2421427,1.7041015625
8.2770171,1.748046875
8.2991119,1.7578125
8.3037962,1.7529296875
8.3404836,1.73828125
8.3461388,1.6943359375
8.3931936,1.6455078125
8.3935102,1.5966796875
8.404941,1.5576171875
8.4224961,1.5234375
8.4706213,1.50390625
8.4708807,1.4794921875
8.4901707,1.4599609375
8.5066579,1.4306640625
8.5246792,1.40625
8.5595763,1.3720703125
8.5806684,1.3427734375
8.585677,1.3037109375
8.6227957,1.2646484375
8.623241,1.2255859375
8.658835,1.2060546875
8.6882931,1.1767578125
8.6887678,1.15234375
8.7052091,1.1279296875
8.7412394,1.1083984375
8.7647302,1.0888671875
8.7676594,1.07421875
8.7873577,1.064453125
8.8042841,1.0498046875
8.8398624,1.0400390625
8.8453499,1.0205078125
8.8660799,1.0009765625
8.9030559,0.9765625
8.9049165,0.95703125
8.9377745,0.9375
8.9586032,0.9228515625
8.9670261,0.9375
8.9834316,0.9912109375
9.0198138,1.1083984375
9.0255744,1.240234375
9.0608435,1.3818359375
9.066166,1.494140625
9.1013159,1.5869140625
9.1070097,1.650390625
9.1518725,1.69921875
9.1523273,1.7138671875
9.1652976,1.728515625
9.2022058,1.7138671875
9.2070051,1.6845703125
9.2276078,1.640625
9.2468588,1.591796875
9.291526,1.5478515625
9.2918305,1.513671875
9.3074509,1.4892578125
9.3290582,1.46484375
9.349237,1.4208984375
9.3649653,1.3818359375
9.402178,1.3671875
9.40433,1.34765625
9.4375993,1.328125
9.4581862,1.2939453125
9.466112,1.2646484375
9.5010813,1.23046875
9.5207241,1.1962890625
9.5236001,1.162109375
9.556949,1.142578125
9.5780519,1.1181640625
9.5863522,1.103515625
9.6206019,1.0888671875
9.6409163,1.07421875
9.6489919,1.064453125
9.6941444,1.0595703125
9.6944365,1.0546875
9.7045907,1.044921875
9.7406052,1.0400390625
9.7617441,1.025390625
9.7666286,1.005859375
9.801226,0.9912109375
9.822417,1.0009765625
9.8277955,1.044921875
9.8652089,1.1376953125
9.8655262,1.2548828125
9.9129153,1.396484375
9.913369,1.513671875
9.925411,1.6259765625
9.9745705,1.7041015625
9.9750289,1.748046875
10.0059202,1.77734375
10.006223,1.7822265625
10.0520443,1.7724609375
10.0524674,1.7431640625
10.0676639,1.7041015625
10.08527,1.6552734375
10.1305018,1.6064453125
10.1313739,1.5673828125
10.1603044,1.533203125
10.1668257,1.5087890625
10.206849,1.4892578125
10.227322,1.46484375
10.2303555,1.435546875
10.2660174,1.4111328125
10.2664188,1.3720703125
10.2988439,1.3427734375
10.3205066,1.30859375
10.3284015,1.2744140625
10.3641583,1.240234375
10.3690774,1.2060546875
10.4045802,1.171875
10.4106656,1.1474609375
10.4258525,1.123046875
10.4606551,1.11328125
10.4659618,1.09375
10.5007701,1.083984375
10.5218045,1.07421875
10.528856,1.064453125
10.5683394,1.0498046875
10.5686396,1.03515625
10.6139923,1.0107421875
10.6144653,0.986328125
10.6327898,0.9716796875
10.6469836,0.9716796875
10.681933,1.0107421875
10.7028082,1.0888671875
10.7081376,1.2158203125
10.7441704,1.3427734375
10.7494541,1.46484375
10.7668083,1.5673828125
10.8073092,1.6552734375
10.8077928,1.7041015625
10.8430762,1.7333984375
10.8462023,1.7431640625
10.8815321,1.7333984375
10.9027614,1.7138671875
10.908928,1.6748046875
10.9469194,1.6259765625
10.9513831,1.5771484375
10.9717301,1.5234375
10.9869377,1.474609375
11.0271758,1.46484375
11.0274312,1.4453125
11.074354,1.4306640625
11.074602,1.40625
11.0896823,1.3818359375
11.1373918,1.34765625
11.1382603,1.3134765625
11.1473909,1.2744140625
11.1834169,1.2451171875
11.1853991,1.2060546875
11.2317619,1.181640625
11.2321572,1.15234375
11.2496368,1.123046875
11.2869049,1.09375
11.2911492,1.0693359375
11.3263764,1.0498046875
11.3267268,1.0302734375
11.3615737,1.025390625
11.3665579,1.0205078125
11.4011408,1.0107421875
11.4219372,0.99609375
11.4292236,0.9765625
11.479857,0.95703125
11.4802543,0.947265625
11.486424,0.927734375
11.5216629,0.9375
11.5268652,0.9814453125
11.5738243,1.064453125
11.5740718,1.19140625
11.6047534,1.3232421875
11.6077114,1.455078125
11.6506063,1.5576171875
11.6510174,1.640625
11.6719563,1.6943359375
11.6877683,1.7333984375
11.7225956,1.748046875
11.743125,1.7529296875
11.7476879,1.728515625
11.793433,1.6943359375
11.7938328,1.6455078125
11.811777,1.6015625
11.8466183,1.5576171875
11.849979,1.533203125
11.8842096,1.5087890625
11.9051016,1.4794921875
11.9080009,1.46484375
11.9435358,1.4404296875
11.9635677,1.4111328125
11.9683623,1.3818359375
12.0094274,1.34765625
12.040068,1.30859375
12.0405331,1.26953125
12.0451879,1.2353515625
12.0800558,1.2060546875
12.1015554,1.171875
12.1086446,1.1474609375
12.1309747,1.123046875
12.1660289,1.1083984375
12.1733687,1.09375
12.1920809,1.0791015625
12.227283,1.0693359375
12.2276865,1.0546875
12.2694451,1.044921875
12.2698021,1.0302734375
12.2902222,1.015625
12.3275884,0.99609375
12.3306248,0.9814453125
12.3775402,0.9814453125
12.3779439,1.03515625
12.3983256,1.123046875
12.4086423,1.25
12.4289097,1.3818359375
12.4647121,1.50390625
12.4706733,1.5966796875
12.5064497,1.6748046875
12.5109718,1.7236328125
12.5455473,1.7431640625
12.5508035,1.748046875
12.5830234,1.73828125
12.5934761,1.689453125
12.6087648,1.630859375
12.6434225,1.6064453125
12.6638364,1.5673828125
12.6696599,1.5380859375
12.6912272,1.513671875
12.7292461,1.4892578125
12.7298369,1.46484375
12.7669283,1.4453125
12.797825,1.416015625
12.7982252,1.396484375
12.8096159,1.3671875
12.8445857,1.3330078125
12.8485825,1.298828125
12.88243,1.259765625
12.9050171,1.220703125
12.913352,1.1865234375
12.9492068,1.1572265625
12.9494678,1.1279296875
12.9839959,1.11328125
12.9890344,1.09375
13.0262173,1.0888671875
13.0288222,1.07421875
13.0640462,1.064453125
13.0942835,1.0498046875
13.094533,1.0302734375
13.106804,1.005859375
13.1404295,0.99609375
13.1611106,0.9765625
13.1710386,0.9619140625
13.1913157,0.966796875
13.2270152,1.0107421875
13.2318343,1.1083984375
13.2684358,1.23046875
13.2728967,1.3720703125
13.289032,1.4892578125
13.3241191,1.5966796875
13.3304362,1.6748046875
13.378556,1.728515625
13.3789298,1.7529296875
13.3904847,1.7626953125
13.4268118,1.7529296875
13.4573344,1.7236328125
13.4577931,1.6796875
13.4743278,1.62109375
13.5184344,1.5673828125
13.5187312,1.5234375
13.532592,1.4990234375
13.5521549,1.474609375
13.586294,1.455078125
13.5909672,1.4306640625
13.6280412,1.4111328125
13.6586667,1.376953125
13.6590415,1.3427734375
13.6699346,1.2939453125
13.7079849,1.259765625
13.7084443,1.2158203125
13.7444456,1.1669921875
13.7649851,1.11328125
13.7730318,1.083984375
13.8137323,1.0498046875
13.8142217,1.015625
13.8497734,0.986328125
13.8502306,0.9619140625
13.8842307,0.947265625
13.9060759,0.9326171875
13.9113357,0.9228515625
13.9469441,0.91796875
13.9512065,0.908203125
13.9905923,0.9033203125
13.9909314,0.8935546875
14.0098004,0.87890625
14.0462177,0.87890625
14.0502307,0.8740234375
14.0853809,0.869140625
14.1074499,0.8935546875
14.1119977,0.947265625
14.1485926,1.064453125
14.1757975,1.1962890625
14.1764725,1.3525390625
14.1943506,1.474609375
14.2143732,1.5673828125
14.2316769,1.630859375
14.2515,1.708984375
14.2860236,1.748046875
14.3071276,1.7724609375
14.3141042,1.767578125
14.3351979,1.7529296875
14.3547649,1.71875
14.3757457,1.669921875
14.3904134,1.6162109375
14.4282965,1.5869140625
14.433009,1.5576171875
14.4671731,1.533203125
14.4727627,1.5087890625
14.4924702,1.484375
14.52902,1.455078125
14.5340409,1.42578125
14.5761479,1.396484375
14.5764442,1.357421875
14.5919394,1.328125
14.6275574,1.2939453125
14.6325996,1.2548828125
14.666583,1.2158203125
14.6882484,1.1865234375
14.6930913,1.15234375
14.7444894,1.123046875
14.7449629,1.0986328125
14.7526072,1.07421875
14.7716132,1.0595703125
14.8062018,1.044921875
14.8138074,1.0400390625
14.8322002,1.0302734375
14.8670527,1.025390625
14.8888591,1.0107421875
14.8942485,0.99609375
14.9109376,0.9765625
14.9313294,0.966796875
14.9676405,0.9423828125
14.9964588,0.9326171875
14.996938,0.9228515625
15.0127483,0.9423828125
15.0472962,1.005859375
15.0742356,1.1279296875
15.0745364,1.2646484375
15.1218192,1.3916015625
15.1222223,1.5087890625
15.1313765,1.591796875
15.1669755,1.66015625
15.1874988,1.6943359375
15.1944706,1.71875
15.2145908,1.7138671875
15.2603471,1.689453125
15.2607415,1.650390625
15.2763385,1.611328125
15.2908748,1.5625
15.3297834,1.533203125
15.3302482,1.50390625
15.3686432,1.484375
15.3983113,1.4697265625
15.3986053,1.455078125
15.4149428,1.435546875
15.4486688,1.4111328125
15.4681867,1.3818359375
15.469975,1.3427734375
15.5043425,1.3134765625
15.5248359,1.2744140625
15.5327694,1.2353515625
15.5700543,1.201171875
15.5909489,1.171875
15.5935802,1.142578125
15.6330355,1.1181640625
15.6334894,1.0986328125
15.6640685,1.09375
15.6749848,1.0791015625
15.692952,1.07421875
15.7418908,1.064453125
15.7422504,1.0498046875
15.753714,1.03515625
15.7908257,1.0107421875
15.8191823,0.9912109375
15.8195756,0.9716796875
15.8370116,0.9423828125
15.8527031,0.9375
15.8874198,1.005859375
15.89223,1.11328125
15.9291292,1.25
15.9500824,1.3818359375
15.9552854,1.5087890625
15.9912317,1.6064453125
15.9961698,1.6796875
16.030911,1.7333984375
16.0517885,1.7578125
16.0521257,1.7724609375
16.0856165,1.7626953125
16.1071675,1.7431640625
16.1155266,1.6943359375
16.1512126,1.6455078125
16.1560047,1.591796875
16.1926673,1.552734375
16.1937222,1.513671875
16.2123599,1.4892578125
16.2492812,1.46484375
16.2692766,1.4404296875
16.2736461,1.4111328125
16.3119574,1.38671875
16.3323379,1.34765625
16.3382133,1.318359375
16.3735397,1.2841796875
16.3739332,1.25
16.4200875,1.220703125
16.4205431,1.19140625
16.4349447,1.162109375
16.4694904,1.1328125
16.4978302,1.1083984375
16.4981283,1.0791015625
16.5170191,1.0546875
16.5317625,1.03515625
16.5665968,1.0205078125
16.58761,1.005859375
16.5930048,0.9912109375
16.6296497,0.9765625
16.6344748,0.9619140625
16.6694523,0.947265625
16.6986122,0.9326171875
16.6989018,0.947265625
16.7450662,1.0009765625
16.7455111,1.11328125
16.7538748,1.23046875
16.7898592,1.376953125
16.794454,1.4892578125
16.8388576,1.5869140625
16.8393012,1.6552734375
16.8678436,1.7041015625
16.8763962,1.7236328125
16.9163172,1.7333984375
16.9166152,1.7236328125
16.9380685,1.7041015625
16.9553848,1.66015625
16.9758076,1.6162109375
17.0254561,1.572265625
17.0258317,1.5283203125
17.0358747,1.4990234375
17.0879671,1.4697265625
17.0883641,1.4453125
17.0927387,1.416015625
17.1347404,1.396484375
17.1352074,1.3671875
17.1537229,1.3330078125
17.1968263,1.298828125
17.1973993,1.259765625
17.2193035,1.220703125
17.2368599,1.1865234375
17.2545043,1.1474609375
17.2906825,1.1279296875
17.294707,1.11328125
17.3303537,1.09375
17.3349901,1.07421875
17.3721473,1.064453125
17.3747666,1.0595703125
17.4105178,1.0498046875
17.4324743,1.03515625
17.4328832,1.025390625
17.4691747,1.015625
17.474032,0.966796875
17.5107276,0.966796875
17.5153394,0.95703125
17.5480729,0.9716796875
17.569611,1.015625
17.5761392,1.11328125
17.6099286,1.23046875
17.6312767,1.3671875
17.6386771,1.494140625
17.6540084,1.5869140625
17.6878309,1.669921875
17.708218,1.7138671875
17.7148391,1.7431640625
17.7566918,1.7431640625
17.7571462,1.73828125
17.7760287,1.7041015625
17.8098831,1.66015625
17.8320227,1.6064453125
17.8371986,1.5673828125
17.8566842,1.5283203125
17.8959875,1.5087890625
17.8963076,1.484375
17.9309439,1.4697265625
17.9516023,1.4501953125
17.9593292,1.4208984375
18.0057563,1.396484375
18.0060672,1.3671875
18.0152366,1.3427734375
18.0539265,1.30859375
18.0855603,1.2744140625
18.0858655,1.240234375
18.0972928,1.2109375
18.1467979,1.1767578125
18.1473258,1.15234375
18.154581,1.123046875
18.1886209,1.11328125
18.2091558,1.0986328125
18.2172515,1.09375
18.2518251,1.07421875
18.2567962,1.0595703125
18.2922925,1.0400390625
18.2985742,1.015625
18.3485801,0.99609375
18.3489103,0.9765625
18.3588095,0.9716796875
18.3759472,1.005859375
18.4105802,1.0986328125
18.4320859,1.2158203125
18.4370088,1.34765625
18.4887108,1.46484375
18.48917,1.5673828125
18.4969795,1.640625
18.532264,1.689453125
18.5643992,1.7138671875
18.5648602,1.7236328125
18.5761193,1.7236328125
18.6120161,1.6943359375
18.6173763,1.6552734375
18.6558492,1.6064453125
18.6563782,1.5625
18.7041007,1.5185546875
18.704405,1.4892578125
18.7248667,1.4599609375
18.735883,1.4404296875
18.7735425,1.4111328125
18.7760892,1.3916015625
18.8121449,1.357421875
18.8325487,1.3330078125
18.8376078,1.2939453125
18.8724114,1.259765625
18.8940569,1.2158203125
18.8957133,1.19140625
18.9351551,1.162109375
18.9355556,1.1328125
18.9825229,1.1083984375
18.9828226,1.0888671875
19.0030451,1.07421875
19.0177636,1.0546875
19.052171,1.0400390625
19.0736418,1.025390625
19.0804037,1.015625
19.0956133,0.9716796875
19.1319155,0.9619140625
19.1519998,0.95703125
19.1567574,0.95703125
19.1785426,0.9765625
19.2135337,1.0498046875
19.2358812,1.162109375
19.2406212,1.2841796875
19.2764243,1.4111328125
19.2770018,1.5087890625
19.2981639,1.6015625
19.3178422,1.66015625
19.3537749,1.69921875
19.373896,1.708984375
19.3786796,1.708984375
19.4140865,1.689453125
19.4338449,1.6552734375
19.436685,1.6064453125
19.4781799,1.5673828125
19.4786269,1.5234375
19.5237692,1.494140625
19.5240682,1.46484375
19.5390922,1.4453125
19.5861641,1.42578125
19.5866232,1.4013671875
19.599319,1.376953125
19.6161215,1.3427734375
19.6495847,1.318359375
19.670945,1.2890625
19.6775579,1.259765625
19.7139165,1.2255859375
19.7185928,1.19140625
19.7542149,1.1669921875
19.759792,1.1474609375
19.7778925,1.1279296875
19.8138518,1.123046875
19.8164165,1.1181640625
19.8683975,1.11328125
19.8687121,1.1083984375
19.8992559,1.09375
19.8995538,1.0791015625
19.9375927,1.0693359375
19.9380537,1.0595703125
19.9771868,1.044921875
20.0076676,1.044921875
20.007973,1.0693359375
20.0188065,1.15234375
20.0537509,1.2548828125
20.0588213,1.3818359375
20.1013049,1.494140625
20.1017369,1.5966796875
20.1362603,1.6650390625
20.1418817,1.71875
20.156315,1.73828125
20.1925349,1.7578125
20.2125902,1.7529296875
20.2182127,1.7236328125
20.2402471,1.6845703125
20.2600896,1.640625
20.3017816,1.5869140625
20.3021396,1.54296875
20.3209986,1.5087890625
20.3375592,1.4794921875
20.3807075,1.4599609375
20.3811788,1.435546875
20.3994342,1.4111328125
20.4346803,1.3818359375
20.441108,1.3525390625
20.4874043,1.318359375
20.4877142,1.2841796875
20.5020971,1.25
20.5176273,1.2158203125
20.5661734,1.1865234375
20.5666026,1.1572265625
20.5867871,1.1328125
20.6001731,1.1083984375
20.6454951,1.0888671875
20.6458623,1.0791015625
20.6605585,1.064453125
20.6779115,1.0498046875
20.7136582,1.044921875
20.7176157,1.0009765625
20.7537423,1.0009765625
20.7724087,0.9912109375
20.779111,0.99609375
20.8157644,1.015625
20.8208437,1.09375
20.8565142,1.2060546875
20.8627753,1.3232421875
20.8990837,1.4501953125
20.8995355,1.552734375
20.9339056,1.6455078125
20.9559279,1.7041015625
20.9606729,1.748046875
21.0029754,1.7626953125
21.0033067,1.7626953125
21.0216646,1.7431640625
21.0685805,1.708984375
21.0691921,1.66015625
21.0788063,1.6162109375
21.1146685,1.5673828125
21.1196134,1.533203125
21.1622137,1.50390625
21.1626546,1.4697265625
21.2100727,1.4453125
21.2105794,1.416015625
21.2238143,1.38671875
21.2371989,1.3525390625
21.2733132,1.3232421875
21.3036545,1.2841796875
21.3040081,1.25
21.321136,1.2109375
21.3561032,1.1767578125
21.36096,1.1376953125
21.3982056,1.1083984375
21.3986058,1.0791015625
21.4340809,1.064453125
21.4390898,1.0498046875
21.4887063,1.0400390625
21.4891023,1.0302734375
21.5023139,1.0205078125
21.5530607,1.0107421875
21.5535022,0.9912109375
21.5622779,0.9765625
21.598193,0.9521484375
21.6036127,0.9375
21.6189276,0.927734375
21.6613537,0.9619140625
21.6618174,1.03515625
21.692815,1.1572265625
21.7029678,1.2890625
21.7211348,1.4208984375
21.7554468,1.5283203125
21.7754063,1.6162109375
21.7833614,1.6796875
21.7993534,1.708984375
21.836388,1.728515625
21.8404117,1.7333984375
21.8774296,1.7138671875
21.8807878,1.6796875
21.9006894,1.6357421875
21.9346502,1.5869140625
21.9555252,1.54296875
21.9583639,1.5087890625
21.9950739,1.494140625
22.0152721,1.4697265625
22.0207117,1.455078125
22.0546702,1.42578125
22.0756375,1.4013671875
22.0835763,1.3623046875
22.1040591,1.3330078125
22.1434996,1.298828125
22.1438473,1.259765625
22.1614494,1.2255859375
22.1958256,1.19140625
22.2012322,1.162109375
22.2365342,1.1328125
22.2562487,1.1083984375
22.2633034,1.0888671875
22.2985415,1.0693359375
22.2989556,1.0595703125
22.3333299,1.0546875
22.3541317,1.015625
22.3595571,1.0205078125
22.3959659,1.0107421875
22.4155273,1.0009765625
22.4236897,0.9912109375
22.4436231,0.9716796875
22.4866325,0.95703125
22.4871029,0.947265625
22.5210776,0.986328125
22.5214483,1.0595703125
22.55992,1.1865234375
22.5603132,1.318359375
22.5951932,1.4501953125
22.6282771,1.552734375
22.6286366,1.6455078125
22.6445743,1.689453125
22.6905689,1.7236328125
22.6908826,1.728515625
22.700715,1.7333984375
22.736797,1.7041015625
22.7574417,1.669921875
22.7622633,1.62109375
22.7973471,1.572265625
22.8017454,1.533203125
22.8479399,1.4990234375
22.8483876,1.474609375
22.8686644,1.4501953125
22.881475,1.4306640625
22.917156,1.40625
22.922234,1.3818359375
22.9598732,1.3525390625
22.9904397,1.318359375
22.990901,1.2841796875
23.0045166,1.2548828125
23.0198709,1.220703125
23.0544259,1.19140625
23.0749794,1.1669921875
23.0805631,1.1376953125
23.1171756,1.11328125
23.1383832,1.09375
23.143386,1.07421875
23.1801879,1.0546875
23.1819527,1.0302734375
23.216051,1.005859375
23.237156,0.9814453125
23.2454134,0.95703125
23.2622471,0.9423828125
23.2985659,0.9228515625
23.3015674,0.927734375
23.3363627,0.9619140625
23.3568358,1.0546875
23.3658742,1.171875
23.4014793,1.3134765625
23.404032,1.4501953125
23.4214196,1.5478515625
23.46758,1.640625
23.4680446,1.69921875
23.4839094,1.73828125
23.5197417,1.7529296875
23.5224867,1.7529296875
23.5592164,1.7333984375
23.565112,1.7041015625
23.5813311,1.6552734375
23.616596,1.6162109375
23.6371296,1.5771484375
23.6431776,1.5478515625
23.6798878,1.5234375
23.6846661,1.50390625
23.7057684,1.484375
23.7245936,1.4599609375
23.7597762,1.435546875
23.7799274,1.4013671875
23.7833529,1.3818359375
23.8237077,1.3525390625
23.8241637,1.318359375
23.8429809,1.2841796875
23.8858619,1.2548828125
23.8861729,1.2158203125
23.9328191,1.1865234375
23.9331677,1.15234375
23.9423461,1.1328125
23.9775581,1.103515625
23.982592,1.083984375
24.0174288,1.0546875
24.0428977,1.0400390625
24.0433032,1.0205078125
24.0883575,0.9912109375
24.0887997,0.966796875
24.1095412,0.947265625
24.1258347,0.947265625
24.1426914,0.986328125
24.1780275,1.0888671875
24.1825137,1.2060546875
24.2175952,1.3330078125
24.2444181,1.4453125
24.2450968,1.5380859375
24.26367,1.5966796875
24.307377,1.6357421875
24.3077668,1.650390625
24.336572,1.650390625
24.3442186,1.6357421875
24.381962,1.591796875
24.382213,1.5380859375
24.4291766,1.484375
24.4296614,1.435546875
24.4596298,1.396484375
24.4671549,1.3720703125
24.4829371,1.34765625
24.5171683,1.337890625
24.5223921,1.3232421875
24.5547676,1.3134765625
24.5766675,1.2890625
24.5867104,1.26953125
24.606414,1.240234375
24.6464302,1.2109375
24.6469801,1.171875
24.6624632,1.142578125
24.7093777,1.1181640625
24.7097253,1.09375
24.7250603,1.0693359375
24.76165,1.0498046875
24.7619743,1.03515625
24.8034546,1.025390625
24.83316,1.015625
24.8336951,1.0009765625
24.8482424,0.986328125
24.8634272,0.9765625
24.8839723,0.966796875
24.9195182,0.95703125
24.9241561,0.9619140625
24.9727815,0.99609375
24.9731557,1.0888671875
24.9862005,1.2158203125
25.0228916,1.3427734375
25.0276843,1.474609375
25.0447517,1.572265625
25.0803665,1.6650390625
25.082886,1.7236328125
25.1267013,1.7529296875
25.1273713,1.7578125
25.1485479,1.7529296875
25.1918863,1.71875
25.1923448,1.6748046875
25.201853,1.62109375
25.2382264,1.5771484375
25.2592965,1.54296875
25.2678426,1.5087890625
25.2844621,1.484375
25.3204306,1.46484375
25.3467863,1.4404296875
25.3471128,1.416015625
25.3910347,1.38671875
25.3913972,1.357421875
25.4041922,1.328125
25.4249499,1.2939453125
25.4452013,1.2548828125
25.4848538,1.220703125
25.4851508,1.1865234375
25.5175491,1.15234375
25.5380014,1.1279296875
25.5425815,1.103515625
25.5775156,1.09375
25.5983499,1.0546875
25.6039118,1.0498046875
25.6386832,1.044921875
25.6603081,1.025390625
25.6667866,1.015625
25.7032726,1.0009765625
25.7080835,1.015625
25.7489123,1.0693359375
25.7493602,1.1767578125
25.7656693,1.2939453125
25.8114222,1.42578125
25.8118769,1.533203125
25.8253344,1.630859375
25.8601221,1.6845703125
25.8891817,1.728515625
25.8895477,1.7431640625
25.9247735,1.748046875
25.9252524,1.728515625
25.9661739,1.7041015625
25.9664533,1.66015625
25.9859464,1.611328125
26.0194307,1.5673828125
26.0412465,1.5283203125
26.0478405,1.4990234375
26.0901583,1.474609375
26.0905875,1.46484375
26.1048617,1.4404296875
26.1506236,1.4208984375
26.1509488,1.396484375
26.1712569,1.3720703125
26.1871532,1.337890625
26.22383,1.30859375
26.2279215,1.26953125
26.2762829,1.2353515625
26.2768318,1.2060546875
26.281713,1.1767578125
26.3177136,1.162109375
26.3394054,1.142578125
26.3462628,1.1279296875
26.3833386,1.1083984375
26.3872591,1.09375
26.4287973,1.07421875
26.4292399,1.0595703125
26.4487804,1.0595703125
26.4920415,1.09375
26.4925026,1.1669921875
26.5054142,1.2890625
26.5416074,1.4013671875
26.5608927,1.5185546875
26.5657959,1.6064453125
26.6006365,1.6845703125
26.6219482,1.728515625
26.6295592,1.73828125
26.6496121,1.73828125
26.6647424,1.7236328125
26.7009257,1.6943359375
26.7210779,1.6552734375
26.7268199,1.6015625
26.7631726,1.552734375
26.7694486,1.513671875
26.8053453,1.4794921875
26.8099722,1.4501953125
26.8271583,1.4208984375
26.8454685,1.40625
26.8965104,1.3818359375
26.8967586,1.3525390625
26.9075702,1.328125
26.9425419,1.2890625
26.9627388,1.2548828125
26.9678292,1.220703125
27.0040488,1.19140625
27.0044914,1.162109375
27.0258795,1.142578125
27.0636936,1.11328125
27.0683225,1.09375
27.1138506,1.0693359375
27.1143466,1.0595703125
27.129692,1.0400390625
27.1644081,1.025390625
27.1648936,1.025390625
27.2054571,1.0693359375
27.2057586,1.1181640625
27.2261983,1.25
27.2629823,1.376953125
27.268072,1.484375
27.314148,1.572265625
27.3151144,1.630859375
27.3290589,1.669921875
27.3497686,1.6796875
27.384682,1.6796875
27.3878433,1.650390625
27.4074492,1.6162109375
27.4433459,1.5673828125
27.4488541,1.513671875
27.4835249,1.46484375
27.4894564,1.42578125
27.5089106,1.396484375
27.5480985,1.376953125
27.5506319,1.3623046875
27.5664356,1.3330078125
27.6092378,1.3134765625
27.6095614,1.2890625
27.631006,1.259765625
27.6491984,1.2255859375
27.6878474,1.19140625
27.6882616,1.1572265625
27.7256629,1.1279296875
27.7261289,1.09375
27.7514865,1.07421875
27.7662246,1.0498046875
27.8001002,1.0302734375
27.8214684,1.0107421875
27.8290722,0.9912109375
27.8778265,0.9716796875
27.8782874,0.95703125
27.890289,0.9521484375
27.9068674,0.95703125
27.9441699,1.0107421875
27.9496128,1.0986328125
27.9674765,1.2255859375
28.0183039,1.34765625
28.0186932,1.46484375
28.0499127,1.552734375
28.0502269,1.611328125
28.0707303,1.640625
28.1104911,1.630859375
28.1109534,1.630859375
28.1303118,1.62109375
28.1499853,1.5869140625
28.1877907,1.5478515625
28.1882596,1.50390625
28.2239194,1.46484375
28.2452455,1.435546875
28.2515368,1.4111328125
28.2705133,1.396484375
28.2876955,1.376953125
28.3218929,1.3671875
28.3290575,1.3427734375
28.3730125,1.318359375
28.3733156,1.2890625
28.3906488,1.259765625
28.4365625,1.2255859375
28.4368993,1.19140625
28.4477055,1.1572265625
28.4831643,1.1376953125
28.4884953,1.11328125
28.5077803,1.0986328125
28.5424555,1.0791015625
28.564471,1.0595703125
28.5717728,1.044921875
28.5914941,1.025390625
28.6374859,1.0107421875
28.6377852,0.9912109375
28.646379,0.9912109375
28.6805725,1.005859375
28.7025645,1.07421875
28.7083375,1.171875
28.7456964,1.30859375
28.7511202,1.42578125
28.7703982,1.54296875
28.7891317,1.62109375
28.8232521,1.689453125
28.8304244,1.728515625
28.849659,1.708984375
28.8874751,1.708984375
28.8877931,1.689453125
28.9218232,1.6552734375
28.9437119,1.6064453125
28.9501891,1.552734375
28.9939056,1.5087890625
28.9941502,1.4697265625
29.0143685,1.4404296875
29.029017,1.42578125
29.0648483,1.40625
29.068817,1.38671875
29.1044687,1.3623046875
29.1256774,1.337890625
29.1305414,1.298828125
29.1530317,1.2744140625
29.1725403,1.240234375
29.1886416,1.201171875
29.2231914,1.171875
29.243206,1.142578125
29.2508126,1.1181640625
29.2857141,1.09375
29.2883833,1.083984375
29.3214777,1.064453125
29.3420369,1.044921875
29.3499558,1.025390625
29.3852621,1.0205078125
29.3872049,1.005859375
29.42141,0.99609375
29.4418219,0.986328125
29.4496789,1.0009765625
29.4902038,1.0693359375
29.4905806,1.171875
29.5286574,1.3037109375
29.5291072,1.4208984375
29.5666524,1.54296875
29.5716638,1.6259765625
29.589534,1.689453125
29.6296354,1.71875
29.6300395,1.728515625
29.6506628,1.71875
29.687189,1.69921875
29.6923506,1.6552734375
29.7251194,1.5869140625
29.745774,1.54296875
29.7479994,1.5087890625
29.7814205,1.474609375
29.8027148,1.455078125
29.811086,1.435546875
29.8486409,1.4111328125
29.8688692,1.38671875
29.873708,1.357421875
29.8921294,1.3232421875
29.9092666,1.2890625
29.9438428,1.259765625
29.9502303,1.2255859375
29.9702922,1.19140625
30.0049567,1.1572265625
30.0267962,1.123046875
30.0328403,1.09375
30.0818433,1.0693359375
30.0821573,1.044921875
30.0891819,1.03515625
30.1284623,1.025390625
30.1287615,1.0107421875
30.1648682,0.99609375
30.186151,0.9765625
30.1909188,0.9716796875
30.2289519,0.947265625
30.2317116,0.9375
30.248716,0.927734375
30.2833188,0.9619140625
30.302725,1.03515625
30.3111439,1.1669921875
30.344603,1.2939453125
30.3660769,1.435546875
30.3716021,1.5380859375
30.4242496,1.6259765625
30.4246132,1.6748046875
30.4293142,1.71875
30.4663253,1.7333984375
30.470537,1.6943359375
30.5074067,1.6748046875
30.5099814,1.6357421875
30.5483935,1.5869140625
30.5707658,1.533203125
30.571232,1.494140625
30.6068307,1.4599609375
30.6265999,1.4404296875
30.6294138,1.4208984375
30.6638556,1.40625
30.6850319,1.3818359375
30.6904512,1.3623046875
30.7267541,1.328125
30.7308693,1.2939453125
30.7656924,1.259765625
30.7864383,1.2158203125
30.7935136,1.171875
30.8107635,1.1328125
30.8466383,1.1083984375
30.8508562,1.0791015625
30.8918261,1.0546875
30.8922949,1.0302734375
30.9294679,1.015625
30.9322519,1.0009765625
30.9665097,0.9912109375
30.9863148,0.9814453125
30.9902921,0.9765625
31.0299868,0.9619140625
31.0302345,0.947265625
31.0655281,0.927734375
31.0858955,0.9228515625
31.0927582,0.9375
31.1393263,0.986328125
31.1397971,1.0986328125
31.1488253,1.2255859375
31.1874099,1.376953125
31.2177264,1.50390625
31.2180752,1.6162109375
31.2329054,1.6845703125
31.2780993,1.7333984375
31.2785227,1.7529296875
31.2926177,1.7529296875
31.3142178,1.7333984375
31.3552512,1.6845703125
31.356188,1.6455078125
31.3697226,1.6064453125
31.4061993,1.5673828125
31.4274865,1.533203125
31.4328379,1.50390625
31.4672103,1.474609375
31.4875483,1.455078125
31.4965749,1.42578125
31.5143778,1.396484375
31.5320539,1.3623046875
31.5662517,1.3330078125
31.5708753,1.298828125
31.6084178,1.2646484375
31.6143042,1.220703125
31.6350696,1.181640625
31.6818537,1.1474609375
31.6821586,1.11328125
31.691692,1.0791015625
31.7282482,1.064453125
31.7308492,1.0546875
31.768274,1.03515625
31.772926,1.0205078125
31.8088834,1.005859375
31.8389296,0.986328125
31.8392278,0.966796875
31.8560546,0.947265625
31.8709594,0.9228515625
31.905821,0.91796875
31.933339,0.91796875
31.9336354,0.966796875
31.9800661,1.064453125
31.9805384,1.2060546875
31.9954652,1.337890625
32.0310117,1.474609375
32.0336994,1.5869140625
32.0500781,1.6552734375
32.0881903,1.7138671875
32.1075249,1.7333984375
32.1116966,1.748046875
32.1466176,1.7333984375
32.1669453,1.7041015625
32.1755261,1.6552734375
32.2111284,1.6064453125
32.2140922,1.552734375
32.2473093,1.5185546875
32.2688713,1.484375
32.2746535,1.46484375
32.2935583,1.4404296875
32.337419,1.4208984375
32.3378759,1.3916015625
32.366799,1.3671875
32.374423,1.3330078125
32.4096425,1.2939453125
32.4153499,1.2548828125
32.432287,1.2158203125
32.4765385,1.1767578125
32.4768712,1.1474609375
32.5079174,1.1181640625
32.5147864,1.0888671875
32.553235,1.0595703125
32.5562751,1.0400390625
32.6010316,1.0205078125
32.6014108,1.0009765625
32.6117188,1.0009765625
32.6329522,0.9912109375
32.6529542,0.9765625
32.6931994,0.9716796875
32.6936456,0.9423828125
32.7134557,0.9228515625
32.7480913,0.8984375
32.7685851,0.888671875
32.771757,0.8984375
32.8073338,0.966796875
32.8123851,1.07421875
32.8482267,1.2255859375
32.8781093,1.357421875
32.8785703,1.494140625
32.8954383,1.5869140625
32.9471024,1.66015625
32.9474698,1.6943359375
32.9577024,1.689453125
32.9728694,1.689453125
33.0230329,1.689453125
33.02335,1.6650390625
33.0342461,1.6162109375
33.0692616,1.572265625
33.0752372,1.5283203125
33.1188948,1.494140625
33.1192048,1.4697265625
33.1483037,1.4501953125
33.1537759,1.4306640625
33.1899739,1.416015625
33.1957152,1.3916015625
33.2420135,1.3623046875
33.2424565,1.3330078125
33.2553421,1.3037109375
33.2910025,1.26953125
33.3213263,1.23046875
33.3216405,1.1962890625
33.3348837,1.1572265625
33.3703805,1.1328125
33.3766237,1.1083984375
33.3946163,1.0888671875
33.4298942,1.0693359375
33.4574135,1.0546875
33.4579078,1.0400390625
33.4921447,1.0302734375
33.4926235,1.015625
33.535403,1.005859375
33.5358074,0.986328125
33.5546582,0.966796875
33.5981668,0.947265625
33.5984835,0.9375
33.617842,0.9521484375
33.635736,1.025390625
33.6692603,1.142578125
33.6908825,1.2744140625
33.6914314,1.416015625
33.7396505,1.533203125
33.739987,1.6259765625
33.7713192,1.6845703125
33.7761626,1.728515625
33.812908,1.73828125
33.8161301,1.73828125
33.8529399,1.7138671875
33.8584551,1.669921875
33.8744815,1.62109375
33.9096676,1.58203125
33.914015,1.5380859375
33.9576995,1.50390625
33.9581603,1.4794921875
33.9840464,1.4599609375
33.9975868,1.435546875
34.0332633,1.4111328125
34.0356212,1.38671875
34.0778228,1.3525390625
34.0782799,1.328125
34.094485,1.2939453125
34.1288729,1.259765625
34.1488181,1.220703125
34.1584941,1.1865234375
34.1775523,1.15234375
34.2152267,1.123046875
34.2156737,1.09375
34.2354791,1.0791015625
34.2727599,1.0595703125
34.2733062,1.0595703125
34.3080043,1.0595703125
34.3287364,1.044921875
34.3365743,1.0302734375
34.3872815,1.0107421875
34.3879687,0.986328125
34.3952435,0.966796875
34.4148287,0.9619140625
34.4497808,0.9716796875
34.4779751,1.0302734375
34.4784251,1.1279296875
34.524103,1.2646484375
34.5244559,1.3916015625
34.5461435,1.5185546875
34.5587971,1.611328125
34.593328,1.66015625
34.597945,1.7138671875
34.616076,1.728515625
34.6357045,1.73828125
34.6782977,1.7236328125
34.6786608,1.69921875
34.6999804,1.650390625
34.7178194,1.6015625
34.7531535,1.552734375
34.757427,1.513671875
34.7745488,1.4794921875
34.8090545,1.4697265625
34.829888,1.4453125
34.8364261,1.42578125
34.8728285,1.396484375
34.8929666,1.3671875
34.8980574,1.328125
34.934443,1.298828125
34.957881,1.259765625
34.9582322,1.2158203125
34.9760136,1.1865234375
35.0115314,1.15234375
35.0170792,1.123046875
35.053908,1.09375
35.0579005,1.0693359375
35.0978046,1.0498046875
35.0982103,1.0302734375
35.145478,1.0107421875
35.1459396,1.0009765625
35.1555678,0.9912109375
35.1918226,0.9814453125
35.1960479,0.966796875
35.2172589,0.9423828125
35.2519722,0.927734375
35.2725199,0.9033203125
35.2794399,0.888671875
35.2947719,0.8935546875
35.3296665,0.9765625
35.3515733,1.083984375
35.3563202,1.23046875
35.3916486,1.3671875
35.4271011,1.494140625
35.4275058,1.58203125
35.4378086,1.6552734375
35.4737275,1.689453125
35.4933895,1.708984375
35.4960295,1.7041015625
35.5155236,1.689453125
35.5511697,1.650390625
35.5834748,1.611328125
35.5837193,1.5576171875
35.5973488,1.5087890625
35.6337334,1.4697265625
35.6542693,1.4404296875
35.6594033,1.416015625
35.6755853,1.396484375
35.7253107,1.3818359375
35.7257094,1.357421875
35.7543209,1.3330078125
35.7560387,1.298828125
35.7790287,1.259765625
35.8137115,1.2255859375
35.8338545,1.19140625
35.8342727,1.1572265625
35.8780146,1.1279296875
35.8784743,1.103515625
35.9071435,1.0791015625
35.9191062,1.0595703125
35.9691122,1.0400390625
35.9695569,1.0302734375
35.9783872,1.015625
36.0157948,1.0009765625
36.0162683,0.986328125
36.0520159,0.9765625
36.0720662,0.95703125
36.0772423,0.9375
36.1233133,0.9228515625
36.1237699,0.9033203125
36.1385098,0.9033203125
36.1863789,0.9375
36.1866889,1.0205078125
36.2005201,1.1376953125
36.236186,1.26953125
36.2366425,1.4013671875
36.2788789,1.5234375
36.2795486,1.6064453125
36.2986703,1.6650390625
36.3193711,1.6943359375
36.3553638,1.7138671875
36.3621888,1.7041015625
36.3961287,1.6796875
36.396723,1.630859375
36.4321908,1.5869140625
36.4392168,1.5380859375
36.4740944,1.50390625
36.4792224,1.474609375
36.5160909,1.4501953125
36.5181576,1.4306640625
36.5527863,1.40625
36.5736068,1.3818359375
36.5762649,1.3525390625
36.6146724,1.3330078125
36.6192069,1.298828125
36.6665714,1.259765625
36.6669648,1.220703125
36.6801193,1.181640625
36.7286387,1.142578125
36.7290979,1.11328125
36.7352297,1.0791015625
36.7697015,1.064453125
36.7910908,1.044921875
36.7982159,1.0302734375
36.8330666,1.0205078125
36.839475,1.015625
36.8856064,1.0009765625
36.8860747,0.9814453125
36.8995587,0.966796875
36.916729,0.9423828125
36.9605047,0.927734375
36.9608949,0.91796875
36.9813767,0.927734375
36.9984452,0.9814453125
37.0325813,1.0888671875
37.0535796,1.2158203125
37.0605319,1.3623046875
37.0808852,1.4794921875
37.1177541,1.58203125
37.1181563,1.650390625
37.1627027,1.7041015625
37.1633135,1.7333984375
37.1795725,1.7333984375
37.2152784,1.7236328125
37.2193013,1.6943359375
37.25475,1.650390625
37.2750081,1.6015625
37.2818193,1.552734375
37.2966992,1.5087890625
37.3321159,1.484375
37.3535527,1.4599609375
37.361779,1.4453125
37.3802687,1.42578125
37.4140518,1.4013671875
37.4339762,1.3720703125
37.4401695,1.3427734375
37.4583622,1.3037109375
37.5048641,1.279296875
37.5053267,1.25
37.5268233,1.220703125
37.5399914,1.19140625
37.5602966,1.1669921875
37.5978562,1.142578125
37.5999678,1.1181640625
37.6372141,1.0986328125
37.6376372,1.083984375
37.6577439,1.0791015625
37.6925216,1.07421875
37.7143816,1.0693359375
37.7193682,1.0595703125
37.7404148,1.0546875
37.7601658,1.0400390625
37.8014441,1.0302734375
37.8016894,1.015625
37.8321015,0.9912109375
37.8434831,0.9619140625
37.8582624,0.9765625
37.8941921,1.0498046875
37.9126225,1.1572265625
37.9209405,1.298828125
37.9708234,1.4306640625
37.9711186,1.5576171875
37.9830273,1.6552734375
38.0325872,1.7333984375
38.0329664,1.7724609375
38.0404108,1.796875
38.0770199,1.8017578125
38.0790708,1.7919921875
38.1147671,1.7529296875
38.1224863,1.7138671875
38.1713138,1.66015625
38.1717905,1.6162109375
38.1842797,1.5771484375
38.1991401,1.54296875
38.2335742,1.5234375
38.2546326,1.4990234375
38.2598442,1.474609375
38.295438,1.4501953125
38.3155826,1.4208984375
38.3228996,1.38671875
38.372656,1.3525390625
38.3731359,1.318359375
38.3786075,1.2939453125
38.4197903,1.2646484375
38.4204252,1.2353515625
38.4578459,1.2158203125
38.4606931,1.1865234375
38.496732,1.171875
38.502204,1.1474609375
38.5433734,1.1376953125
38.5437821,1.1279296875
38.560138,1.123046875
38.5972889,1.11328125
38.6020813,1.1083984375
38.6512831,1.09375
38.6517509,1.083984375
38.6601189,1.064453125
38.6945443,1.044921875
38.7150798,1.0205078125
38.7231885,1.0107421875
38.7389445,1.0205078125
38.7752056,1.09375
38.8071185,1.201171875
38.8075186,1.318359375
38.8216138,1.4453125
38.8571467,1.54296875
38.8623968,1.6259765625
38.883444,1.6748046875
38.9309339,1.708984375
38.9311839,1.7138671875
38.9389981,1.7138671875
38.977924,1.689453125
39.0093157,1.6455078125
39.0095693,1.591796875
39.0215402,1.54296875
39.057588,1.494140625
39.0863409,1.455078125
39.0867732,1.42578125
39.0989176,1.4013671875
39.1329153,1.3818359375
39.1543367,1.3623046875
39.1613656,1.337890625
39.1963867,1.30859375
39.2166781,1.279296875
39.2220725,1.2451171875
39.2730716,1.2158203125
39.2734741,1.1767578125
39.2810808,1.1572265625
39.2998443,1.123046875
39.3358425,1.0986328125
39.3658958,1.0791015625
39.3661409,1.064453125
39.3814173,1.0498046875
39.4162703,1.044921875
39.4376296,1.0400390625
39.4420212,1.0302734375
39.4778575,1.0009765625
39.5081811,0.986328125
39.5084804,0.9814453125
39.5228334,0.9716796875
39.5574193,0.966796875
39.5613028,0.9716796875
39.5974747,1.0205078125
39.6176471,1.1083984375
39.6246949,1.2353515625
39.6415488,1.357421875
39.6763304,1.484375
39.680993,1.572265625
39.7266976,1.6455078125
39.7270163,1.6943359375
39.7438891,1.708984375
39.780172,1.708984375
39.7846322,1.689453125
39.8063509,1.66015625
39.8213551,1.62109375
39.8416014,1.58203125
39.8765081,1.5380859375
39.8821295,1.4990234375
39.9183574,1.4697265625
39.9227014,1.4501953125
39.9589772,1.42578125
39.978224,1.4111328125
39.9802949,1.3818359375
40.0201415,1.3623046875
40.0394858,1.3330078125
40.0426075,1.3037109375
40.0785657,1.2744140625
40.0831234,1.2353515625
40.1034926,1.1962890625
40.138752,1.162109375
40.1589384,1.1279296875
40.1592844,1.103515625
40.2074967,1.083984375
40.2079522,1.0693359375
40.2263025,1.0595703125
40.2429935,1.044921875
40.2795282,1.03515625
40.2845084,1.0205078125
40.3326612,1.005859375
40.3329173,0.9814453125
40.3464866,0.9619140625
40.3665235,0.9423828125
40.3820717,0.9326171875
40.4169988,0.95703125
40.4212634,1.0302734375
40.4552819,1.15234375
40.4750776,1.279296875
40.48381,1.4111328125
40.5226915,1.513671875
40.5230674,1.6015625
40.542783,1.650390625
40.5774927,1.6943359375
40.5830414,1.7041015625
40.6012776,1.69921875
40.6358916,1.6748046875
40.6573689,1.6357421875
40.6646942,1.58203125
40.6993839,1.5380859375
40.7201266,1.494140625
40.7205308,1.455078125
40.7661148,1.4306640625
40.7664144,1.40625
40.79663,1.38671875
40.8027045,1.3623046875
40.8379771,1.337890625
40.8591569,1.3037109375
40.8669697,1.26953125
40.8826586,1.2353515625
40.9027768,1.2060546875
40.9376062,1.1767578125
40.9442384,1.1474609375
40.982651,1.1181640625
40.9830345,1.09375
41.0175925,1.07421875
41.0392803,1.0546875
41.0456895,1.044921875
41.0666246,1.0302734375
41.1018499,1.005859375
41.1022691,1.0009765625
41.1382032,1.0009765625
41.1691032,0.99609375
41.1694995,0.986328125
41.1856879,0.9716796875
41.2306813,0.9619140625
41.2310803,0.95703125
41.2473661,0.986328125
41.2621791,1.0546875
41.3074661,1.1767578125
41.3077141,1.298828125
41.3276917,1.4306640625
41.34375,1.5380859375
41.3851945,1.611328125
41.3855386,1.66015625
41.4310796,1.6845703125
41.4316066,1.689453125
41.452151,1.6796875
41.4650598,1.6650390625
41.4818634,1.6259765625
41.5169068,1.58203125
41.5376784,1.5380859375
41.5448997,1.4990234375
41.5864788,1.46484375
41.5868819,1.4453125
41.6026488,1.42578125
41.6469536,1.4111328125
41.6472027,1.396484375
41.6648842,1.3720703125
41.7010587,1.34765625
41.7057333,1.318359375
41.7270621,1.2841796875
41.7615612,1.25
41.7647351,1.2109375
41.7822225,1.1767578125
41.8162377,1.15234375
41.8373215,1.1279296875
41.8440267,1.1083984375
41.8803015,1.09375
41.8851535,1.0791015625
41.9195531,1.064453125
41.9401578,1.044921875
41.9448706,1.025390625
41.9808321,1.015625
42.007424,1.0009765625
42.0077922,0.9814453125
42.0226607,0.9814453125
42.0580819,1.0107421875
42.0847215,1.0888671875
42.0849942,1.1962890625
42.1330945,1.328125
42.1335501,1.4404296875
42.1621201,1.54296875
42.1624287,1.611328125
42.2102354,1.669921875
42.2106987,1.6943359375
42.2414288,1.708984375
42.246536,1.6943359375
42.2899947,1.669921875
42.2904996,1.630859375
42.3077694,1.58203125
42.3425537,1.5380859375
42.3430066,1.494140625
42.3841978,1.4697265625
42.3845657,1.4453125
42.4066987,1.42578125
42.4436721,1.4013671875
42.4485105,1.376953125
42.4674372,1.357421875
42.4865853,1.3427734375
42.5046482,1.3134765625
42.5549476,1.2939453125
42.5554202,1.26953125
42.5651308,1.2353515625
42.6042399,1.201171875
42.6046398,1.1767578125
42.6470084,1.15234375
42.6473223,1.123046875
42.6840565,1.1083984375
42.688981,1.09375
42.7400245,1.0595703125
42.7405159,1.0546875
42.746561,1.0498046875
42.7808779,1.03515625
42.7857517,1.0205078125
42.8335563,1.0009765625
42.8339542,0.986328125
42.8656845,0.9814453125
42.86601,1.0205078125
42.9131949,1.0986328125
42.9136842,1.220703125
42.9264709,1.357421875
42.9438445,1.4697265625
42.9774382,1.572265625
42.9998969,1.640625
43.0065433,1.6943359375
43.0424758,1.7138671875
43.0697118,1.71875
43.0701665,1.7041015625
43.0870316,1.6845703125
43.1223952,1.6455078125
43.1272239,1.6015625
43.1639053,1.552734375
43.1689234,1.5185546875
43.2036907,1.4892578125
43.2066365,1.46484375
43.2234089,1.4404296875
43.2593241,1.4306640625
43.2804461,1.40625
43.2858123,1.3818359375
43.3211781,1.3525390625
43.342244,1.3232421875
43.3473919,1.2841796875
43.3837217,1.25
43.3861011,1.2109375
43.404109,1.1767578125
43.4392319,1.15234375
43.4595343,1.1279296875
43.4667903,1.103515625
43.5062574,1.083984375
43.5068817,1.0791015625
43.5523417,1.0693359375
43.5527585,1.0546875
43.5678722,1.044921875
43.6147969,1.025390625
43.6150942,1.0107421875
43.6276369,0.986328125
43.6635119,0.9765625
43.6673149,0.966796875
43.7077695,0.9716796875
43.7081029,1.0107421875
43.7432658,1.103515625
43.7642972,1.2158203125
43.7696356,1.34765625
43.7848192,1.455078125
43.8186115,1.5625
43.8390666,1.630859375
43.8469291,1.6796875
43.8829394,1.6943359375
43.8881116,1.7138671875
43.9236702,1.69921875
43.9287527,1.669921875
43.9511917,1.630859375
43.9671122,1.5869140625
44.000187,1.5576171875
44.0064283,1.533203125
44.0497646,1.5234375
44.0502448,1.513671875
44.0702998,1.50390625
44.0880433,1.4892578125
44.1272331,1.4697265625
44.1276099,1.4453125
44.1585188,1.42578125
44.1664865,1.3916015625
44.2019277,1.3623046875
44.2232923,1.328125
44.2280977,1.2939453125
44.2492643,1.2548828125
44.2839083,1.2255859375
44.2891999,1.201171875
44.3089811,1.1767578125
44.3315831,1.1376953125
44.3467855,1.103515625
44.3820279,1.11328125
44.4028802,1.1083984375
44.4076414,1.0986328125
44.4535193,1.0888671875
44.4539193,1.07421875
44.4687949,1.0595703125
44.5037388,1.044921875
44.5318178,1.03515625
44.5325906,1.083984375
44.5465412,1.171875
44.592511,1.279296875
44.5928355,1.40625
44.6134258,1.5234375
44.6305985,1.6259765625
44.649958,1.6943359375
44.6698715,1.748046875
44.6874756,1.7724609375
44.7222941,1.787109375
44.7269298,1.77734375
44.7615016,1.7578125
44.7823953,1.7138671875
44.7871006,1.669921875
44.8218016,1.62109375
44.8437634,1.5771484375
44.8508655,1.54296875
44.8665075,1.513671875
44.9025229,1.494140625
44.908735,1.4697265625
44.9428791,1.4501953125
44.9470624,1.416015625
44.980944,1.38671875
45.0014886,1.3525390625
45.0119944,1.318359375
45.0262786,1.279296875
45.0757545,1.2548828125
45.0762194,1.2255859375
45.0895952,1.201171875
45.1240076,1.1767578125
45.1286536,1.1572265625
45.1615866,1.1328125
45.1828211,1.123046875
45.191039,1.11328125
45.2258798,1.0986328125
45.2303209,1.083984375
45.2660349,1.064453125
45.2687812,1.0546875
45.304312,1.03515625
45.3101615,1.025390625
45.3464851,1.0205078125
45.3486628,1.0400390625
45.3852525,1.103515625
45.4201187,1.2109375
45.4203861,1.328125
45.4294632,1.455078125
45.4651597,1.552734375
45.4677292,1.630859375
45.5047226,1.6943359375
45.5285484,1.7138671875
45.5305448,1.728515625
45.5668222,1.7236328125
45.5722411,1.7041015625
45.588271,1.669921875
45.6246241,1.6259765625
45.6287736,1.58203125
45.6681884,1.5478515625
45.6684414,1.5087890625
45.7139879,1.4892578125
45.7142376,1.4599609375
45.7319215,1.4306640625
45.7471675,1.40625
45.7920172,1.38671875
45.7922641,1.357421875
45.8128811,1.3330078125
45.8296861,1.298828125
45.8697163,1.259765625
45.8701841,1.2255859375
45.90621,1.1865234375
45.9117561,1.15234375
45.9326914,1.123046875
45.9520144,1.083984375
45.9699054,1.044921875
45.9905891,1.044921875
46.0106405,1.03515625
46.030569,1.0205078125
46.0512085,1.0009765625
46.0983292,0.9814453125
46.0987771,0.95703125
46.1130658,0.927734375
46.1603724,0.908203125
46.160772,0.8837890625
46.169957,0.888671875
46.2072473,0.927734375
46.2094743,1.025390625
46.2555612,1.142578125
46.2558936,1.279296875
46.2859715,1.3916015625
46.2932019,1.4892578125
46.3079126,1.552734375
46.3440115,1.611328125
46.3485254,1.630859375
46.3839455,1.640625
46.3893476,1.6259765625
46.4256895,1.6015625
46.4464307,1.552734375
46.4509667,1.513671875
46.4977037,1.4697265625
46.4981033,1.4404296875
46.5084822,1.416015625
46.5606523,1.40625
46.5610624,1.38671875
46.5707434,1.3720703125
46.5920886,1.3623046875
46.6373034,1.337890625
46.6376308,1.30859375
46.6466137,1.279296875
46.6840714,1.2548828125
46.688774,1.2255859375
46.7315115,1.201171875
46.7318018,1.1767578125
46.7612708,1.15234375
46.7709513,1.1376953125
46.8087795,1.1181640625
46.8290468,1.103515625
46.8309275,1.09375
46.8632405,1.083984375
46.8839222,1.0693359375
46.8897355,1.0595703125
46.9241579,1.044921875
46.9463254,1.0400390625
46.951893,1.0302734375
46.9980299,1.03515625
46.9984553,1.0693359375
47.0136247,1.15234375
47.0285731,1.2548828125
47.0778644,1.3818359375
47.0781128,1.484375
47.1070235,1.5869140625
47.1096231,1.650390625
47.1441928,1.689453125
47.1653565,1.708984375
47.1708374,1.708984375
47.216817,1.689453125
47.2172057,1.6552734375
47.236875,1.62109375
47.2482463,1.5771484375
47.2839861,1.5283203125
47.3057567,1.4892578125
47.3129579,1.4599609375
47.3332969,1.435546875
47.373755,1.4111328125
47.3741907,1.38671875
47.3913613,1.3671875
47.4097942,1.34765625
47.4485326,1.3134765625
47.4489503,1.2841796875
47.4862903,1.25
47.5059254,1.2158203125
47.5112296,1.181640625
47.5464339,1.15234375
47.5676016,1.1328125
47.5726692,1.0888671875
47.5920461,1.0546875
47.6376539,1.064453125
47.6379381,1.064453125
47.6520294,1.0595703125
47.6983209,1.0498046875
47.6988631,1.0400390625
47.717542,1.025390625
47.7332659,1.0205078125
47.7689901,1.015625
47.7693974,1.03515625
47.8061416,1.11328125
47.8256782,1.220703125
47.8307683,1.3525390625
47.8661933,1.474609375
47.8995376,1.5869140625
47.8999203,1.6650390625
47.9130537,1.728515625
47.9309688,1.7578125
47.9499532,1.77734375
47.9858619,1.767578125
48.006973,1.7529296875
48.0155394,1.7138671875
48.0337088,1.6650390625
48.0698052,1.62109375
48.0747843,1.572265625
48.091573,1.5380859375
48.1094722,1.5087890625
48.1459568,1.494140625
48.1666435,1.4697265625
48.1722839,1.4501953125
48.20794,1.42578125
48.2132177,1.3916015625
48.249622,1.357421875
48.2524076,1.318359375
48.2714816,1.279296875
48.3081908,1.25
48.313041,1.220703125
48.3318354,1.19140625
48.3543182,1.162109375
48.3720627,1.142578125
48.4185525,1.1279296875
48.4189546,1.11328125
48.434141,1.103515625
48.4565379,1.0888671875
48.47537,1.0791015625
48.4913724,1.064453125
48.5309149,1.0595703125
48.5313085,1.044921875
48.5674245,1.0302734375
48.5727497,1.0205078125
48.6112386,1.025390625
48.6169844,1.064453125
48.6620521,1.162109375
48.6624658,1.2744140625
48.6717625,1.416015625
48.7095091,1.5478515625
48.7097651,1.640625
48.7479098,1.7138671875
48.7520736,1.7578125
48.7861088,1.7919921875
48.8076657,1.7919921875
48.8141729,1.7822265625
48.8318437,1.7529296875
48.8658984,1.7138671875
48.8868202,1.6650390625
48.8909201,1.62109375
48.9291338,1.5771484375
48.9483739,1.552734375
48.9528967,1.5234375
48.9956126,1.4990234375
48.995999,1.46484375
49.0118817,1.4453125
49.0331906,1.416015625
49.0706198,1.38671875
49.0710136,1.3525390625
49.1061361,1.318359375
49.134705,1.2841796875
49.1349738,1.25
49.1690936,1.2109375
49.1974744,1.181640625
49.1977252,1.1279296875
49.2131305,1.09375
49.2583699,1.0888671875
49.2586529,1.0888671875
49.2733409,1.0888671875
49.3207889,1.07421875
49.3211522,1.064453125
49.3357307,1.0595703125
49.380933,1.03515625
49.3813604,1.0205078125
49.391222,0.99609375
49.4277131,0.9912109375
49.4585445,1.0009765625
49.4591617,1.0498046875
49.4747652,1.1328125
49.4952081,1.259765625
49.5359943,1.376953125
49.5363861,1.4990234375
49.5517504,1.58203125
49.5902615,1.66015625
49.5908292,1.7041015625
49.627002,1.7236328125
49.6494549,1.7236328125
49.6549561,1.71875
49.6770461,1.689453125
49.6961263,1.6455078125
49.7160683,1.6015625
49.7328207,1.5576171875
49.7690838,1.5283203125
49.7735174,1.5087890625
49.8102007,1.494140625
49.8302194,1.474609375
49.8348077,1.4501953125
49.8691211,1.4208984375
49.8902706,1.3916015625
49.8933299,1.357421875
49.9298903,1.328125
49.9324505,1.2890625
49.9667478,1.2548828125
50.0016657,1.220703125
50.0019505,1.1865234375
50.0156823,1.162109375
50.0499432,1.1376953125
50.0708439,1.1181640625
50.0759234,1.0986328125
50.1104999,1.083984375
50.1317783,1.064453125
50.1341708,1.0546875
50.172978,1.03515625
50.1930637,1.015625
50.1934626,0.9912109375
50.2324528,0.9765625
50.2526717,0.9619140625
50.2581662,0.9716796875
50.2741208,1.0205078125
50.3092955,1.1328125
50.3140513,1.26953125
50.3591978,1.396484375
50.3596035,1.5185546875
50.3797024,1.6064453125
50.3971596,1.669921875
50.4385665,1.708984375
50.4389644,1.728515625
50.4542241,1.728515625
50.5004037,1.7236328125
50.5006497,1.69921875
50.5209251,1.6552734375
50.5357123,1.6064453125
50.5718638,1.5625
50.5772768,1.5234375
50.6264626,1.494140625
50.6270355,1.4697265625
50.6329022,1.4453125
50.6687435,1.42578125
50.703308,1.4013671875
50.7037055,1.3818359375
50.7149596,1.3525390625
50.7632848,1.3232421875
50.7635811,1.2890625
50.7838746,1.2548828125
50.7974681,1.2255859375
50.8174339,1.171875
50.8344553,1.1279296875
50.8689017,1.123046875
50.8896363,1.11328125
50.8944693,1.103515625
50.9280696,1.09375
50.9487985,1.0888671875
50.9573463,1.0791015625
50.9975179,1.064453125
51.0271785,1.044921875
51.0275935,1.025390625
51.0353204,1.0107421875
51.0749786,0.986328125
51.0753868,0.9716796875
51.0967942,0.9814453125
51.1354709,1.0400390625
51.1357194,1.1376953125
51.1713516,1.26953125
51.1919271,1.396484375
51.1942435,1.5283203125
51.2292672,1.62109375
51.2494248,1.6845703125
51.2575394,1.7333984375
51.2930032,1.7431640625
51.2961337,1.7431640625
51.3310196,1.728515625
51.3512158,1.69921875
51.3542478,1.6455078125
51.3758,1.6015625
51.4118873,1.5576171875
51.4146388,1.5234375
51.4618931,1.494140625
51.4624439,1.4697265625
51.4813366,1.4404296875
51.4992198,1.416015625
51.5144497,1.38671875
51.5331499,1.3623046875
51.5704249,1.3232421875
51.5744866,1.2939453125
51.5969086,1.259765625
51.6330169,1.220703125
51.634906,1.1865234375
51.6803079,1.1572265625
51.6805572,1.123046875
51.7114796,1.0986328125
51.7186142,1.0791015625
51.7354555,1.064453125
51.7716422,1.0595703125
51.8044361,1.0546875
51.8046985,1.0498046875
51.8180286,1.03515625
51.8523097,1.025390625
51.8573503,1.0107421875
51.8925446,0.9912109375
51.9127198,0.9814453125
51.914889,0.9619140625
51.96086,0.966796875
51.9612311,0.99609375
51.991509,1.0791015625
51.9980558,1.19140625
52.0194112,1.328125
52.0380691,1.4453125
52.0726233,1.552734375
52.0930806,1.6259765625
52.0957713,1.6845703125
52.1161415,1.708984375
52.1526945,1.7236328125
52.1571971,1.7138671875
52.1930849,1.689453125
52.1981519,1.6455078125
52.2320105,1.5966796875
52.2522757,1.5478515625
52.2570989,1.50390625
52.3027647,1.474609375
52.3033948,1.4501953125
52.3182318,1.4306640625
52.3641855,1.40625
52.3645622,1.3818359375
52.3779393,1.3525390625
52.4128334,1.3232421875
52.4323844,1.2890625
52.4386203,1.2353515625
52.4558882,1.181640625
52.5034015,1.1669921875
52.5037892,1.142578125
52.5338112,1.1181640625
52.5384589,1.103515625
52.5791975,1.083984375
52.5798583,1.0693359375
52.6171925,1.0546875
52.6194074,1.0498046875
52.6367608,1.03515625
52.6579225,1.0302734375
52.7050405,1.015625
52.7054519,1.005859375
52.7187556,0.9912109375
52.7544771,0.986328125
52.7590834,0.9765625
52.7943896,0.986328125
52.7974534,1.0302734375
52.8323662,1.1376953125
52.836687,1.259765625
52.8730948,1.4013671875
52.8811111,1.5234375
52.8976737,1.611328125
52.9343807,1.6845703125
52.966775,1.7236328125
52.967183,1.748046875
52.9779738,1.7431640625
52.997789,1.73828125
53.033831,1.708984375
53.0513305,1.669921875
53.0576634,1.611328125
53.0784876,1.5625
53.1147302,1.5185546875
53.1361197,1.484375
53.1366316,1.455078125
53.1726034,1.435546875
53.1778702,1.416015625
53.2103918,1.3916015625
53.2330927,1.3623046875
53.2382381,1.328125
53.2593606,1.2939453125
53.2944536,1.2548828125
53.3007226,1.220703125
53.3371626,1.1865234375
53.3417294,1.15234375
53.3592381,1.123046875
53.3785884,1.1083984375
53.4132517,1.0888671875
53.4182966,1.07421875
53.4540237,1.0595703125
53.4746234,1.0498046875
53.4799501,1.0400390625
53.5309315,1.0302734375
53.5312328,1.0205078125
53.5364997,1.0009765625
53.5723717,0.9912109375
53.5777047,0.9716796875
53.6234347,0.9521484375
53.623881,0.9375
53.6453565,0.927734375
53.6591945,0.947265625
53.6952792,1.0205078125
53.7170695,1.1376953125
53.7175195,1.2890625
53.7525626,1.4208984375
53.7741692,1.5478515625
53.7773082,1.6357421875
53.8129266,1.7041015625
53.8423648,1.7431640625
53.8426778,1.7529296875
53.8624073,1.748046875
53.8780698,1.7236328125
53.912947,1.6943359375
53.9193612,1.6455078125
53.9660175,1.5966796875
53.9663978,1.54296875
53.9802046,1.5087890625
54.0271759,1.4697265625
54.0275576,1.4453125
54.042541,1.416015625
54.0611072,1.3671875
54.0789516,1.3232421875
54.1142647,1.30859375
54.1206189,1.279296875
54.1395644,1.259765625
54.1741011,1.2255859375
54.1949351,1.1962890625
54.1994791,1.162109375
54.2335742,1.1279296875
54.2559102,1.0986328125
54.2563451,1.0791015625
54.2938471,1.064453125
54.3147854,1.0546875
54.3194064,1.0400390625
54.3550013,1.025390625
54.361424,1.0205078125
54.3982842,1.005859375
54.4006584,0.99609375
54.4340423,0.9765625
54.4387339,0.966796875
54.4740301,0.9521484375
54.4794745,0.927734375
54.5136732,0.908203125
54.5351467,0.8935546875
54.5421057,0.9033203125
54.5874415,0.9521484375
54.5878251,1.064453125
54.599501,1.19140625
54.6362332,1.3427734375
54.6408913,1.4599609375
54.6770169,1.5625
54.6843784,1.6259765625
54.7010412,1.669921875
54.7215931,1.6796875
54.7581615,1.6796875
54.7584633,1.6552734375
54.7923562,1.6357421875
54.8127739,1.5966796875
54.8198236,1.552734375
54.8644759,1.5087890625
54.8649302,1.474609375
54.8803112,1.4453125
54.9252346,1.4208984375
54.925574,1.4013671875
54.9436635,1.376953125
54.9629149,1.3525390625
54.9790653,1.3232421875
55.017475,1.2939453125
55.0198075,1.259765625
55.0647861,1.23046875
55.065257,1.19140625
55.0797431,1.1572265625
55.1293784,1.1279296875
55.1298355,1.0986328125
55.1478309,1.0693359375
55.1637594,1.0498046875
55.181074,1.0400390625
55.2157549,1.025390625
55.2209129,1.015625
55.2592589,0.99609375
55.2596555,0.986328125
55.3050879,0.9716796875
55.3055067,0.95703125
55.3362358,0.9326171875
55.3408747,0.9228515625
55.3814512,0.9033203125
55.3817083,0.8984375
55.4167426,0.9228515625
55.4205248,1.0009765625
55.4586373,1.1279296875
55.4795161,1.259765625
55.4809561,1.396484375
55.4976521,1.5087890625
55.5371738,1.6015625
55.5560676,1.6552734375
55.5607908,1.689453125
55.5959309,1.69921875
55.6006789,1.689453125
55.6463703,1.6650390625
55.6467743,1.6259765625
55.675934,1.572265625
55.6837529,1.4990234375
55.6993092,1.435546875
55.7393277,1.416015625
55.7701987,1.40625
55.7705966,1.3916015625
55.7815855,1.3720703125
55.8169481,1.3525390625
55.846584,1.3330078125
55.8470528,1.30859375
55.8650814,1.2744140625
55.8807206,1.240234375
55.9247965,1.2109375
55.9254263,1.1767578125
55.9426908,1.1474609375
55.9880417,1.11328125
55.9882931,1.0888671875
56.0032789,1.064453125
56.0386121,1.044921875
56.0388595,1.0205078125
56.071789,1.0107421875
56.0917167,1.005859375
56.1006361,0.986328125
56.1356894,0.9765625
56.1562783,0.95703125
56.1613329,0.9423828125
56.200594,0.9228515625
56.2024322,0.9130859375
56.2212832,0.9130859375
56.2677582,0.966796875
56.2681543,1.0595703125
56.2827102,1.1962890625
56.3184229,1.3330078125
56.3231854,1.4697265625
56.3601151,1.5673828125
56.3913863,1.640625
56.3918008,1.6943359375
56.4011277,1.7138671875
56.4356932,1.71875
56.4407305,1.69921875
56.4827981,1.6748046875
56.4831965,1.630859375
56.5034219,1.58203125
56.537761,1.5283203125
56.5583284,1.494140625
56.5644851,1.4599609375
56.6046598,1.4306640625
56.6049092,1.4013671875
56.6210534,1.3818359375
56.656382,1.3623046875
56.6765173,1.337890625
56.6830535,1.30859375
56.7289361,1.279296875
56.7294461,1.2451171875
56.7496453,1.2109375
56.7632386,1.171875
56.782092,1.1376953125
56.8022438,1.1083984375
56.83835,1.0791015625
56.8423761,1.0595703125
56.8856203,1.044921875
56.8859285,1.025390625
56.9324731,1.0107421875
56.9328696,0.99609375
56.9419222,0.9814453125
56.9628865,0.9765625
56.9976406,0.95703125
57.0023717,0.9423828125
57.038487,0.9228515625
57.0439563,0.8984375
57.0877712,0.888671875
57.0881691,0.8935546875
57.1080854,0.9521484375
57.1206084,1.0498046875
57.1553797,1.201171875
57.1748255,1.3427734375
57.1820232,1.4794921875
57.2284245,1.572265625
57.228827,1.650390625
57.2588986,1.6845703125
57.2644982,1.708984375
57.2856301,1.69921875
57.307207,1.66015625
57.322089,1.6064453125
57.3684445,1.5869140625
57.3688431,1.54296875
57.3878649,1.4990234375
57.4050938,1.46484375
57.4421835,1.435546875
57.4425863,1.4111328125
57.4937282,1.396484375
57.4940516,1.376953125
57.5125656,1.3525390625
57.5236663,1.3330078125
57.5595061,1.30859375
57.5619004,1.279296875
57.5972026,1.240234375
57.6172471,1.2060546875
57.6253932,1.1669921875
57.6646915,1.1328125
57.6649411,1.103515625
57.6816045,1.07421875
57.7166093,1.064453125
57.7377531,1.044921875
57.7427207,1.044921875
57.7789701,1.03515625
57.8072348,1.0302734375
57.8074774,1.015625
57.8417646,1.0009765625
57.8421299,0.9765625
57.879189,0.9716796875
57.8848043,0.9521484375
57.9055842,0.9375
57.9242099,0.9423828125
57.962025,0.986328125
57.9647699,1.0791015625
58.0010779,1.2158203125
58.005592,1.357421875
58.0235342,1.474609375
58.0576351,1.5771484375
58.0627549,1.6455078125
58.1013681,1.689453125
58.121381,1.69921875
58.1260158,1.6943359375
58.1449847,1.669921875
58.1815323,1.630859375
58.2099637,1.58203125
58.2103787,1.5234375
58.222819,1.474609375
58.2568584,1.4404296875
58.2771411,1.4111328125
58.2838737,1.3916015625
58.3170553,1.3720703125
58.3387603,1.3525390625
58.3452617,1.328125
58.3814247,1.298828125
58.3860883,1.26953125
58.4024742,1.2353515625
58.4422674,1.201171875
58.442519,1.1669921875
58.4629352,1.1279296875
58.5005939,1.09375
58.5210869,1.064453125
58.525552,1.0400390625
58.560409,1.0205078125
58.5823433,1.0009765625
58.5826594,0.9912109375
58.6174468,0.9765625
58.6380702,0.966796875
58.6478299,0.95703125
58.6647932,0.9423828125
58.6860755,0.927734375
58.7216925,0.9130859375
58.7258542,0.908203125
58.7598519,0.9130859375
58.7641266,0.966796875
58.799293,1.0595703125
58.8038824,1.1962890625
58.8397843,1.328125
58.8474835,1.4599609375
58.866354,1.5625
58.9004664,1.6552734375
58.9069944,1.7041015625
58.9287673,1.7138671875
58.9640425,1.708984375
58.9644431,1.69921875
59.0031289,1.6796875
59.0036792,1.640625
59.024145,1.5966796875
59.0592032,1.54296875
59.0797487,1.50390625
59.0879611,1.46484375
59.1241868,1.4404296875
59.1246019,1.4208984375
59.1748509,1.4111328125
59.175337,1.3916015625
59.1848555,1.3671875
59.2227488,1.337890625
59.2534198,1.3037109375
59.2538463,1.2646484375
59.2682781,1.23046875
59.288374,1.1865234375
59.3051897,1.1474609375
59.348544,1.1181640625
59.348859,1.0888671875
59.3647261,1.064453125
59.3993039,1.0400390625
59.4204198,1.025390625
59.4253614,1.0107421875
59.4730501,0.9912109375
59.4734452,0.9765625
59.4914894,0.9619140625
59.5058384,0.947265625
59.5247447,0.9326171875
59.5590474,0.91796875
59.5788403,0.908203125
59.587896,0.9326171875
59.6234123,0.9912109375
59.6267902,1.103515625
59.6456773,1.2353515625
59.6643158,1.38671875
59.7018236,1.4990234375
59.7063151,1.5966796875
59.7503517,1.6552734375
59.7505975,1.6943359375
59.7678357,1.7041015625
59.7871181,1.7041015625
59.8218961,1.6796875
59.8425037,1.640625
59.8450066,1.5869140625
59.8790714,1.5380859375
59.8998107,1.4892578125
59.9052358,1.46484375
59.9557439,1.4404296875
59.9561046,1.416015625
59.977083,1.396484375
59.9897234,1.3720703125
60.0088347,1.34765625
60.0261512,1.3232421875
60.0642471,1.298828125
60.0645591,1.26953125
60.1001584,1.240234375
60.1205815,1.201171875
60.1284808,1.171875
60.1474943,1.1376953125
60.190149,1.1083984375
60.1905528,1.0888671875
60.2112039,1.0693359375
60.2243835,1.0595703125
60.2598302,1.0400390625
60.2800751,1.0205078125
60.2875727,1.0009765625
60.3294646,0.986328125
60.3298744,0.966796875
60.3760902,0.947265625
60.3764879,0.9326171875
60.3852775,0.9521484375
60.4219885,1.005859375
60.426141,1.1181640625
60.4615261,1.2451171875
60.4820314,1.38671875
60.4874195,1.4990234375
60.5246193,1.5966796875
60.5291599,1.6552734375
60.5491517,1.6845703125
60.5876093,1.689453125
60.5880077,1.669921875
60.6062867,1.6748046875
60.6425608,1.6455078125
60.6471599,1.6015625
60.6850542,1.5576171875
60.6880403,1.5185546875
60.7244154,1.484375
60.7473189,1.455078125
60.7477434,1.435546875
60.794553,1.42578125
60.7951428,1.4111328125
60.8088676,1.3916015625
60.85814,1.3671875
60.858383,1.337890625
60.8699539,1.30859375
60.9066099,1.2744140625
60.9108795,1.240234375
60.9264921,1.2109375
60.9605492,1.1962890625
60.9818326,1.171875
60.9887277,1.1572265625
61.0242438,1.1376953125
61.0268849,1.1279296875
61.0758888,1.1083984375
61.0762087,1.0986328125
61.0959072,1.0791015625
61.1047019,1.0693359375
61.1535989,1.0546875
61.1540367,1.044921875
61.1736022,1.0400390625
61.187589,1.0791015625
61.221196,1.162109375
61.2421157,1.26953125
61.2518267,1.396484375
61.2670332,1.50390625
61.3093648,1.611328125
61.3096178,1.6796875
61.3284018,1.728515625
61.3482588,1.748046875
61.3848738,1.748046875
61.4060849,1.7333984375
61.4093901,1.69921875
61.444387,1.6552734375
61.4493633,1.611328125
61.4659027,1.5576171875
61.5105849,1.5185546875
61.510974,1.494140625
61.5288219,1.46484375
61.5491006,1.4453125
61.5871189,1.4208984375
61.587501,1.4013671875
61.6246029,1.3720703125
61.6459694,1.3427734375
61.6464283,1.3134765625
61.69531,1.2841796875
61.6958747,1.2548828125
61.7243409,1.2255859375
61.728814,1.1962890625
61.7726216,1.171875
61.772869,1.142578125
61.7903136,1.123046875
61.8088448,1.0986328125
61.8279813,1.09375
61.8626493,1.083984375
61.8666067,1.064453125
61.9006443,1.044921875
61.9222027,1.0302734375
61.9291473,1.015625
61.9744797,1.0107421875
61.9748775,1.0546875
61.9945449,1.1279296875
62.0064843,1.2548828125
62.0406807,1.3818359375
62.0602481,1.5087890625
62.068017,1.6064453125
62.1043543,1.689453125
62.1299784,1.7333984375
62.1304165,1.767578125
62.1656223,1.77734375
62.1702118,1.7626953125
62.1911306,1.71875
62.2062451,1.669921875
62.2393361,1.640625
62.2597904,1.6015625
62.2690437,1.5673828125
62.3040241,1.533203125
62.3245375,1.50390625
62.3298745,1.4794921875
62.3671013,1.455078125
62.3868546,1.4306640625
62.3872668,1.4111328125
62.4272428,1.3818359375
62.4277211,1.3525390625
62.462544,1.318359375
62.4837353,1.2939453125
62.4894576,1.259765625
62.5262085,1.220703125
62.5310769,1.19140625
62.5475579,1.1669921875
62.5830206,1.15234375
62.6133155,1.1328125
62.6135711,1.123046875
62.6307786,1.1083984375
62.6660643,1.0888671875
62.670606,1.07421875
62.7210684,1.0498046875
62.7213841,1.0302734375
62.7279239,1.025390625
62.767917,1.025390625
62.7681595,1.0546875
62.8141212,1.1328125
62.8149215,1.2353515625
62.8335624,1.3720703125
62.8513975,1.484375
62.8901201,1.591796875
62.8905347,1.66015625
62.9089051,1.7236328125
62.9452562,1.7529296875
62.9506622,1.767578125
62.999201,1.7626953125
62.9996018,1.7578125
63.011846,1.71875
63.047727,1.6748046875
63.0518142,1.62109375
63.0870942,1.572265625
63.0873429,1.5283203125
63.1074578,1.50390625
63.1556185,1.4794921875
63.1559878,1.4501953125
63.1859812,1.42578125
63.1901215,1.3916015625
63.2328361,1.3623046875
63.2333045,1.328125
63.2524156,1.2939453125
63.2691446,1.259765625
63.3054745,1.23046875
63.3100436,1.1962890625
63.346214,1.1669921875
63.3789347,1.1376953125
63.3792946,1.11328125
63.3895826,1.0888671875
63.4260904,1.0693359375
63.4548679,1.0595703125
63.4551303,1.0400390625
63.4689408,1.0400390625
63.5027671,1.0302734375
63.5316603,1.0205078125
63.5319129,1.0009765625
63.5644189,0.986328125
63.5857615,0.966796875
63.593053,0.95703125
63.6079446,0.947265625
63.6439919,0.986328125
63.6641833,1.0595703125
63.6710992,1.1865234375
63.6904564,1.318359375
63.7252172,1.4501953125
63.7460829,1.552734375
63.7529322,1.650390625
63.7750022,1.708984375
63.794554,1.73828125
63.8143741,1.7333984375
63.8292806,1.71875
63.8640167,1.7138671875
63.8853823,1.689453125
63.8924871,1.6455078125
63.9283528,1.6015625
63.9331765,1.5576171875
63.9819156,1.5234375
63.9822441,1.494140625
63.989701,1.4697265625
64.0249255,1.455078125
64.0446942,1.435546875
64.0534605,1.4111328125
64.0738616,1.38671875
64.1226616,1.3525390625
64.1230597,1.318359375
64.1323501,1.2841796875
64.1536229,1.25
64.17112,1.2158203125
64.2063681,1.19140625
64.2108976,1.1669921875
64.2457117,1.142578125
64.2499872,1.123046875
64.2850034,1.11328125
64.3050847,1.0986328125
64.3126238,1.0888671875
64.3288399,1.0791015625
64.3703481,1.064453125
64.3706021,1.0498046875
64.4066144,1.03515625
64.4116647,1.025390625
64.4474824,1.0009765625
64.4676252,0.99609375
64.4722882,1.0009765625
64.5126972,1.0498046875
64.5129661,1.142578125
64.5311276,1.279296875
64.5655082,1.4013671875
64.5728479,1.513671875
64.605798,1.5966796875
64.6123359,1.6650390625
64.6493773,1.7041015625
64.6518098,1.7236328125
64.6853609,1.7236328125
64.7062454,1.708984375
64.7164573,1.6796875
64.7302761,1.6357421875
64.7747928,1.591796875
64.7752377,1.5478515625
64.7963236,1.5185546875
64.8141255,1.4892578125
64.8327926,1.46484375
64.8708497,1.435546875
64.8750828,1.4111328125
64.8914504,1.376953125
64.9318664,1.3525390625
64.9321642,1.318359375
64.9661774,1.2890625
64.9876439,1.2548828125
64.9931193,1.220703125
65.039736,1.181640625
65.0400522,1.162109375
65.0600759,1.1328125
65.069793,1.11328125
65.1161049,1.0986328125
65.1164022,1.0888671875
65.1312626,1.07421875
65.1691433,1.0595703125
65.1732527,1.044921875
65.2098859,1.0302734375
65.2144977,1.0107421875
65.2299838,0.986328125
65.2645503,0.9765625
65.2904257,0.9765625
65.2908819,1.015625
65.3284594,1.09375
65.3522833,1.2158203125
65.3527253,1.34765625
65.3989926,1.455078125
65.3995519,1.5576171875
65.4204622,1.6259765625
65.4354863,1.66015625
65.4526875,1.669921875
65.4869074,1.7041015625
65.4928206,1.7041015625
65.5286006,1.6943359375
65.5342331,1.6552734375
65.5705696,1.62109375
65.5729439,1.572265625
65.617866,1.5283203125
65.6181885,1.494140625
65.6393924,1.4697265625
65.6523707,1.4404296875
65.6873613,1.42578125
65.7083854,1.396484375
65.7136559,1.3671875
65.7574588,1.3330078125
65.7577573,1.298828125
65.8056872,1.259765625
65.8060023,1.2255859375
65.8111264,1.201171875
65.8482267,1.171875
65.8541072,1.1376953125
65.8912201,1.1181640625
65.8964526,1.09375
65.9453542,1.07421875
65.9457561,1.064453125
65.9520339,1.0498046875
65.9913999,1.0400390625
65.9917485,1.0302734375
66.0129657,1.0107421875
66.0550143,0.9912109375
66.0553222,0.9765625
66.0907002,0.966796875
66.0924797,0.9619140625
66.1302026,0.986328125
66.1641159,1.0546875
66.1644252,1.171875
66.1734796,1.298828125
66.210022,1.4306640625
66.2154242,1.5380859375
66.2513048,1.6259765625
66.2550023,1.6845703125
66.3036591,1.71875
66.3041289,1.728515625
66.3149162,1.73828125
66.364948,1.71875
66.3652479,1.6796875
66.3858594,1.640625
66.3933881,1.5966796875
66.4294057,1.5478515625
66.4366455,1.513671875
66.4555544,1.484375
66.4908955,1.4599609375
66.5206634,1.435546875
66.5209643,1.40625
66.5342478,1.3818359375
66.5690697,1.3525390625
66.5732185,1.3232421875
66.6152139,1.2890625
66.615675,1.2548828125
66.6372946,1.2255859375
66.6569158,1.19140625
66.6939062,1.162109375
66.6942264,1.1328125
66.7298512,1.1181640625
66.7324721,1.0986328125
66.7727997,1.083984375
66.8032989,1.07421875
66.8035962,1.064453125
66.8159016,1.0498046875
66.8503596,1.0400390625
66.8719651,1.025390625
66.8723559,1.015625
66.9122065,1.0009765625
66.9425224,0.986328125
66.942916,0.9814453125
66.9551676,1.0107421875
66.9914755,1.0888671875
66.9960785,1.19140625
67.0308492,1.3232421875
67.0360732,1.435546875
67.0705532,1.5234375
67.0725258,1.5869140625
67.1061987,1.6650390625
67.1262475,1.708984375
67.1345352,1.7333984375
67.177172,1.7333984375
67.1776323,1.71875
67.2072263,1.6748046875
67.2169497,1.6357421875
67.2333469,1.5869140625
67.2689303,1.5478515625
67.2739443,1.5234375
67.3072586,1.4990234375
67.3275017,1.474609375
67.3345818,1.4501953125
67.3685215,1.42578125
67.3892408,1.4013671875
67.3971655,1.3671875
67.41332,1.328125
67.4490625,1.3037109375
67.4674575,1.26953125
67.4751206,1.2353515625
67.5097923,1.2060546875
67.5303509,1.181640625
67.5362413,1.15234375
67.5727417,1.1376953125
67.5730425,1.1181640625
67.6140997,1.1181640625
67.6143953,1.103515625
67.6454596,1.0888671875
67.6562868,1.07421875
67.7073284,1.0546875
67.7077965,1.03515625
67.7170383,1.015625
67.7537107,1.005859375
67.7541036,1.0107421875
67.7880382,1.064453125
67.8097982,1.1572265625
67.8141488,1.2841796875
67.8502541,1.4013671875
67.8551422,1.513671875
67.8768862,1.5966796875
67.9152043,1.66015625
67.9156985,1.69921875
67.9538596,1.7138671875
67.9587903,1.71875
67.9757349,1.7041015625
68.0172142,1.6796875
68.0176816,1.640625
68.0527032,1.591796875
68.0556004,1.54296875
68.0950675,1.50390625
68.0983937,1.474609375
68.1337677,1.455078125
68.1342118,1.4306640625
68.1702353,1.4111328125
68.1757837,1.38671875
68.2207612,1.357421875
68.2211408,1.3232421875
68.2380755,1.2939453125
68.2732145,1.2548828125
68.2775207,1.2158203125
68.3133782,1.181640625
68.3137782,1.1474609375
68.3607248,1.123046875
68.3611194,1.0986328125
68.3917593,1.083984375
68.3964763,1.064453125
68.432704,1.0498046875
68.468068,1.03515625
68.4684644,1.015625
68.4765449,0.99609375
68.4961379,0.986328125
68.5307651,0.966796875
68.5368881,0.947265625
68.5714972,0.9375
68.5756996,0.927734375
68.6080164,0.9619140625
68.6280153,1.0400390625
68.6368313,1.171875
68.6727787,1.2939453125
68.6800343,1.40625
68.6966652,1.494140625
68.7320434,1.5966796875
68.7376568,1.6552734375
68.7776301,1.6943359375
68.7779714,1.7041015625
68.8134675,1.7041015625
68.8391128,1.6845703125
68.8395632,1.6455078125
68.8850001,1.5966796875
68.885542,1.5576171875
68.8963112,1.5185546875
68.9174917,1.484375
68.9526417,1.455078125
68.9569085,1.42578125
68.9926117,1.396484375
69.0127944,1.3671875
69.0188795,1.3330078125
69.0362748,1.298828125
69.0711692,1.26953125
69.0769294,1.23046875
69.0978808,1.1962890625
69.1345129,1.162109375
69.1390445,1.1376953125
69.1763141,1.1083984375
69.1767121,1.0791015625
69.2143218,1.0595703125
69.2148655,1.03515625
69.2357174,1.025390625
69.2705357,1.0107421875
69.2914479,1.0009765625
69.295686,0.986328125
69.3294173,0.9765625
69.354843,0.95703125
69.3594274,0.9375
69.3759094,0.9130859375
69.4118303,0.908203125
69.4171782,0.8935546875
69.4525032,0.888671875
69.458435,0.908203125
69.4956133,0.9814453125
69.498855,1.09375
69.5362451,1.2353515625
69.5388052,1.376953125
69.5753493,1.4794921875
69.6041542,1.572265625
69.6045498,1.6259765625
69.617937,1.6650390625
69.6532701,1.6796875
69.6581767,1.6845703125
69.6934274,1.6650390625
69.6985598,1.630859375
69.7349664,1.58203125
69.7579949,1.533203125
69.758473,1.484375
69.7764867,1.4599609375
69.7979959,1.4306640625
69.8332764,1.40625
69.8380375,1.38671875
69.8730767,1.357421875
69.8987792,1.328125
69.8995198,1.298828125
69.9375388,1.26953125
69.9379396,1.2353515625
69.9798194,1.2060546875
69.9802142,1.1767578125
70.0248123,1.142578125
70.0252154,1.11328125
70.038311,1.0888671875
70.0711701,1.064453125
70.0915674,1.0400390625
70.0976739,1.025390625
70.1171843,1.015625
70.1526639,1.005859375
70.1579052,1.005859375
70.1941342,0.9912109375
70.1994545,0.9765625
70.2345217,0.9521484375
70.240816,0.9326171875
70.2875179,0.9130859375
70.2878758,0.8935546875
70.3024988,0.8837890625
70.3174231,0.9130859375
70.3666515,1.03515625
70.3669798,1.1669921875
70.3969454,1.30859375
70.399005,1.42578125
70.4348829,1.5234375
70.4410245,1.591796875
70.4768795,1.630859375
70.5065247,1.6552734375
70.5069244,1.650390625
70.5176829,1.640625
70.5526168,1.611328125
70.572895,1.572265625
70.5791413,1.5234375
70.6133498,1.4794921875
70.6355879,1.4404296875
70.6424425,1.4111328125
70.658787,1.38671875
70.6944407,1.3720703125
70.6987332,1.34765625
70.7336653,1.328125
70.75465,1.2939453125
70.7597368,1.259765625
70.803495,1.2255859375
70.8038674,1.19140625
70.8326611,1.15234375
70.8376436,1.11328125
70.8731097,1.083984375
70.8958627,1.0595703125
70.9003912,1.03515625
70.9192292,1.0107421875
70.9540329,0.99609375
70.9754823,0.986328125
70.9826149,0.9716796875
70.9980052,0.95703125
71.0357755,0.947265625
71.0384355,0.9326171875
71.0587053,0.9130859375
71.0948264,0.8984375
71.1002604,0.8935546875
71.1368615,0.9130859375
71.1408748,0.966796875
71.1765609,1.0791015625
71.1816824,1.2109375
71.2167942,1.3525390625
71.217041,1.4599609375
71.2515467,1.5625
71.2718717,1.62109375
71.280531,1.66015625
71.3172929,1.6748046875
71.3212783,1.6748046875
71.363772,1.650390625
71.3641268,1.6162109375
71.3790035,1.5625
71.4135656,1.513671875
71.418411,1.4697265625
71.4566394,1.435546875
71.4783119,1.4111328125
71.4800387,1.38671875
71.5158704,1.357421875
71.5504275,1.337890625
71.5509974,1.3037109375
71.5589822,1.26953125
71.5984502,1.2451171875
71.5988504,1.2109375
71.645615,1.1767578125
71.6461649,1.142578125
71.6612909,1.1083984375
71.7081393,1.0791015625
71.708537,1.0546875
71.7282709,1.0302734375
71.7385741,1.015625
71.7741643,1.005859375
71.7942348,0.9912109375
71.7989467,0.9814453125
71.8343819,0.966796875
71.8639073,0.9521484375
71.8643698,0.9326171875
71.9106718,0.9130859375
71.9112691,0.888671875
71.9363821,0.8544921875
71.9404997,0.8349609375
71.9769664,0.9033203125
71.9798679,1.005859375
72.0138503,1.1572265625
72.0345416,1.2939453125
72.0420961,1.42578125
72.077012,1.5185546875
72.0981739,1.6015625
72.1045351,1.6455078125
72.1201846,1.6650390625
72.1674901,1.6748046875
72.1679481,1.6552734375
72.1818308,1.6259765625
72.2169337,1.5771484375
72.2456349,1.533203125
72.2460347,1.4892578125
72.2639382,1.4501953125
72.2791973,1.416015625
72.3220636,1.396484375
72.3223832,1.376953125
72.3430387,1.3623046875
72.3613218,1.3330078125
72.4000115,1.30859375
72.4201571,1.2744140625
72.422725,1.2353515625
72.4591455,1.201171875
72.4784604,1.1669921875
72.4802071,1.142578125
72.5151475,1.11328125
72.5410967,1.0888671875
72.541432,1.0693359375
72.5749416,1.0546875
72.5947446,1.03515625
72.6015468,1.025390625
72.619943,1.005859375
72.6536149,0.99609375
72.6752882,0.9814453125
72.6808723,0.966796875
72.7272083,0.947265625
72.7276731,0.9423828125
72.7482863,0.9619140625
72.7628098,1.0205078125
72.7964199,1.1376953125
72.8168481,1.2646484375
72.822994,1.396484375
72.8668096,1.50390625
72.8671108,1.6015625
72.8795615,1.66015625
72.9151205,1.69921875
72.9379,1.7138671875
72.9428435,1.708984375
72.9640951,1.689453125
72.9992716,1.650390625
72.9995235,1.6015625
73.0357526,1.5576171875
73.0431592,1.513671875
73.0845508,1.4794921875
73.0849587,1.455078125
73.1190911,1.42578125
73.121401,1.40625
73.1588377,1.3818359375
73.1931438,1.3525390625
73.1935215,1.318359375
73.2027304,1.2890625
73.2225406,1.2548828125
73.2562582,1.23046875
73.2622831,1.1962890625
73.2993464,1.171875
73.320462,1.1376953125
73.3236574,1.11328125
73.3408406,1.09375
73.3753975,1.083984375
73.3832883,1.0693359375
73.4012869,1.0595703125
73.4363055,1.0400390625
73.4558204,1.025390625
73.4632746,1.0107421875
73.4993183,0.99609375
73.5307451,0.99609375
73.5311449,1.025390625
73.5453277,1.083984375
73.563562,1.1865234375
73.5976917,1.3427734375
73.6023786,1.4794921875
73.6409346,1.5966796875
73.6413132,1.6796875
73.6866782,1.73828125
73.6871409,1.767578125
73.7063814,1.77734375
73.7468268,1.77734375
73.7472039,1.7529296875
73.7626737,1.7236328125
73.8087385,1.6748046875
73.8090561,1.6259765625
73.8308496,1.5771484375
73.8450729,1.5380859375
73.8796169,1.4990234375
73.8851574,1.474609375
73.8995317,1.4404296875
73.9346404,1.4208984375
73.9664173,1.3818359375
73.9668088,1.3525390625
73.9833047,1.3037109375
74.028363,1.2744140625
74.028937,1.23046875
74.0449072,1.19140625
74.0666726,1.1572265625
74.0808685,1.123046875
74.1021174,1.103515625
74.1245075,1.083984375
74.1447854,1.0693359375
74.1656989,1.0595703125
74.1850255,1.044921875
74.20458,1.0302734375
74.2394094,1.0107421875
74.2600701,0.986328125
74.2605374,0.9765625
74.2974114,0.9619140625
74.3181736,0.95703125
74.3247064,0.9765625
74.3438669,1.0400390625
74.3791765,1.162109375
74.3843039,1.2939453125
74.4316725,1.435546875
74.4319534,1.5478515625
74.4474878,1.6455078125
74.462732,1.69921875
74.5087691,1.7431640625
74.5091036,1.7626953125
74.5236314,1.7626953125
74.558401,1.7431640625
74.5789483,1.708984375
74.5859834,1.66015625
74.6334723,1.6015625
74.6337922,1.5478515625
74.6439506,1.5185546875
74.6801301,1.4892578125
74.6818504,1.4599609375
74.7273827,1.4306640625
74.7276306,1.4013671875
74.7487053,1.3671875
74.765651,1.3330078125
74.8017572,1.2939453125
74.8021564,1.259765625
74.834206,1.2255859375
74.8556516,1.1865234375
74.8632354,1.1474609375
74.898341,1.11328125
74.9193753,1.0888671875
74.9235272,1.0595703125
74.9594361,1.03515625
74.9797988,1.0205078125
74.9820048,1.005859375
75.0203826,1.0009765625
75.0225598,0.9912109375
75.056971,0.9814453125
75.0778549,0.966796875
75.08468,0.947265625
75.1206915,0.927734375
75.1265329,0.908203125
75.1481825,0.8984375
75.1681566,0.9033203125
75.1828855,0.9619140625
75.2262275,1.11328125
75.226561,1.2646484375
75.2459423,1.4111328125
75.2893268,1.5283203125
75.2897558,1.640625
75.3057676,1.708984375
75.3404394,1.73828125
75.3621142,1.7529296875
75.3626428,1.7431640625
75.3991228,1.728515625
75.4195932,1.6845703125
75.427349,1.6357421875
75.4612461,1.5771484375
75.4663578,1.5283203125
75.5001439,1.4892578125
75.5220061,1.455078125
75.5223125,1.4306640625
75.5588034,1.4111328125
75.5634255,1.3818359375
75.6004241,1.3525390625
75.6310678,1.3232421875
75.6315366,1.279296875
75.6470352,1.2353515625
75.6930289,1.19140625
75.6933642,1.1572265625
75.7030326,1.1181640625
75.739037,1.09375
75.7600437,1.0693359375
75.7651803,1.0498046875
75.8156032,1.0302734375
75.815899,1.025390625
75.8277577,1.0107421875
75.8645517,1.0009765625
75.8650129,0.986328125
75.8840981,0.9765625
75.9237469,0.9619140625
75.9240457,0.9521484375
75.9443202,0.9375
75.9799432,0.927734375
76.0008322,0.9423828125
76.0079412,1.0009765625
76.0282629,1.1181640625
76.0493856,1.25
76.0682414,1.3916015625
76.0850016,1.50390625
76.1044036,1.6064453125
76.1399961,1.6650390625
76.1601929,1.7041015625
76.1651135,1.7138671875
76.1996171,1.7138671875
76.2219519,1.6943359375
76.227717,1.6552734375
76.2625885,1.6064453125
76.2825996,1.5478515625
76.2868624,1.50390625
76.3050001,1.4697265625
76.3437542,1.4501953125
76.3639688,1.42578125
76.3688269,1.40625
76.387695,1.376953125
76.4343133,1.3525390625
76.434611,1.318359375
76.4559314,1.2890625
76.4670431,1.25
76.5012617,1.2158203125
76.5062187,1.1767578125
76.5417336,1.142578125
76.5628327,1.103515625
76.5678125,1.083984375
76.6044172,1.0546875
76.6048886,1.0302734375
76.6398674,1.025390625
76.6692464,1.015625
76.6695453,1.005859375
76.6859807,0.9912109375
76.731335,0.9814453125
76.7317339,0.9619140625
76.7526718,0.9423828125
76.7676189,0.9228515625
76.7894378,0.888671875
76.8064871,0.87890625
76.8424477,0.95703125
76.8471373,1.0693359375
76.8869986,1.220703125
76.8874578,1.376953125
76.9316609,1.4990234375
76.931961,1.6064453125
76.9489278,1.669921875
76.9925553,1.71875
76.9935774,1.728515625
77.0133256,1.7333984375
77.0246303,1.7138671875
77.0583397,1.6796875
77.0801927,1.6259765625
77.0876874,1.572265625
77.1276871,1.5185546875
77.1281319,1.474609375
77.1494845,1.435546875
77.1658147,1.4111328125
77.1867166,1.38671875
77.2072595,1.3671875
77.2426716,1.337890625
77.2478622,1.3037109375
77.2850148,1.2646484375
77.2907216,1.23046875
77.3101153,1.19140625
77.327035,1.1572265625
77.3466919,1.1328125
77.3806639,1.103515625
77.4009972,1.0791015625
77.4088156,1.0546875
77.428714,1.0302734375
77.4717761,1.0107421875
77.4722479,0.99609375
77.4860178,0.9765625
77.5216486,0.9765625
77.526322,0.9716796875
77.5478754,0.95703125
77.5955371,0.9423828125
77.5960086,0.927734375
77.6067524,0.91796875
77.6405441,0.8984375
77.6613928,0.8935546875
77.6697241,0.9130859375
77.7061205,0.986328125
77.7064311,1.103515625
77.75591,1.2646484375
77.7563614,1.4013671875
77.7854159,1.5283203125
77.7881831,1.62109375
77.8255895,1.6845703125
77.8272763,1.7138671875
77.8609704,1.7333984375
77.8814651,1.7236328125
77.8866479,1.6943359375
77.9249755,1.6552734375
77.9254323,1.6064453125
77.9725219,1.5576171875
77.9729326,1.5087890625
78.0011678,1.4794921875
78.0085876,1.4501953125
78.0440557,1.4306640625
78.0654599,1.40625
78.0658461,1.3916015625
78.1115827,1.3623046875
78.1121753,1.3427734375
78.1419181,1.3037109375
78.1495199,1.26953125
78.1887449,1.23046875
78.1890754,1.19140625
78.2243553,1.1572265625
78.2449059,1.1181640625
78.2486443,1.0986328125
78.2829615,1.07421875
78.2874458,1.0595703125
78.3221612,1.0400390625
78.3442399,1.025390625
78.3495872,1.0107421875
78.3697887,1.0009765625
78.3915684,0.9814453125
78.4118756,0.9423828125
78.4266778,0.908203125
78.4619871,0.908203125
78.4823002,0.8984375
78.489716,0.91796875
78.5084546,0.9814453125
78.5447979,1.0888671875
78.5638468,1.2353515625
78.5695251,1.376953125
78.6211417,1.50390625
78.6217431,1.6015625
78.6295073,1.6796875
78.667281,1.71875
78.6675374,1.73828125
78.7131793,1.73828125
78.7136232,1.71875
78.734908,1.6796875
78.7523144,1.6357421875
78.7686226,1.58203125
78.807432,1.5380859375
78.807732,1.50390625
78.8429058,1.474609375
78.8631732,1.455078125
78.8693203,1.42578125
78.9060207,1.4111328125
78.9119595,1.3818359375
78.9641439,1.3525390625
78.9645723,1.318359375
78.9672829,1.2890625
79.0052569,1.25
79.0060345,1.2158203125
79.0585895,1.181640625
79.0590531,1.1474609375
79.0705016,1.1181640625
79.1064457,1.09375
79.1068504,1.0693359375
79.1354214,1.0693359375
79.1488914,1.0595703125
79.1847992,1.044921875
79.1888226,1.03515625
79.2279725,1.0205078125
79.2501224,1.005859375
79.2504348,0.986328125
79.2907155,0.9716796875
79.2911782,0.9765625
79.3382649,1.0205078125
79.3386178,1.11328125
79.3692744,1.2548828125
79.3695858,1.3916015625
79.4045143,1.533203125
79.4261053,1.6357421875
79.4306423,1.7138671875
79.4762594,1.767578125
79.4766182,1.7822265625
79.496344,1.7822265625
79.5082692,1.7626953125
79.551978,1.7333984375
79.5524387,1.6845703125
79.5711683,1.6259765625
79.605374,1.572265625
79.6117435,1.5283203125
79.6472049,1.4892578125
79.6515801,1.4697265625
79.6696318,1.4453125
79.6902847,1.42578125
79.7244886,1.4013671875
79.7295927,1.3720703125
79.7640443,1.337890625
79.784903,1.30859375
79.7905298,1.26953125
79.8257089,1.23046875
79.8475394,1.19140625
79.8479486,1.1572265625
79.8824936,1.1376953125
79.9027222,1.11328125
79.9106357,1.0986328125
79.9553574,1.083984375
79.955755,1.0693359375
79.9759754,1.0595703125
79.9927941,1.044921875
80.0132776,1.0302734375
80.0345459,0.9912109375
80.0499357,0.9521484375
80.0940792,0.9521484375
80.0945676,0.9619140625
80.11161,0.9765625
80.1557222,1.044921875
80.1561426,1.1572265625
80.1727843,1.3037109375
80.2185478,1.4306640625
80.2189175,1.5576171875
80.2286576,1.640625
80.2670994,1.7138671875
80.2715791,1.748046875
80.2903281,1.7626953125
80.3281723,1.748046875
80.3320208,1.728515625
80.3762585,1.6845703125
80.3765148,1.630859375
80.3889339,1.572265625
80.4246769,1.5380859375
80.4449184,1.5087890625
80.4503475,1.484375
80.485244,1.46484375
80.5071843,1.4453125
80.5124975,1.42578125
80.5498875,1.4013671875
80.5537904,1.376953125
80.5696017,1.337890625
80.6061352,1.30859375
80.6105206,1.2744140625
80.645835,1.240234375
80.6656183,1.2060546875
80.6716474,1.181640625
80.6920423,1.1572265625
80.7118162,1.1376953125
80.747753,1.123046875
80.7480938,1.1083984375
80.7690745,1.103515625
80.8105666,1.0986328125
80.8109612,1.0888671875
80.8304759,1.0693359375
80.8674491,1.064453125
80.8724446,1.044921875
80.9185189,1.0302734375
80.9189651,1.0302734375
80.934153,1.083984375
80.9510309,1.1669921875
80.9871693,1.3037109375
81.0112118,1.4306640625
81.0116407,1.552734375
81.0488181,1.640625
81.0553898,1.708984375
81.0736497,1.748046875
81.0950967,1.7529296875
81.1158239,1.7431640625
81.1321174,1.71875
81.1505602,1.6845703125
81.1966044,1.630859375
81.1970349,1.58203125
81.2128864,1.5380859375
81.2477809,1.4990234375
81.268444,1.4697265625
81.2743123,1.4501953125
81.2910099,1.42578125
81.3380664,1.4111328125
81.3384165,1.38671875
81.3533222,1.3623046875
81.3879552,1.337890625
81.3927538,1.3037109375
81.4277768,1.26953125
81.4488697,1.2353515625
81.4540621,1.2060546875
81.4712295,1.171875
81.5059328,1.1572265625
81.5109673,1.1376953125
81.5459576,1.123046875
81.5520341,1.1083984375
81.587833,1.0986328125
81.5925519,1.083984375
81.6283067,1.0693359375
81.6492231,1.0498046875
81.6545066,1.015625
81.6704794,0.9814453125
81.7049098,1.0009765625
81.7255518,1.044921875
81.7330376,1.1279296875
81.769155,1.2548828125
81.7725882,1.38671875
81.8077712,1.5185546875
81.8282915,1.62109375
81.8347858,1.69921875
81.8509408,1.7431640625
81.8971707,1.7724609375
81.8974198,1.77734375
81.9168497,1.7626953125
81.9329523,1.728515625
81.9733648,1.689453125
81.9736093,1.640625
81.9945538,1.5869140625
82.0356104,1.5478515625
82.0359337,1.5087890625
82.0527363,1.4892578125
82.0730225,1.46484375
82.1155191,1.4501953125
82.1159194,1.4208984375
82.1474292,1.3916015625
82.1539835,1.3623046875
82.1905204,1.328125
82.1909376,1.2890625
82.2104501,1.2646484375
82.2543564,1.23046875
82.2547516,1.1962890625
82.2753852,1.1669921875
82.2939909,1.1474609375
82.3291336,1.123046875
82.3501526,1.1083984375
82.3569027,1.0986328125
82.3725515,1.083984375
82.4072536,1.0791015625
82.4115995,1.0693359375
82.4466419,1.0546875
82.4673774,1.03515625
82.4729134,1.025390625
82.5065809,1.0205078125
82.5269734,1.03515625
82.5349383,1.09375
82.5702442,1.2060546875
82.570639,1.3330078125
82.59387,1.474609375
82.6150878,1.5869140625
82.6518022,1.6796875
82.6522001,1.7431640625
82.6884873,1.77734375
82.7082068,1.787109375
82.7163363,1.7822265625
82.7654076,1.7578125
82.765826,1.71875
82.7714952,1.6748046875
82.8080669,1.62109375
82.8128999,1.5771484375
82.8494414,1.5380859375
82.8547352,1.513671875
82.8903619,1.4892578125
82.9113872,1.4697265625
82.9119091,1.4453125
82.9483803,1.4208984375
82.9515943,1.396484375
82.9996173,1.3671875
82.9999159,1.3330078125
83.0214654,1.2939453125
83.0353775,1.259765625
83.0556574,1.2255859375
83.0926937,1.19140625
83.0931022,1.162109375
83.1290116,1.1474609375
83.1318514,1.1328125
83.1669798,1.123046875
83.1877799,1.1083984375
83.1934593,1.0986328125
83.2297714,1.083984375
83.2341878,1.07421875
83.2564501,1.0546875
83.2761954,1.0205078125
83.3115248,0.99609375
83.3410561,0.99609375
83.3413783,1.0302734375
83.3560563,1.103515625
83.3927916,1.2255859375
83.3932458,1.34765625
83.4305901,1.4794921875
83.4518299,1.58203125
83.456673,1.669921875
83.4739569,1.71875
83.5123227,1.7578125
83.5144908,1.7724609375
83.5527778,1.767578125
83.5556735,1.748046875
83.5903634,1.708984375
83.6106172,1.6552734375
83.6153184,1.611328125
83.6488296,1.5673828125
83.6692618,1.533203125
83.6734125,1.5185546875
83.7071851,1.494140625
83.7293527,1.474609375
83.7362659,1.4453125
83.7699851,1.416015625
83.790378,1.38671875
83.7948769,1.3525390625
83.8131319,1.3134765625
83.847591,1.2841796875
83.8685064,1.25
83.873998,1.220703125
83.8948458,1.1865234375
83.92913,1.162109375
83.9501862,1.1474609375
83.9573396,1.1279296875
83.9954703,1.11328125
83.9959421,1.0986328125
84.0303672,1.09375
84.0345225,1.0791015625
84.0723859,1.0693359375
84.0733289,1.0498046875
84.1098442,1.03515625
84.1293348,1.025390625
84.1365741,1.0498046875
84.1829647,1.103515625
84.183364,1.2109375
84.2047827,1.328125
84.2140668,1.4599609375
84.2607947,1.5625
84.2611937,1.6552734375
84.281227,1.7138671875
84.2980152,1.7431640625
84.3180156,1.748046875
84.3533406,1.7431640625
84.3559219,1.71875
84.3749907,1.6845703125
84.4101346,1.640625
84.4149674,1.591796875
84.4488912,1.552734375
84.4793658,1.5185546875
84.4797946,1.4892578125
84.4981063,1.4697265625
84.5395558,1.4501953125
84.5398784,1.42578125
84.5546667,1.4013671875
84.6014381,1.3818359375
84.6018566,1.3427734375
84.6165858,1.30859375
84.6633778,1.26953125
84.6636266,1.23046875
84.6759607,1.1962890625
84.7092699,1.1669921875
84.730745,1.1376953125
84.7359296,1.123046875
84.7716564,1.103515625
84.7744671,1.09375
84.8099664,1.0791015625
84.8320352,1.07421875
84.8365754,1.0595703125
84.8809129,1.044921875
84.8813086,1.025390625
84.9112124,0.99609375
84.9184479,0.966796875
84.9347063,0.9521484375
84.9694873,1.0107421875
84.9899362,1.103515625
84.9979578,1.23046875
85.0338498,1.357421875
85.0360621,1.484375
85.0722332,1.58203125
85.0931533,1.66015625
85.0990872,1.7041015625
85.1163654,1.7333984375
85.1523245,1.73828125
85.1566666,1.7333984375
85.1923168,1.69921875
85.1985683,1.66015625
85.2350386,1.611328125
85.2383409,1.5625
85.2731942,1.5234375
85.2931214,1.4892578125
85.2981902,1.474609375
85.3172384,1.4501953125
85.353515,1.4306640625
85.3565278,1.40625
85.3939257,1.3818359375
85.422731,1.34765625
85.4231518,1.3134765625
85.433372,1.2744140625
85.4707248,1.2451171875
85.5025497,1.2109375
85.5029489,1.1767578125
85.5159355,1.1474609375
85.5639467,1.1328125
85.5643431,1.11328125
85.5950462,1.09375
85.5991898,1.083984375
85.6142186,1.0693359375
85.6531927,1.064453125
85.6566203,1.0498046875
85.7057473,1.0400390625
85.7061552,1.0205078125
85.718168,1.005859375
85.7535943,0.986328125
85.7584857,0.966796875
85.7940215,0.95703125
85.8134539,0.9814453125
85.8157012,1.044921875
85.8367061,1.1669921875
85.8768881,1.30859375
85.877293,1.4306640625
85.9228627,1.5380859375
85.9232636,1.6162109375
85.9386945,1.6748046875
85.9742425,1.69921875
85.993811,1.708984375
85.9968212,1.69921875
86.0330393,1.6796875
86.0362729,1.640625
86.0728918,1.5966796875
86.1012636,1.552734375
86.1020287,1.513671875
86.1182473,1.4892578125
86.1518825,1.46484375
86.1727156,1.4404296875
86.178084,1.42578125
86.1973119,1.40625
86.2165397,1.376953125
86.2505379,1.34765625
86.2718116,1.3134765625
86.2779233,1.279296875
86.3000561,1.240234375
86.3509677,1.2109375
86.3513673,1.1767578125
86.3578445,1.1572265625
86.3981358,1.1376953125
86.398528,1.123046875
86.4444748,1.103515625
86.4448423,1.09375
86.4595944,1.0791015625
86.5044366,1.0693359375
86.504997,1.0595703125
86.5207622,1.0400390625
86.5560444,1.0009765625
86.556319,0.9912109375
86.5919603,0.9912109375
86.6124912,0.986328125
86.6200924,1.0009765625
86.6603599,1.044921875
86.6607693,1.1474609375
86.7065242,1.259765625
86.7069497,1.38671875
86.7164978,1.494140625
86.7525566,1.591796875
86.7732324,1.6552734375
86.7779603,1.6943359375
86.8121536,1.7041015625
86.8330987,1.7041015625
86.8412361,1.6845703125
86.860145,1.650390625
86.8958188,1.6015625
86.8961227,1.552734375
86.9342261,1.513671875
86.9539877,1.484375
86.9589286,1.4599609375
87.0024565,1.435546875
87.0028553,1.416015625
87.0199058,1.3916015625
87.0552117,1.3671875
87.0555632,1.337890625
87.092696,1.3134765625
87.1128705,1.2841796875
87.1172407,1.25
87.1507189,1.220703125
87.1722017,1.1865234375
87.1794226,1.1572265625
87.2145778,1.1279296875
87.2367215,1.1083984375
87.2370445,1.09375
87.2808058,1.083984375
87.2812025,1.07421875
87.3011301,1.064453125
87.319907,1.0498046875
87.3388058,1.0400390625
87.3731145,1.0205078125
87.3937686,1.005859375
87.4018139,0.9912109375
87.438482,0.986328125
87.4388794,1.005859375
87.4856652,1.083984375
87.4859331,1.201171875
87.5071785,1.3232421875
87.5194138,1.4453125
87.5412321,1.5478515625
87.5772855,1.6259765625
87.5805153,1.6748046875
87.6016511,1.708984375
87.6190895,1.71875
87.6628303,1.7236328125
87.6631999,1.7041015625
87.6793428,1.6650390625
87.7012976,1.62109375
87.7363232,1.5771484375
87.739314,1.533203125
87.7727649,1.4990234375
87.8031274,1.474609375
87.8034789,1.4453125
87.8183938,1.42578125
87.8538261,1.40625
87.8737857,1.3818359375
87.8807531,1.3525390625
87.9260973,1.318359375
87.9265049,1.2841796875
87.9422445,1.25
87.959721,1.2109375
87.9952519,1.181640625
87.9976638,1.1474609375
88.034398,1.1279296875
88.0398283,1.103515625
88.0812178,1.083984375
88.0814657,1.0693359375
88.1021208,1.0595703125
88.1217006,1.0546875
88.1447712,1.0400390625
88.161946,1.0009765625
88.1792881,0.966796875
88.2143233,0.9619140625
88.2354844,0.9521484375
88.2404185,0.947265625
88.2858139,0.95703125
88.2861213,1.0107421875
88.3023359,1.1083984375
88.3388066,1.2353515625
88.3392675,1.3671875
88.3741661,1.4990234375
88.380246,1.5966796875
88.4253263,1.6650390625
88.425847,1.708984375
88.4406388,1.7236328125
88.4741608,1.728515625
88.496028,1.7041015625
88.5015236,1.6748046875
88.5190625,1.6259765625
88.5552954,1.58203125
88.5591114,1.54296875
88.60169,1.5087890625
88.6020508,1.484375
88.6473018,1.46484375
88.6476035,1.4453125
88.6636114,1.4208984375
88.6805194,1.396484375
88.6988165,1.3720703125
88.7342004,1.3427734375
88.7553602,1.3134765625
88.7623892,1.279296875
88.7804142,1.240234375
88.8155477,1.2060546875
88.8371925,1.171875
88.8425189,1.142578125
88.8585642,1.1181640625
88.8949841,1.103515625
88.9269987,1.09375
88.9273726,1.0791015625
88.9421342,1.0693359375
88.9610886,1.0595703125
89.0048667,1.044921875
89.0052629,1.0302734375
89.024106,1.005859375
89.0588582,0.9912109375
89.0646724,0.9765625
89.0812143,0.9619140625
89.1177612,0.9814453125
89.1222399,1.044921875
89.1430202,1.162109375
89.1799683,1.2841796875
89.1803094,1.4111328125
89.2219427,1.513671875
89.2535369,1.5966796875
89.2539174,1.6455078125
89.2597683,1.6845703125
89.2995,1.689453125
89.2999621,1.689453125
89.3341212,1.6650390625
89.3548782,1.6259765625
89.3632526,1.5771484375
89.4077603,1.533203125
89.4082355,1.494140625
89.4200389,1.4599609375
89.4564888,1.4453125
89.4613077,1.42578125
89.4977267,1.4111328125
89.5035045,1.38671875
89.5223251,1.3623046875
89.5567438,1.328125
89.5786618,1.298828125
89.5790137,1.259765625
89.616241,1.23046875
89.6207718,1.201171875
89.6570403,1.1767578125
89.6851749,1.15234375
89.6856327,1.123046875
89.7188039,1.1083984375
89.7228199,1.0888671875
89.7562419,1.0791015625
89.7781071,1.064453125
89.7840775,1.0302734375
89.8008299,1.0205078125
89.8388622,1.015625
89.8443765,1.0009765625
89.8642841,0.9912109375
89.882497,0.9716796875
89.9180559,0.9716796875
89.9464966,0.99609375
89.946794,1.0693359375
89.9602684,1.1767578125
89.9972373,1.318359375
90.0020133,1.435546875
90.0369255,1.5478515625
90.0419129,1.630859375
90.0878371,1.6796875
90.0882341,1.708984375
90.1182534,1.71875
90.1254592,1.708984375
90.14103,1.6845703125
90.1771203,1.6552734375
90.1821372,1.611328125
90.2152979,1.5625
90.2357777,1.5234375
90.2449713,1.494140625
90.2647952,1.46484375
90.2997646,1.4404296875
90.3001994,1.416015625
90.3498763,1.396484375
90.3502754,1.3720703125
90.3813462,1.3427734375
90.3816051,1.30859375
90.4179288,1.26953125
90.422656,1.240234375
90.4590686,1.201171875
90.4778855,1.171875
90.4800658,1.1376953125
90.5146649,1.123046875
90.5358039,1.0986328125
90.5420798,1.083984375
90.581879,1.0693359375
90.6032333,1.0595703125
90.6036961,1.044921875
90.6380904,1.03515625
90.658732,1.0107421875
90.6634886,1.0009765625
90.698137,0.986328125
90.719109,0.966796875
90.7213049,0.9619140625
90.7558245,0.9765625
90.7840875,1.044921875
90.7847823,1.1474609375
90.8315268,1.2841796875
90.8318311,1.40625
90.8435732,1.5234375
90.8787401,1.6015625
90.8806799,1.6748046875
90.9159879,1.708984375
90.937654,1.728515625
90.9451233,1.71875
90.965492,1.69921875
91.0006746,1.6650390625
91.0057923,1.611328125
91.0259557,1.5673828125
91.0435802,1.5185546875
91.0791314,1.4892578125
91.0815227,1.4599609375
91.1180115,1.4404296875
91.1384116,1.4208984375
91.1445525,1.396484375
91.1659815,1.3720703125
91.1851253,1.3427734375
91.202836,1.30859375
91.2518219,1.279296875
91.2521781,1.2451171875
91.2811285,1.2158203125
91.2832761,1.181640625
91.3281982,1.15234375
91.32867,1.1181640625
91.3446047,1.09375
91.3888142,1.0791015625
91.389261,1.0595703125
91.4065031,1.0302734375
91.4224081,1.005859375
91.4593378,1.015625
91.4822879,1.0107421875
91.4846139,1.005859375
91.5190907,0.9912109375
91.5405533,0.9814453125
91.5472054,0.9765625
91.5920762,0.9765625
91.5925216,0.986328125
91.6016767,1.0595703125
91.6369672,1.171875
91.6580695,1.2939453125
91.6654969,1.42578125
91.7013804,1.5380859375
91.7054353,1.6357421875
91.7410893,1.6943359375
91.7618848,1.728515625
91.7625772,1.7333984375
91.809869,1.7333984375
91.8102326,1.708984375
91.8394597,1.669921875
91.8449119,1.62109375
91.8861576,1.5673828125
91.8864921,1.5234375
91.9227223,1.4892578125
91.9231788,1.4599609375
91.9627628,1.4501953125
91.9632235,1.4306640625
92.0112452,1.40625
92.0117812,1.3818359375
92.0241464,1.3525390625
92.0587381,1.318359375
92.0797337,1.279296875
92.0866683,1.25
92.1043928,1.2109375
92.1229212,1.181640625
92.1656833,1.15234375
92.1664219,1.1279296875
92.1962539,1.0986328125
92.2058635,1.083984375
92.2427149,1.0693359375
92.245862,1.0546875
92.2904054,1.044921875
92.2908909,1.0205078125
92.3083904,1.0009765625
92.3234886,0.9765625
92.3587605,0.966796875
92.3796679,0.95703125
92.3849302,0.9619140625
92.4196936,1.005859375
92.4404494,1.103515625
92.4462468,1.220703125
92.4900201,1.357421875
92.4904815,1.4697265625
92.5053212,1.5771484375
92.5412661,1.640625
92.5462405,1.6796875
92.5667065,1.6943359375
92.585996,1.69921875
92.6223559,1.6796875
92.6425279,1.6455078125
92.6480371,1.6015625
92.6663161,1.552734375
92.6999615,1.5087890625
92.7048733,1.474609375
92.7557037,1.4501953125
92.7560637,1.4306640625
92.7677132,1.4111328125
92.8169477,1.3818359375
92.8172534,1.3525390625
92.8249932,1.3232421875
92.8605039,1.3037109375
92.8629945,1.26953125
92.8987861,1.2353515625
92.9204601,1.2060546875
92.923754,1.1669921875
92.9718019,1.1328125
92.972246,1.103515625
93.0038091,1.083984375
93.0083953,1.0595703125
93.043562,1.0302734375
93.0440083,1.0205078125
93.0814511,1.0205078125
93.112439,1.0107421875
93.1127845,1.0107421875
93.1273501,0.99609375
93.1623203,0.9814453125
93.1676106,0.95703125
93.1872222,0.9423828125
93.2214298,0.927734375
93.2247697,0.947265625
93.2687293,1.0009765625
93.2690669,1.09375
93.2868708,1.23046875
93.33079,1.3623046875
93.3310931,1.4892578125
93.3489613,1.5869140625
93.3944416,1.66015625
93.3948965,1.7041015625
93.4064804,1.728515625
93.4270021,1.7333984375
93.4622056,1.7236328125
93.4646349,1.6943359375
93.5019853,1.650390625
93.5324536,1.6015625
93.5327554,1.552734375
93.54946,1.513671875
93.564925,1.4794921875
93.5993366,1.46484375
93.6197518,1.4453125
93.6274186,1.42578125
93.6623024,1.396484375
93.6666086,1.3720703125
93.6999274,1.337890625
93.7201572,1.298828125
93.7250268,1.2646484375
93.7609065,1.240234375
93.7661636,1.2109375
93.7856152,1.1767578125
93.8211251,1.1474609375
93.8267438,1.123046875
93.8609398,1.0986328125
93.8805893,1.083984375
93.8885263,1.0693359375
93.922654,1.0546875
93.9428148,1.0400390625
93.9466099,1.025390625
93.9840649,1.015625
93.9862749,0.99609375
94.0239266,0.9814453125
94.0279249,0.9619140625
94.0480115,0.947265625
94.082719,0.9423828125
94.0876335,0.9716796875
94.1226525,1.044921875
94.1267767,1.1767578125
94.1625378,1.3134765625
94.1667532,1.4404296875
94.2024454,1.5576171875
94.2233761,1.630859375
94.2277927,1.6796875
94.2627219,1.7041015625
94.2843259,1.7138671875
94.2847135,1.6943359375
94.3255407,1.669921875
94.357765,1.630859375
94.358122,1.58203125
94.3679003,1.5380859375
94.4194851,1.50390625
94.4197985,1.474609375
94.4291265,1.455078125
94.4463162,1.435546875
94.4660236,1.4208984375
94.5027505,1.396484375
94.5059617,1.376953125
94.5419194,1.3525390625
94.5632248,1.318359375
94.5684657,1.2841796875
94.6058968,1.25
94.6106576,1.2158203125
94.6298408,1.181640625
94.650566,1.1376953125
94.6665117,1.0986328125
94.7004201,1.09375
94.7228551,1.0888671875
94.7293502,1.0791015625
94.7653388,1.0693359375
94.7671543,1.064453125
94.8001991,1.0498046875
94.8203421,1.0400390625
94.8320184,1.025390625
94.8483439,1.005859375
94.8973652,0.99609375
94.8976195,0.99609375
94.9077605,1.03515625
94.9457506,1.11328125
94.9763604,1.2353515625
94.9766749,1.357421875
94.991109,1.4794921875
95.0066327,1.572265625
95.0420253,1.6552734375
95.0629639,1.69921875
95.0673319,1.7236328125
95.1167328,1.7236328125
95.1172001,1.708984375
95.1375405,1.6748046875
95.1507257,1.6357421875
95.1857004,1.5869140625
95.1860024,1.54296875
95.2215839,1.5087890625
95.2416798,1.484375
95.2479171,1.4599609375
95.2829936,1.435546875
95.3046632,1.416015625
95.3098799,1.396484375
95.3299029,1.3671875
95.3473865,1.3330078125
95.3821646,1.3037109375
95.4126676,1.26953125
95.412986,1.240234375
95.4281112,1.2109375
95.4631347,1.181640625
95.4691407,1.1572265625
95.5042944,1.1279296875
95.5242153,1.103515625
95.5307864,1.0888671875
95.5688547,1.0791015625
95.5693149,1.0595703125
95.5882437,1.0498046875
95.6093818,1.0302734375
95.6457637,1.0205078125
95.6772977,0.99609375
95.6777695,0.986328125
95.6912951,0.986328125
95.7274214,1.0205078125
95.7278695,1.0986328125
95.7684181,1.2255859375
95.7688855,1.3525390625
95.8134822,1.4892578125
95.8138785,1.6015625
95.8599205,1.669921875
95.8602214,1.71875
95.8702861,1.73828125
95.9215488,1.7431640625
95.9219821,1.7333984375
95.9298703,1.7138671875
95.9652698,1.6748046875
95.9684682,1.6259765625
96.0145785,1.5771484375
96.0150365,1.533203125
96.0306766,1.4990234375
96.0526293,1.474609375
96.0685095,1.4501953125
96.1038232,1.4306640625
96.1079584,1.40625
96.1420643,1.376953125
96.1682781,1.3427734375
96.1685716,1.3037109375
96.2019219,1.26953125
96.2223036,1.23046875
96.2318093,1.1962890625
96.2518817,1.1572265625
96.2867024,1.103515625
96.2893246,1.0791015625
96.3395528,1.07421875
96.3399098,1.0595703125
96.3505554,1.0498046875
96.3707984,1.0400390625
96.4052705,1.025390625
96.4266813,1.0107421875
96.4312464,1.005859375
96.4668559,0.9912109375
96.487354,0.966796875
96.4876641,0.95703125
96.5288724,0.9423828125
96.5499193,0.9423828125
96.5503173,0.9716796875
96.5902984,1.0546875
96.5907428,1.171875
96.6106959,1.3134765625
96.6295057,1.4404296875
96.6655396,1.5576171875
96.6679974,1.6357421875
96.7049069,1.69921875
96.724329,1.7236328125
96.7308687,1.7333984375
96.7755733,1.728515625
96.7760389,1.6943359375
96.7965651,1.650390625
96.8079848,1.6015625
96.8540789,1.5673828125
96.8545375,1.5283203125
96.8706779,1.50390625
96.9066888,1.4794921875
96.9112605,1.4599609375
96.9481914,1.435546875
96.9522832,1.416015625
96.9694785,1.38671875
96.9887484,1.357421875
97.0245263,1.328125
97.0297747,1.2939453125
97.063304,1.2548828125
97.0844651,1.2255859375
97.0922883,1.1962890625
97.1346993,1.1669921875
97.1350852,1.142578125
97.1535612,1.1181640625
97.1972017,1.103515625
97.1975512,1.09375
97.2107308,1.09375
97.2478159,1.0888671875
97.2737904,1.0791015625
97.274089,1.064453125
97.3081396,1.0498046875
97.3140364,1.0302734375
97.3329673,1.0205078125
97.3502556,1.0009765625
97.3703933,1.005859375
97.4139456,1.0498046875
97.4144961,1.1279296875
97.4312867,1.25
97.4656118,1.3720703125
97.4863234,1.4990234375
97.4939385,1.5869140625
97.5305196,1.6552734375
97.5308628,1.69921875
97.5638237,1.7236328125
97.5854991,1.7236328125
97.5924821,1.7138671875
97.6295872,1.6796875
97.6322393,1.630859375
97.667448,1.5771484375
97.6733842,1.5283203125
97.6901134,1.4892578125
97.7381131,1.4697265625
97.7385648,1.4501953125
97.7528649,1.4306640625
97.771912,1.40625
97.8087844,1.3818359375
97.8128094,1.3525390625
97.8487939,1.318359375
97.852883,1.2890625
97.8724253,1.2548828125
97.9107041,1.201171875
97.9401354,1.171875
97.9406511,1.142578125
97.9527324,1.123046875
97.9875882,1.1083984375
97.9921845,1.0888671875
98.0267567,1.07421875
98.0484786,1.0693359375
98.0554402,1.0546875
98.0754553,1.0400390625
98.0901671,1.0205078125
98.1120266,1.015625
98.1473828,0.99609375
98.1519855,0.9765625
98.1907264,0.966796875
98.2199526,0.986328125
98.2203546,1.044921875
98.2346141,1.162109375
98.25045,1.2890625
98.270097,1.42578125
98.3145645,1.5380859375
98.3149603,1.6259765625
98.3454476,1.6796875
98.3517731,1.7236328125
98.3900939,1.73828125
98.4227849,1.728515625
98.4230286,1.7041015625
98.4310759,1.669921875
98.465275,1.6259765625
98.486543,1.5771484375
98.4938178,1.533203125
98.527982,1.4990234375
98.5307972,1.4697265625
98.5791559,1.4404296875
98.5795537,1.416015625
98.610054,1.3916015625
98.6103209,1.3720703125
98.6553912,1.3427734375
98.6557888,1.30859375
98.6756812,1.2744140625
98.693337,1.2353515625
98.7305238,1.201171875
98.7350491,1.162109375
98.7794688,1.1376953125
98.7799133,1.103515625
98.7948606,1.0791015625
98.8121619,1.0546875
98.8477481,1.0498046875
98.8523247,1.03515625
98.8900203,1.0400390625
98.8940633,1.025390625
98.9291317,1.0205078125
98.9349614,1.005859375
98.9812774,0.9912109375
98.9817466,0.966796875
98.9905561,0.966796875
99.0254947,0.9619140625
99.0456264,0.966796875
99.0533903,1.0205078125
99.0906418,1.11328125
99.0927406,1.25
99.1270163,1.3818359375
99.1480574,1.5185546875
99.1524066,1.6162109375
99.1994225,1.69921875
99.1996807,1.748046875
99.2151441,1.77734375
99.2501245,1.77734375
99.2532558,1.767578125
99.2901736,1.73828125
99.293961,1.689453125
99.3297907,1.640625
99.3503662,1.5869140625
99.3507151,1.5576171875
99.389483,1.5283203125
99.3935846,1.513671875
99.4293803,1.4892578125
99.4341398,1.4697265625
99.4692914,1.4404296875
99.4739415,1.40625
99.4974175,1.3720703125
99.5154189,1.3232421875
99.5330561,1.2890625
99.5681242,1.2646484375
99.5890928,1.23046875
99.5940388,1.201171875
99.6314162,1.171875
99.6341106,1.15234375
99.6712062,1.1328125
99.6905316,1.1181640625
99.6959684,1.11328125
99.7136864,1.103515625
99.7572939,1.1083984375
99.7575998,1.103515625
99.7751052,1.103515625
99.8117353,1.0986328125
99.8159398,1.09375
99.8353949,1.0888671875
99.8732822,1.0791015625
99.8736521,1.09375
99.9091259,1.171875
99.9136432,1.2744140625
99.94716,1.40625
99.9679119,1.533203125
99.9738407,1.630859375
100.0096881,1.708984375
100.0369582,1.7529296875
100.0373568,1.77734375
100.0541385,1.77734375
100.1000683,1.7724609375
100.1004649,1.7431640625
100.1152399,1.7041015625
100.1625347,1.6552734375
100.1629464,1.611328125
100.176986,1.5673828125
100.2129626,1.5380859375
100.2133744,1.5087890625
100.2559726,1.4892578125
100.2567618,1.4697265625
100.275031,1.4453125
100.3102202,1.416015625
100.3151047,1.3818359375
100.3522873,1.3427734375
100.3552599,1.3037109375
100.393119,1.259765625
100.398117,1.2255859375
100.4406335,1.19140625
100.4410313,1.1572265625
100.4543826,1.1279296875
100.5034576,1.103515625
100.5039486,1.0791015625
100.5167569,1.0595703125
100.5367397,1.0400390625
100.5713781,1.0205078125
100.575657,0.99609375
100.6126876,0.9765625
100.6427785,0.9521484375
100.6430798,0.9423828125
100.6629531,0.9423828125
100.6762103,0.9912109375
100.7247355,1.083984375
100.7251507,1.2158203125
100.7364674,1.34765625
100.7885938,1.4794921875
100.7890563,1.572265625
100.8188043,1.6552734375
100.8191022,1.7041015625
100.8355984,1.7333984375
100.882142,1.73828125
100.8824449,1.7333984375
100.896127,1.708984375
100.9308324,1.6796875
100.9603127,1.6357421875
100.960736,1.591796875
100.9759052,1.5625
100.9943376,1.5380859375
101.0388801,1.5185546875
101.0392862,1.494140625
101.0680262,1.4794921875
101.0757832,1.455078125
101.0991646,1.4306640625
101.1178451,1.396484375
101.1395807,1.34765625
101.1539823,1.2939453125
101.1747789,1.279296875
101.222773,1.2548828125
101.2232198,1.220703125
101.2429724,1.1962890625
101.256962,1.162109375
101.2777872,1.1376953125
101.3124771,1.11328125
101.3352653,1.103515625
101.3355967,1.083984375
101.3796375,1.07421875
101.3799347,1.0546875
101.3961466,1.0400390625
101.4322783,1.015625
101.456503,1.0009765625
101.4568258,0.9765625
101.493057,0.9814453125
