Time,PPG_Signal
0.4096373,1.1767578125
0.4611014,1.181640625
0.4613512,1.1865234375
0.4710999,1.2060546875
0.5170816,1.23046875
0.5174305,1.26953125
0.5323205,1.3037109375
0.5703932,1.337890625
0.5707143,1.3525390625
0.5901268,1.376953125
0.6260743,1.38671875
0.6301053,1.40625
0.6768828,1.40625
0.6771402,1.42578125
0.6976643,1.4306640625
0.7116847,1.4208984375
0.7477224,1.416015625
0.7726385,1.4013671875
0.7728891,1.3623046875
0.7874032,1.3330078125
0.8339337,1.34765625
0.8342531,1.3525390625
0.8637996,1.3525390625
0.870959,1.34765625
0.9068833,1.337890625
0.9369801,1.328125
0.9372235,1.3232421875
0.9494607,1.3134765625
0.9735349,1.3037109375
0.9936484,1.3037109375
1.0286477,1.2841796875
1.0292432,1.2744140625
1.0780216,1.259765625
1.0947567,1.2548828125
1.0950187,1.240234375
1.1296551,1.2353515625
1.1299838,1.2255859375
1.1668552,1.220703125
1.1695304,1.2158203125
1.204797,1.2158203125
1.2260432,1.2060546875
1.2333311,1.201171875
1.2772951,1.1962890625
1.2776053,1.19140625
1.2891758,1.1767578125
1.3275865,1.181640625
1.3279251,1.1962890625
1.3812866,1.2158203125
1.3815646,1.259765625
1.3981743,1.2890625
1.4134194,1.3232421875
1.4600615,1.3427734375
1.4603016,1.3671875
1.4686033,1.376953125
1.5056594,1.3916015625
1.5098894,1.4013671875
1.5514781,1.40625
1.5518305,1.4013671875
1.5741275,1.4013671875
1.5916075,1.38671875
1.631863,1.376953125
1.6628581,1.3671875
1.663202,1.3525390625
1.6744488,1.34765625
1.6922239,1.337890625
1.7271099,1.34765625
1.7317477,1.3427734375
1.7665293,1.3427734375
1.8008657,1.328125
1.801266,1.3232421875
1.8116097,1.30859375
1.8458423,1.298828125
1.8656087,1.2841796875
1.8700701,1.279296875
1.9078948,1.26953125
1.9125067,1.2646484375
1.9567009,1.25
1.9570425,1.25
1.9724627,1.240234375
2.0133883,1.23046875
2.0136311,1.2255859375
2.0340984,1.2158203125
2.0514941,1.2109375
2.092494,1.2060546875
2.0928123,1.2060546875
2.1134661,1.1962890625
2.1350589,1.19140625
2.1548267,1.1865234375
2.1768345,1.1865234375
2.1912307,1.1962890625
2.2265816,1.240234375
2.2308167,1.2744140625
2.2666373,1.3134765625
2.2977831,1.34765625
2.3031492,1.3671875
2.3140146,1.3818359375
2.3497412,1.3916015625
2.3539984,1.4013671875
2.371335,1.4013671875
2.4077409,1.416015625
2.410287,1.4208984375
2.4535752,1.4208984375
2.453872,1.4111328125
2.4751729,1.40625
2.4937023,1.396484375
2.529164,1.3916015625
2.5329788,1.376953125
2.5675335,1.3720703125
2.5919526,1.3525390625
2.5921963,1.357421875
2.6260819,1.34765625
2.6474014,1.337890625
2.6516618,1.3330078125
2.6855349,1.3232421875
2.7058072,1.30859375
2.7144729,1.298828125
2.7519375,1.2939453125
2.7521924,1.279296875
2.7869753,1.2744140625
2.792638,1.26953125
2.8275266,1.26953125
2.8320854,1.2548828125
2.8649018,1.2548828125
2.887335,1.2451171875
2.895612,1.240234375
2.9146077,1.2353515625
2.931982,1.2255859375
2.9802463,1.220703125
2.9806689,1.220703125
2.9929593,1.2255859375
3.0290809,1.23046875
3.0491552,1.25
3.0536356,1.2744140625
3.1063632,1.3134765625
3.1066084,1.337890625
3.1239841,1.3671875
3.1309691,1.38671875
3.1703758,1.4111328125
3.1723036,1.4208984375
3.2099407,1.4306640625
3.2418334,1.4306640625
3.242141,1.4453125
3.2549579,1.4404296875
3.2759422,1.42578125
3.2976102,1.38671875
3.3119024,1.3818359375
3.3485651,1.3818359375
3.3526994,1.376953125
3.3868376,1.3818359375
3.4107368,1.3720703125
3.412747,1.3671875
3.44508,1.357421875
3.466699,1.34765625
3.474251,1.3330078125
3.4933132,1.328125
3.513245,1.318359375
3.5485411,1.3134765625
3.5692644,1.30859375
3.5736373,1.2939453125
3.6088471,1.2841796875
3.6299746,1.26953125
3.6345874,1.2646484375
3.6697246,1.25
3.6745036,1.25
3.7122936,1.240234375
3.7127752,1.2353515625
3.7589632,1.23046875
3.7593558,1.2353515625
3.7796723,1.23046875
3.796661,1.23046875
3.8114932,1.220703125
3.852324,1.220703125
3.8527353,1.2158203125
3.9001449,1.2255859375
3.9005445,1.2451171875
3.9215309,1.26953125
3.9443262,1.30859375
3.9558375,1.337890625
3.9913364,1.3623046875
3.9916841,1.38671875
4.012497,1.4111328125
4.04761,1.4306640625
4.0685997,1.4501953125
4.0740093,1.4599609375
4.0953681,1.46484375
4.1444463,1.46484375
4.1447468,1.4599609375
4.1738645,1.4501953125
4.1756642,1.435546875
4.2090209,1.42578125
4.2296565,1.40625
4.2336856,1.4013671875
4.266015,1.3916015625
4.2877283,1.3916015625
4.2968492,1.376953125
4.3163823,1.3671875
4.3611197,1.34765625
4.3614598,1.337890625
4.3899083,1.3232421875
4.3940712,1.318359375
4.4136598,1.3037109375
4.4499526,1.298828125
4.4712911,1.2841796875
4.4760077,1.2744140625
4.5122424,1.2548828125
4.5160978,1.25
4.550934,1.2451171875
4.5753756,1.23046875
4.5756474,1.23046875
4.6216311,1.2255859375
4.6220296,1.220703125
4.6353765,1.2109375
4.6727244,1.2060546875
4.6997208,1.201171875
4.7000844,1.1962890625
4.7118034,1.1865234375
4.7441847,1.1865234375
4.7656053,1.19140625
4.774654,1.23046875
4.8235798,1.259765625
4.8238282,1.298828125
4.8356194,1.3330078125
4.871254,1.3525390625
4.9025283,1.3720703125
4.9028176,1.3818359375
4.9176815,1.3720703125
4.9350504,1.357421875
4.9714548,1.38671875
4.9735588,1.396484375
5.0070865,1.4013671875
5.0296367,1.4013671875
5.0368251,1.396484375
5.0730435,1.38671875
5.078737,1.376953125
5.0923059,1.3623046875
5.1267515,1.357421875
5.1482143,1.34765625
5.1555186,1.34765625
5.1754788,1.337890625
5.2152667,1.3232421875
5.2451803,1.30859375
5.2454789,1.2890625
5.2573259,1.279296875
5.2921054,1.2646484375
5.2923513,1.2646484375
5.3451924,1.2548828125
5.345509,1.2548828125
5.3673504,1.2451171875
5.3769968,1.2353515625
5.4280712,1.2255859375
5.4284416,1.220703125
5.4343391,1.2060546875
5.4676642,1.2109375
5.4763106,1.2060546875
5.5119346,1.1962890625
5.514246,1.1865234375
5.5489917,1.19140625
5.5716541,1.181640625
5.5777413,1.1767578125
5.6181043,1.171875
5.6184148,1.171875
5.6343871,1.1962890625
5.6665968,1.2255859375
5.6872543,1.2646484375
5.6959411,1.2841796875
5.7325708,1.3134765625
5.7373,1.3330078125
5.774685,1.34765625
5.7789358,1.357421875
5.8166749,1.3818359375
5.817133,1.3916015625
5.8535871,1.3916015625
5.8539788,1.396484375
5.8898006,1.38671875
5.9112629,1.3818359375
5.9180343,1.376953125
5.9587053,1.3720703125
5.9590986,1.3623046875
5.989086,1.357421875
5.9958151,1.34765625
6.0318996,1.337890625
6.0363708,1.328125
6.0739707,1.3232421875
6.0808175,1.3134765625
6.0976417,1.3037109375
6.1345055,1.2890625
6.1550115,1.2744140625
6.1591279,1.2646484375
6.1764775,1.25
6.2121172,1.2451171875
6.2145352,1.240234375
6.2372321,1.2353515625
6.2748909,1.23046875
6.2814623,1.2255859375
6.2988292,1.2158203125
6.3488958,1.2158203125
6.3491381,1.2060546875
6.3547924,1.201171875
6.3915984,1.1962890625
6.4118358,1.19140625
6.4184913,1.1865234375
6.4568961,1.1865234375
6.4572244,1.1865234375
6.4889505,1.201171875
6.5095404,1.2255859375
6.5139298,1.259765625
6.5472223,1.2939453125
6.5669531,1.3232421875
6.5762677,1.3525390625
6.6114004,1.3720703125
6.6336549,1.38671875
6.6379712,1.396484375
6.6739591,1.40625
6.6955009,1.4111328125
6.699988,1.4111328125
6.7171423,1.4013671875
6.7374919,1.396484375
6.7575174,1.4013671875
6.8067027,1.38671875
6.8071799,1.3818359375
6.8186416,1.3720703125
6.8381787,1.3671875
6.8951728,1.3525390625
6.8954177,1.34765625
6.9168776,1.328125
6.9171704,1.3232421875
6.9369002,1.30859375
6.9744333,1.3037109375
6.9802855,1.2890625
7.0279022,1.279296875
7.0281499,1.2646484375
7.0420794,1.2548828125
7.0552917,1.240234375
7.1118082,1.2451171875
7.1124773,1.240234375
7.1379822,1.2353515625
7.1382486,1.2255859375
7.1602015,1.2158203125
7.1786147,1.2109375
7.2169679,1.2060546875
7.2206893,1.201171875
7.2356799,1.19140625
7.2563767,1.1865234375
7.2781456,1.181640625
7.3242478,1.181640625
7.3244943,1.171875
7.3398082,1.181640625
7.3878905,1.1865234375
7.3882477,1.2158203125
7.3998649,1.2548828125
7.4207888,1.279296875
7.4574352,1.279296875
7.4579974,1.30859375
7.4780007,1.3427734375
7.5274784,1.3671875
7.5277643,1.3916015625
7.5415972,1.40625
7.5601291,1.4208984375
7.5946765,1.4208984375
7.5988222,1.416015625
7.6336441,1.40625
7.6382733,1.396484375
7.6589742,1.38671875
7.6941285,1.3818359375
7.6981323,1.3671875
7.7436512,1.3623046875
7.7440291,1.3525390625
7.7633448,1.337890625
7.7975943,1.328125
7.7980036,1.30859375
7.8207545,1.298828125
7.8382867,1.2890625
7.8749628,1.2890625
7.8799904,1.2841796875
7.9232776,1.279296875
7.9236941,1.2646484375
7.9410999,1.2548828125
7.9574278,1.240234375
7.993484,1.240234375
7.9980942,1.2353515625
8.0439116,1.23046875
8.0443542,1.2255859375
8.0588435,1.2158203125
8.1006918,1.2060546875
8.1010148,1.1962890625
8.1207459,1.1962890625
8.1363622,1.1865234375
8.1775182,1.181640625
8.1779145,1.1767578125
8.1983211,1.1767578125
8.2338351,1.1767578125
8.2565827,1.1962890625
8.2609727,1.2158203125
8.2961555,1.2548828125
8.3001621,1.279296875
8.3343561,1.3037109375
8.3543683,1.3232421875
8.3563115,1.3525390625
8.3894269,1.376953125
8.4123092,1.3916015625
8.4197065,1.4013671875
8.4537948,1.40625
8.4747958,1.40625
8.4811974,1.396484375
8.5153437,1.38671875
8.5497563,1.3720703125
8.5500772,1.3671875
8.5600248,1.357421875
8.5951435,1.3525390625
8.5995268,1.3427734375
8.6360762,1.337890625
8.6567132,1.328125
8.661413,1.3134765625
8.7057859,1.30859375
8.7060287,1.2890625
8.7186403,1.279296875
8.7528487,1.26953125
8.774038,1.2646484375
8.77856,1.2548828125
8.8120403,1.2451171875
8.8330888,1.23046875
8.8417843,1.2255859375
8.8602523,1.2158203125
8.8797392,1.220703125
8.9153748,1.2158203125
8.9199288,1.2158203125
8.9687171,1.2060546875
8.9690292,1.201171875
8.9902715,1.19140625
9.0006796,1.19140625
9.0383847,1.19140625
9.0426412,1.181640625
9.0639676,1.15234375
9.0801736,1.1376953125
9.1157071,1.181640625
9.1194689,1.2255859375
9.153483,1.2646484375
9.1741634,1.298828125
9.1808355,1.328125
9.2164298,1.3427734375
9.247332,1.357421875
9.2476071,1.3671875
9.2610479,1.38671875
9.3098765,1.3916015625
9.3102747,1.396484375
9.3221066,1.4013671875
9.3422887,1.38671875
9.3874572,1.376953125
9.3878308,1.3671875
9.4027227,1.3623046875
9.4184327,1.3525390625
9.4401688,1.3525390625
9.4796569,1.337890625
9.4799968,1.3330078125
9.5254053,1.3134765625
9.5258054,1.3037109375
9.5587952,1.2841796875
9.5605362,1.2744140625
9.594937,1.2548828125
9.59791,1.25
9.6334926,1.240234375
9.6596577,1.240234375
9.6656378,1.2353515625
9.6811496,1.2255859375
9.7168176,1.220703125
9.7374922,1.2109375
9.7429283,1.201171875
9.7598924,1.19140625
9.7797595,1.19140625
9.7996879,1.1865234375
9.8344837,1.181640625
9.856642,1.171875
9.8619026,1.1669921875
9.8830996,1.1572265625
9.902767,1.1669921875
9.938855,1.162109375
9.9427912,1.1669921875
9.9752378,1.181640625
9.9958141,1.201171875
10.0008391,1.240234375
10.0359865,1.2744140625
10.0647706,1.318359375
10.0651312,1.337890625
10.0835624,1.3623046875
10.1287457,1.376953125
10.1290676,1.396484375
10.1401686,1.40625
10.1906887,1.42578125
10.1915424,1.4306640625
10.2020132,1.435546875
10.2222721,1.42578125
10.2737577,1.416015625
10.2740075,1.4013671875
10.3019231,1.396484375
10.3021913,1.38671875
10.3353647,1.3720703125
10.339898,1.3671875
10.3803761,1.357421875
10.3806191,1.34765625
10.4000397,1.3330078125
10.4352332,1.3232421875
10.4569311,1.3037109375
10.4648071,1.2939453125
10.4806834,1.2744140625
10.5190986,1.2646484375
10.519487,1.2548828125
10.5663454,1.25
10.5667408,1.240234375
10.5859589,1.23046875
10.6020879,1.2255859375
10.6373572,1.2109375
10.6563778,1.2060546875
10.6593547,1.1962890625
10.7031679,1.1962890625
10.7034406,1.19140625
10.724513,1.19140625
10.7407998,1.181640625
10.7817711,1.1767578125
10.7984491,1.1669921875
10.8028642,1.1669921875
10.8388502,1.1572265625
10.8603333,1.15234375
10.8605853,1.162109375
10.8925572,1.1962890625
10.9140642,1.23046875
10.9229317,1.2841796875
10.9848693,1.3232421875
10.9852838,1.34765625
10.9893081,1.3720703125
11.0036725,1.38671875
11.0397506,1.4013671875
11.0401521,1.40625
11.0786765,1.416015625
11.1005599,1.4208984375
11.1008844,1.4208984375
11.137437,1.4111328125
11.1571764,1.4013671875
11.1641528,1.3916015625
11.1979589,1.38671875
11.2177883,1.3720703125
11.2199061,1.3671875
11.2552791,1.3623046875
11.2885668,1.34765625
11.2933861,1.337890625
11.3049221,1.3232421875
11.3525546,1.3134765625
11.3528806,1.298828125
11.3647552,1.2890625
11.3802584,1.26953125
11.4013841,1.2646484375
11.4229772,1.2548828125
11.4723859,1.2548828125
11.4726409,1.25
11.4844271,1.2451171875
11.5198746,1.23046875
11.5245258,1.220703125
11.5437623,1.2109375
11.5788367,1.1767578125
11.5855498,1.15234375
11.6024362,1.15234375
11.6431956,1.162109375
11.643642,1.1669921875
11.6778038,1.171875
11.7083494,1.171875
11.7086138,1.181640625
11.7248605,1.1962890625
11.7696219,1.2255859375
11.7699694,1.259765625
11.7974779,1.2939453125
11.8051268,1.3232421875
11.8241116,1.3525390625
11.8438015,1.3720703125
11.8809034,1.38671875
11.8991846,1.40625
11.9059262,1.4111328125
11.9259626,1.416015625
11.943218,1.416015625
11.9798333,1.4208984375
11.9852353,1.416015625
12.0224472,1.4208984375
12.0226929,1.4111328125
12.0686074,1.40625
12.0689333,1.3916015625
12.0888622,1.38671875
12.1019151,1.3671875
12.1458811,1.3623046875
12.1461815,1.34765625
12.1752389,1.337890625
12.1831909,1.318359375
12.2169403,1.3134765625
12.2486065,1.298828125
12.2489178,1.2841796875
12.2822519,1.2744140625
12.2825461,1.259765625
12.3161431,1.2548828125
12.3363307,1.2451171875
12.3447584,1.240234375
12.3801906,1.23046875
12.3851487,1.220703125
12.4243923,1.2158203125
12.4246476,1.201171875
12.4698834,1.19140625
12.4701393,1.1865234375
12.4819221,1.1767578125
12.5145997,1.171875
12.5354882,1.1767578125
12.5437862,1.171875
12.5782165,1.171875
12.6100414,1.1767578125
12.6104472,1.201171875
12.6258562,1.2353515625
12.6474044,1.2744140625
12.6638985,1.30859375
12.7008615,1.3427734375
12.7049311,1.3720703125
12.7419738,1.4013671875
12.7464564,1.416015625
12.7813943,1.4404296875
12.7858589,1.4501953125
12.8234642,1.4599609375
12.8237079,1.4501953125
12.8584842,1.4501953125
12.8624932,1.4453125
12.8962631,1.4306640625
12.9154656,1.4208984375
12.9238236,1.40625
12.9574833,1.396484375
12.980004,1.3818359375
12.9865794,1.376953125
13.0034561,1.357421875
13.0389505,1.3525390625
13.0429642,1.337890625
13.0776828,1.328125
13.104607,1.3134765625
13.1049665,1.3037109375
13.1464513,1.2841796875
13.1515534,1.26953125
13.1680151,1.259765625
13.187319,1.2451171875
13.2086854,1.2060546875
13.2234754,1.171875
13.2460959,1.1865234375
13.2666326,1.1865234375
13.3064003,1.19140625
13.3068127,1.19140625
13.3409699,1.19140625
13.3452211,1.181640625
13.3814297,1.181640625
13.4174994,1.171875
13.4179027,1.171875
13.4242421,1.171875
13.4660911,1.1669921875
13.466339,1.1669921875
13.487554,1.19140625
13.5084141,1.220703125
13.5441113,1.2548828125
13.5462008,1.2939453125
13.5807974,1.3232421875
13.5849088,1.357421875
13.6206686,1.376953125
13.6259184,1.40625
13.6609484,1.4208984375
13.6658724,1.435546875
13.7027224,1.4453125
13.7235934,1.4501953125
13.724046,1.4404296875
13.7443841,1.435546875
13.7831844,1.42578125
13.783513,1.416015625
13.8302323,1.4111328125
13.830476,1.396484375
13.85782,1.38671875
13.8686965,1.3720703125
13.9190365,1.3623046875
13.919437,1.3427734375
13.9247936,1.3330078125
13.9603638,1.318359375
13.9646943,1.30859375
13.9984395,1.2939453125
14.0182838,1.2890625
14.0253725,1.2744140625
14.0595569,1.2646484375
14.0893828,1.2548828125
14.0896258,1.2451171875
14.10393,1.23046875
14.1377308,1.2353515625
14.1591327,1.23046875
14.1667678,1.220703125
14.2267581,1.2158203125
14.22745,1.2060546875
14.2321008,1.1962890625
14.2465352,1.19140625
14.2909558,1.181640625
14.291283,1.1767578125
14.3063811,1.1767578125
14.3259532,1.1865234375
14.367199,1.2109375
14.3675662,1.240234375
14.4016917,1.279296875
14.4142772,1.30859375
14.4372721,1.337890625
14.4491345,1.3720703125
14.4648641,1.38671875
14.5002751,1.40625
14.5210544,1.4208984375
14.5250619,1.4404296875
14.5589293,1.435546875
14.5804764,1.435546875
14.5877775,1.416015625
14.6221152,1.40625
14.6430209,1.38671875
14.6453953,1.38671875
14.6819199,1.376953125
14.6861275,1.3671875
14.7177065,1.357421875
14.7399744,1.34765625
14.748704,1.328125
14.7834456,1.3232421875
14.7877728,1.30859375
14.8070109,1.2890625
14.8256703,1.279296875
14.8464676,1.26953125
14.8835193,1.259765625
14.8881345,1.2451171875
14.9069076,1.240234375
14.9475872,1.2255859375
14.951815,1.2158203125
14.9709255,1.2060546875
15.0061345,1.1962890625
15.006461,1.1865234375
15.0408082,1.19140625
15.0628163,1.181640625
15.0680923,1.181640625
15.0890114,1.1865234375
15.1081641,1.1767578125
15.1492446,1.171875
15.149648,1.162109375
15.1941258,1.162109375
15.1945553,1.1669921875
15.2045899,1.19140625
15.2386544,1.2255859375
15.2599626,1.26953125
15.2668735,1.3037109375
15.3025381,1.34765625
15.3234665,1.3720703125
15.3274019,1.4013671875
15.3620268,1.4208984375
15.3808664,1.4453125
15.3848498,1.4599609375
15.4189972,1.4794921875
15.4388028,1.484375
15.4468117,1.4697265625
15.4791519,1.4599609375
15.500504,1.4404296875
15.5094533,1.42578125
15.5421338,1.4111328125
15.5461681,1.4111328125
15.5843556,1.4013671875
15.6155792,1.3916015625
15.6159753,1.376953125
15.6287975,1.3623046875
15.6766697,1.337890625
15.677003,1.328125
15.6893483,1.3037109375
15.7360937,1.259765625
15.7364486,1.2353515625
15.7478543,1.23046875
15.7675718,1.2353515625
15.8154947,1.2353515625
15.8159177,1.240234375
15.8292805,1.23046875
15.8505341,1.23046875
15.8922471,1.220703125
15.8924901,1.2109375
15.9083814,1.1962890625
15.9283279,1.19140625
15.9705147,1.1865234375
15.9707614,1.181640625
15.9895506,1.1767578125
16.0283397,1.171875
16.0333554,1.162109375
16.0498096,1.171875
16.0855854,1.19140625
16.1045563,1.2109375
16.1104617,1.2548828125
16.1285875,1.2939453125
16.1660863,1.337890625
16.1664206,1.3671875
16.2172659,1.4013671875
16.2176815,1.4208984375
16.2462827,1.4404296875
16.2468896,1.455078125
16.2830931,1.4697265625
16.2880664,1.474609375
16.3240256,1.474609375
16.3279949,1.46484375
16.3708504,1.4453125
16.3711647,1.4404296875
16.4054069,1.416015625
16.4096777,1.40625
16.42696,1.38671875
16.4661713,1.376953125
16.4665037,1.3623046875
16.5098779,1.3525390625
16.5101244,1.3330078125
16.5405067,1.318359375
16.5491065,1.298828125
16.5857572,1.2890625
16.61689,1.26953125
16.6171311,1.259765625
16.6282699,1.2451171875
16.6480421,1.2353515625
16.6840848,1.220703125
16.7045452,1.220703125
16.7087311,1.2158203125
16.7447746,1.201171875
16.7743419,1.19140625
16.7747748,1.1865234375
16.7924115,1.1767578125
16.8089048,1.1669921875
16.8420715,1.1669921875
16.8626832,1.162109375
16.8685496,1.1572265625
16.9042983,1.1474609375
16.9251366,1.142578125
16.9323076,1.142578125
16.9532576,1.1572265625
16.9683953,1.181640625
16.9890407,1.2255859375
17.0091559,1.2744140625
17.0464833,1.3037109375
17.0523193,1.337890625
17.0705349,1.3623046875
17.1241709,1.3916015625
17.1245543,1.40625
17.1418906,1.42578125
17.1481845,1.4306640625
17.1891714,1.435546875
17.1895624,1.435546875
17.2103936,1.4306640625
17.2310549,1.4111328125
17.2673129,1.4013671875
17.272845,1.38671875
17.3084722,1.376953125
17.3109744,1.357421875
17.3312425,1.318359375
17.3640468,1.2890625
17.3692058,1.259765625
17.4061544,1.2744140625
17.4109943,1.2744140625
17.4476801,1.279296875
17.4497038,1.26953125
17.4840673,1.2646484375
17.5044413,1.25
17.5132597,1.240234375
17.5285509,1.23046875
17.5695148,1.2255859375
17.5999931,1.2158203125
17.6002328,1.2255859375
17.6103054,1.2158203125
17.645903,1.2060546875
17.6695292,1.2109375
17.6740722,1.1962890625
17.6935103,1.19140625
17.7098103,1.1767578125
17.756282,1.1767578125
17.7565267,1.171875
17.7719286,1.171875
17.8173574,1.1767578125
17.8177285,1.1962890625
17.8321127,1.220703125
17.8652716,1.259765625
17.885388,1.2890625
17.8874572,1.3232421875
17.921029,1.34765625
17.9429117,1.3720703125
17.9520075,1.38671875
17.9708658,1.4013671875
17.9929616,1.416015625
18.0130185,1.4111328125
18.0489495,1.4111328125
18.0493672,1.4013671875
18.0843396,1.3916015625
18.1172134,1.38671875
18.1175628,1.3916015625
18.1308058,1.3818359375
18.1689345,1.376953125
18.1693493,1.3671875
18.2104999,1.3525390625
18.2309639,1.337890625
18.2328822,1.3232421875
18.2499789,1.3037109375
18.2894489,1.2939453125
18.3245551,1.2890625
18.3248303,1.279296875
18.3319797,1.2646484375
18.3518518,1.2548828125
18.3881207,1.25
18.3922658,1.2353515625
18.4252083,1.2255859375
18.4453793,1.2109375
18.4493048,1.2060546875
18.4897348,1.1962890625
18.5183942,1.1962890625
18.5186431,1.19140625
18.5333454,1.1865234375
18.581123,1.181640625
18.5814511,1.1767578125
18.5877297,1.162109375
18.6205212,1.1669921875
18.6406114,1.171875
18.6515522,1.171875
18.6884126,1.1962890625
18.6917155,1.2255859375
18.741051,1.2646484375
18.7413514,1.298828125
18.7545173,1.337890625
18.7713595,1.3623046875
18.807008,1.3916015625
18.80929,1.416015625
18.846401,1.435546875
18.8790184,1.455078125
18.8792807,1.4697265625
18.8923612,1.46484375
18.9285742,1.4599609375
18.9337765,1.455078125
18.9489779,1.435546875
18.986154,1.42578125
19.0072633,1.4111328125
19.0118572,1.40625
19.0564491,1.3916015625
19.0606462,1.376953125
19.0741903,1.3623046875
19.1088353,1.34765625
19.113239,1.328125
19.148146,1.3232421875
19.1810908,1.3037109375
19.1813364,1.2939453125
19.1896839,1.2841796875
19.2218038,1.2744140625
19.2442229,1.2548828125
19.252789,1.2548828125
19.2865705,1.2451171875
19.3083974,1.23046875
19.3129689,1.220703125
19.347967,1.2109375
19.3525455,1.2060546875
19.3719478,1.201171875
19.407152,1.1962890625
19.411169,1.19140625
19.4453893,1.181640625
19.4641595,1.171875
19.4736076,1.1669921875
19.5066289,1.1572265625
19.5116387,1.1572265625
19.5470599,1.1572265625
19.5522846,1.1669921875
19.5860222,1.1962890625
19.6054731,1.2255859375
19.6127951,1.2646484375
19.6486558,1.298828125
19.6691518,1.3330078125
19.6694556,1.3525390625
19.7142198,1.3818359375
19.7147714,1.4013671875
19.7340434,1.4208984375
19.7537754,1.4306640625
19.7884568,1.4404296875
19.7929978,1.4306640625
19.8283131,1.42578125
19.8502092,1.40625
19.8574893,1.3623046875
19.8733702,1.328125
19.891975,1.3427734375
19.9129769,1.3525390625
19.9571361,1.34765625
19.9573823,1.3427734375
19.9754209,1.3330078125
20.0107204,1.318359375
20.0130816,1.3037109375
20.046052,1.2890625
20.0679116,1.26953125
20.0734269,1.259765625
20.1134136,1.25
20.1136578,1.240234375
20.1511737,1.23046875
20.1560577,1.23046875
20.174465,1.2255859375
20.2099812,1.2255859375
20.2387818,1.2255859375
20.2391008,1.2158203125
20.2507931,1.2109375
20.2829151,1.2060546875
20.3037152,1.2060546875
20.312278,1.19140625
20.333924,1.1865234375
20.3677493,1.1767578125
20.3889027,1.171875
20.3907316,1.1669921875
20.4263741,1.171875
20.4477147,1.181640625
20.4525357,1.2158203125
20.4886588,1.25
20.4932988,1.2890625
20.5267069,1.3134765625
20.5491,1.3427734375
20.5562962,1.3671875
20.5717261,1.376953125
20.59552,1.396484375
20.6136207,1.40625
20.6572174,1.416015625
20.6576039,1.4111328125
20.6750927,1.4111328125
20.6945432,1.396484375
20.7362291,1.38671875
20.7640295,1.376953125
20.7643542,1.3720703125
20.7753664,1.357421875
20.7976088,1.357421875
20.8133944,1.3427734375
20.8493681,1.3330078125
20.8692755,1.3232421875
20.8752983,1.3037109375
20.9207158,1.2890625
20.9209858,1.2744140625
20.9423473,1.2646484375
20.9545648,1.25
20.9728026,1.2451171875
21.0133379,1.240234375
21.0135903,1.2353515625
21.0498506,1.2255859375
21.0757743,1.220703125
21.0760215,1.2109375
21.121002,1.2060546875
21.1212464,1.1962890625
21.1317131,1.19140625
21.1661236,1.181640625
21.1849117,1.1865234375
21.1951868,1.1865234375
21.2323238,1.181640625
21.2369479,1.1767578125
21.2732671,1.1767578125
21.2776234,1.19140625
21.2928448,1.2109375
21.3147673,1.2451171875
21.339819,1.2841796875
21.3544234,1.318359375
21.3754694,1.34765625
21.3950153,1.3671875
21.4159232,1.38671875
21.461658,1.4013671875
21.4618985,1.416015625
21.4927138,1.396484375
21.4967627,1.3818359375
21.5295865,1.357421875
21.5396993,1.3720703125
21.5548808,1.376953125
21.601153,1.3818359375
21.6013953,1.376953125
21.6156462,1.376953125
21.6632148,1.3623046875
21.6636167,1.357421875
21.672595,1.337890625
21.7101182,1.337890625
21.731615,1.328125
21.7359545,1.318359375
21.7879689,1.3037109375
21.7882139,1.2939453125
21.7966433,1.2744140625
21.8351087,1.26953125
21.8533458,1.2548828125
21.8537094,1.240234375
21.8876362,1.23046875
21.9078691,1.220703125
21.9146422,1.2158203125
21.9507459,1.2109375
21.9714546,1.2060546875
21.9764507,1.201171875
22.009777,1.19140625
22.0306388,1.1865234375
22.0331197,1.181640625
22.0745839,1.1767578125
22.0749579,1.1767578125
22.1091287,1.1669921875
22.128677,1.1669921875
22.1357943,1.1669921875
22.1712561,1.171875
22.176026,1.201171875
22.2106958,1.2353515625
22.2130849,1.2890625
22.2585445,1.3232421875
22.2589399,1.357421875
22.2791044,1.3818359375
22.311688,1.40625
22.3161451,1.4208984375
22.354834,1.435546875
22.3567229,1.4404296875
22.3906311,1.4453125
22.409684,1.4404296875
22.4146567,1.435546875
22.4484085,1.4208984375
22.4678063,1.416015625
22.4760871,1.40625
22.4967965,1.396484375
22.5401857,1.38671875
22.5405099,1.3671875
22.5703676,1.357421875
22.5752216,1.337890625
22.6015509,1.328125
22.6180588,1.3134765625
22.6366089,1.298828125
22.6727396,1.2841796875
22.6775334,1.26953125
22.7280341,1.2548828125
22.7283979,1.2451171875
22.7342659,1.23046875
22.7689498,1.220703125
22.7899015,1.220703125
22.7951827,1.2109375
22.8299826,1.201171875
22.8503511,1.19140625
22.8568249,1.1865234375
22.8993736,1.1767578125
22.8997816,1.171875
22.9153399,1.162109375
22.9613419,1.1572265625
22.9616724,1.15234375
22.9754861,1.15234375
23.0101879,1.1474609375
23.0328075,1.1474609375
23.0371378,1.15234375
23.0847758,1.171875
23.0851285,1.1962890625
23.106429,1.2451171875
23.1204464,1.2890625
23.1362905,1.2841796875
23.1571048,1.318359375
23.1922192,1.34765625
23.1979673,1.3720703125
23.2342389,1.3916015625
23.2385903,1.4111328125
23.2863102,1.416015625
23.2865545,1.416015625
23.2944967,1.4013671875
23.3294517,1.396484375
23.3498292,1.38671875
23.3558595,1.3818359375
23.3896899,1.3671875
23.4093831,1.357421875
23.4198938,1.34765625
23.4381215,1.3330078125
23.4886218,1.3232421875
23.4890234,1.3037109375
23.5082334,1.2939453125
23.5160319,1.2841796875
23.5665512,1.2744140625
23.5668927,1.2646484375
23.597842,1.2548828125
23.5980912,1.240234375
23.6425484,1.2353515625
23.6429591,1.220703125
23.6552291,1.220703125
23.6898666,1.2109375
23.7100111,1.2109375
23.719458,1.201171875
23.737818,1.201171875
23.7849571,1.1962890625
23.7852934,1.1865234375
23.814434,1.1767578125
23.8147726,1.1669921875
23.861239,1.1669921875
23.861552,1.162109375
23.8825302,1.1669921875
23.8978815,1.171875
23.9339711,1.19140625
23.939561,1.220703125
23.9597214,1.259765625
23.9797491,1.2890625
23.9996783,1.2939453125
24.0178151,1.2939453125
24.0650237,1.3330078125
24.0652754,1.3671875
24.0780277,1.3916015625
24.1256762,1.40625
24.1259218,1.4111328125
24.1398013,1.4111328125
24.1889639,1.396484375
24.1895812,1.38671875
24.1960176,1.3720703125
24.2380475,1.3671875
24.2383318,1.3623046875
24.2579829,1.3671875
24.29485,1.357421875
24.2993405,1.357421875
24.3242096,1.337890625
24.3394928,1.3330078125
24.3580821,1.30859375
24.3762688,1.3037109375
24.4162608,1.2939453125
24.4455394,1.2841796875
24.4459515,1.2744140625
24.4620919,1.259765625
24.4793938,1.25
24.5264607,1.240234375
24.5267536,1.23046875
24.5375131,1.220703125
24.5752346,1.2109375
24.5756013,1.2060546875
24.6117373,1.2060546875
24.635409,1.1962890625
24.6383322,1.19140625
24.6737948,1.1865234375
24.6966117,1.1767578125
24.7008192,1.1767578125
24.7178531,1.1669921875
24.7373901,1.171875
24.7750256,1.171875
24.7793061,1.1962890625
24.8149118,1.220703125
24.8196395,1.2646484375
24.8545061,1.2939453125
24.8762025,1.3330078125
24.8804486,1.3525390625
24.9176413,1.3818359375
24.917986,1.396484375
24.937811,1.4208984375
24.9730506,1.4404296875
24.9965251,1.4501953125
24.996858,1.4453125
25.0322806,1.4501953125
25.0524239,1.4404296875
25.0619331,1.4208984375
25.0984882,1.4111328125
25.0988112,1.396484375
25.1190984,1.38671875
25.1648008,1.3720703125
25.1651244,1.3623046875
25.1805434,1.34765625
25.2266816,1.337890625
25.2269816,1.318359375
25.2423382,1.3037109375
25.2570728,1.2841796875
25.3039259,1.279296875
25.3042842,1.26953125
25.3240909,1.2646484375
25.3380913,1.259765625
25.3721821,1.25
25.3929109,1.240234375
25.3994642,1.23046875
25.4406466,1.220703125
25.4570729,1.2060546875
25.4574954,1.201171875
25.492009,1.19140625
25.520429,1.1865234375
25.5207966,1.1767578125
25.5394307,1.1767578125
25.5761742,1.1669921875
25.5956287,1.162109375
25.5994197,1.15234375
25.6336204,1.1181640625
25.6535435,1.09375
25.6581608,1.1328125
25.7027295,1.1767578125
25.7030924,1.2158203125
25.7248218,1.259765625
25.7423724,1.2939453125
25.7783875,1.328125
25.7807362,1.3525390625
25.8151599,1.3818359375
25.839513,1.4013671875
25.8435887,1.4208984375
25.8600948,1.4306640625
25.9025521,1.4404296875
25.903132,1.4306640625
25.9212643,1.4208984375
25.9634893,1.4013671875
25.9639031,1.3916015625
25.9799496,1.3818359375
26.0156816,1.3671875
26.0181092,1.357421875
26.0520293,1.34765625
26.072676,1.3427734375
26.0792045,1.328125
26.1126986,1.3134765625
26.1341572,1.2939453125
26.1426731,1.279296875
26.158249,1.259765625
26.1931747,1.25
26.2138256,1.2353515625
26.2197235,1.23046875
26.255811,1.2158203125
26.2606399,1.2109375
26.2960117,1.1962890625
26.3176186,1.201171875
26.3221574,1.201171875
26.3394421,1.19140625
26.3818961,1.19140625
26.3825685,1.19140625
26.4026536,1.19140625
26.4448617,1.1865234375
26.4451662,1.181640625
26.4617065,1.171875
26.4959043,1.1669921875
26.5177209,1.162109375
26.5230449,1.171875
26.5412771,1.1962890625
26.5593602,1.240234375
26.5955611,1.2744140625
26.6172237,1.30859375
26.6203764,1.3427734375
26.6551319,1.3623046875
26.6786958,1.3818359375
26.6807401,1.3916015625
26.7145725,1.40625
26.7364028,1.4111328125
26.7422623,1.416015625
26.7609707,1.4111328125
26.7814229,1.4013671875
26.8186525,1.38671875
26.8227575,1.3818359375
26.8634816,1.3671875
26.8639391,1.3623046875
26.8805643,1.34765625
26.9008834,1.337890625
26.9200884,1.328125
26.9579506,1.318359375
26.962292,1.3037109375
26.9972491,1.2890625
27.001248,1.26953125
27.0339841,1.259765625
27.0546369,1.2451171875
27.0586477,1.2353515625
27.0908836,1.23046875
27.1137242,1.220703125
27.1216913,1.2158203125
27.1432335,1.2109375
27.1622748,1.201171875
27.1843389,1.19140625
27.202609,1.1865234375
27.2209377,1.1767578125
27.2666705,1.171875
27.266998,1.1767578125
27.2803705,1.1328125
27.3313144,1.142578125
27.3316469,1.142578125
27.341973,1.162109375
27.3823771,1.1767578125
27.3832904,1.2109375
27.4035519,1.2451171875
27.4363312,1.279296875
27.4566529,1.30859375
27.4625906,1.34765625
27.4971362,1.3720703125
27.5012376,1.4013671875
27.5375046,1.416015625
27.5685736,1.435546875
27.569128,1.4404296875
27.5846013,1.4501953125
27.6055254,1.4453125
27.6207264,1.42578125
27.6608613,1.4208984375
27.661135,1.40625
27.6983509,1.4013671875
27.7004853,1.38671875
27.7349924,1.3720703125
27.7804837,1.357421875
27.7808959,1.34765625
27.7853459,1.328125
27.8019835,1.318359375
27.838949,1.298828125
27.8428908,1.2939453125
27.8642849,1.279296875
27.8879266,1.2744140625
27.904058,1.2646484375
27.9383377,1.25
27.9423971,1.240234375
27.9846128,1.2255859375
27.9887578,1.2255859375
28.0031144,1.2158203125
28.0480945,1.2158203125
28.0485041,1.2060546875
28.0652133,1.201171875
28.0843103,1.19140625
28.1212717,1.19140625
28.1254948,1.1767578125
28.1702204,1.142578125
28.170563,1.142578125
28.1817091,1.1474609375
28.2170008,1.15234375
28.2220058,1.162109375
28.2563184,1.19140625
28.2776581,1.220703125
28.2849088,1.2646484375
28.3255637,1.2939453125
28.3261559,1.328125
28.341572,1.3623046875
28.3760101,1.4013671875
28.3963723,1.4306640625
28.402654,1.4599609375
28.4401491,1.4697265625
28.4443619,1.484375
28.491684,1.4794921875
28.4986056,1.474609375
28.5005741,1.455078125
28.5452795,1.4453125
28.5455242,1.435546875
28.5651683,1.416015625
28.5969499,1.40625
28.6019059,1.38671875
28.6395344,1.3720703125
28.6652446,1.3525390625
28.665567,1.337890625
28.6822353,1.318359375
28.7206431,1.3037109375
28.7208859,1.2890625
28.7576346,1.279296875
28.7773337,1.259765625
28.7832587,1.25
28.8155746,1.2353515625
28.8383951,1.2255859375
28.8429469,1.2109375
28.8804292,1.2158203125
28.8806962,1.2158203125
28.9270686,1.2109375
28.9273112,1.2060546875
28.945568,1.1962890625
28.9650715,1.19140625
29.0048932,1.181640625
29.0051415,1.1767578125
29.0440048,1.1669921875
29.0444792,1.162109375
29.0785472,1.15234375
29.0835112,1.15234375
29.1088103,1.1572265625
29.1240016,1.1865234375
29.1457241,1.2158203125
29.1651753,1.2548828125
29.2078768,1.298828125
29.2081928,1.3232421875
29.226671,1.3525390625
29.2436631,1.3671875
29.2855805,1.4013671875
29.2858352,1.416015625
29.3054128,1.435546875
29.3404497,1.435546875
29.3448441,1.435546875
29.3774925,1.4208984375
29.3977535,1.416015625
29.4028521,1.4013671875
29.4231725,1.396484375
29.4693139,1.38671875
29.4695559,1.376953125
29.4833914,1.357421875
29.5157668,1.3525390625
29.535501,1.337890625
29.5452885,1.3232421875
29.5956511,1.30859375
29.5960114,1.2939453125
29.6034016,1.2841796875
29.6390425,1.2744140625
29.6436066,1.2646484375
29.678278,1.2548828125
29.6988467,1.240234375
29.7056954,1.23046875
29.7518321,1.2158203125
29.7521924,1.2060546875
29.7649237,1.171875
29.7992656,1.1474609375
29.8180702,1.1572265625
29.8239829,1.1767578125
29.8585496,1.171875
29.8797132,1.171875
29.8862613,1.1669921875
29.9217271,1.171875
29.9262467,1.1669921875
29.9615553,1.171875
29.9830039,1.181640625
29.9832807,1.220703125
30.0273967,1.2548828125
30.0276373,1.298828125
30.0460523,1.328125
30.0886703,1.3623046875
30.0889907,1.38671875
30.1084317,1.40625
30.1246487,1.4208984375
30.1614674,1.4453125
30.1639034,1.4599609375
30.1976866,1.455078125
30.2178841,1.4501953125
30.224884,1.4306640625
30.2603828,1.416015625
30.2646167,1.396484375
30.2986137,1.3818359375
30.3293782,1.3671875
30.329696,1.357421875
30.3448354,1.3427734375
30.3921908,1.3330078125
30.3924487,1.318359375
30.4204622,1.318359375
30.4269165,1.3037109375
30.4625093,1.2890625
30.4666634,1.279296875
30.4833138,1.259765625
30.519115,1.25
30.5261707,1.2451171875
30.5618667,1.2353515625
30.5638806,1.220703125
30.5971615,1.2158203125
30.6192162,1.201171875
30.6264203,1.1962890625
30.6702143,1.1865234375
30.6706171,1.181640625
30.690106,1.171875
30.7043509,1.171875
30.7477868,1.1669921875
30.7481972,1.1669921875
30.7682514,1.1572265625
30.7878484,1.162109375
30.8348067,1.162109375
30.8352011,1.1572265625
30.8491059,1.1669921875
30.864206,1.1865234375
30.9106325,1.220703125
30.9109683,1.259765625
30.930066,1.30859375
30.9456799,1.3427734375
30.9810038,1.376953125
31.003069,1.4013671875
31.0081079,1.42578125
31.0250419,1.4404296875
31.0648157,1.46484375
31.0650836,1.474609375
31.0992999,1.474609375
31.127568,1.46484375
31.1279884,1.4453125
31.1763743,1.4306640625
31.1767025,1.4111328125
31.2074853,1.4013671875
31.2078703,1.3818359375
31.2330974,1.3720703125
31.2465192,1.357421875
31.2651172,1.3427734375
31.3105016,1.3232421875
31.310893,1.30859375
31.3315515,1.2890625
31.3486257,1.2744140625
31.364422,1.2548828125
31.4000093,1.2451171875
31.4040853,1.23046875
31.4365204,1.2255859375
31.4571418,1.2255859375
31.4662304,1.2109375
31.5005555,1.2060546875
31.5278793,1.1962890625
31.5281788,1.19140625
31.5767701,1.181640625
31.5771099,1.1767578125
31.5853086,1.1669921875
31.6228195,1.162109375
31.6527331,1.1572265625
31.6530565,1.1572265625
31.6660348,1.15234375
31.7010327,1.1572265625
31.7370765,1.1572265625
31.7414882,1.171875
31.75008,1.2060546875
31.7673305,1.23046875
31.8017261,1.26953125
31.8058691,1.3037109375
31.8428241,1.3427734375
31.8476599,1.3671875
31.8843802,1.3916015625
31.8888453,1.40625
31.9342565,1.4208984375
31.9346493,1.4208984375
31.9549226,1.435546875
31.9669309,1.42578125
32.0021651,1.4208984375
32.0059374,1.40625
32.0404248,1.3916015625
32.0593209,1.376953125
32.0685041,1.3720703125
32.089731,1.357421875
32.1064258,1.3427734375
32.1533507,1.3330078125
32.1537308,1.318359375
32.1666431,1.30859375
32.215081,1.2939453125
32.2153512,1.2841796875
32.2358146,1.2646484375
32.2471718,1.25
32.2970242,1.2353515625
32.2973462,1.220703125
32.3420452,1.2060546875
32.3422897,1.201171875
32.3484337,1.1962890625
32.3834345,1.19140625
32.3881219,1.1865234375
32.4238008,1.1767578125
32.4277973,1.171875
32.4624608,1.1669921875
32.4844849,1.171875
32.4877848,1.1572265625
32.5242725,1.162109375
32.5287143,1.1572265625
32.5472593,1.162109375
32.5828443,1.162109375
32.6042393,1.181640625
32.6085441,1.2060546875
32.6505159,1.25
32.6507637,1.279296875
32.6664553,1.3232421875
32.7125362,1.3525390625
32.713088,1.3916015625
32.7281112,1.4208984375
32.7750186,1.4404296875
32.7752632,1.455078125
32.790748,1.46484375
32.8362898,1.46484375
32.8365793,1.455078125
32.8466943,1.4501953125
32.8822186,1.435546875
32.8872634,1.42578125
32.9087845,1.40625
32.9463607,1.396484375
32.9467705,1.376953125
32.993291,1.3623046875
32.9935596,1.3427734375
33.0078896,1.3330078125
33.0429015,1.328125
33.0458947,1.30859375
33.0802157,1.2939453125
33.0995565,1.2744140625
33.1095708,1.2646484375
33.1480013,1.25
33.1483512,1.240234375
33.1832142,1.220703125
33.2048666,1.2109375
33.2052379,1.1962890625
33.2485532,1.1962890625
33.2491497,1.1865234375
33.2699091,1.181640625
33.3073358,1.1767578125
33.3076894,1.171875
33.3434098,1.1572265625
33.3731933,1.1572265625
33.3735941,1.15234375
33.386511,1.1376953125
33.4215468,1.1376953125
33.4509999,1.1376953125
33.4512595,1.1376953125
33.4862004,1.142578125
33.4926173,1.1669921875
33.5104459,1.1962890625
33.5611921,1.240234375
33.561523,1.2744140625
33.5899111,1.318359375
33.5901679,1.3525390625
33.623016,1.3916015625
33.6277181,1.416015625
33.6593977,1.4404296875
33.6842813,1.4599609375
33.6915332,1.46484375
33.7309101,1.46484375
33.7312367,1.4501953125
33.7634941,1.4453125
33.7686107,1.42578125
33.808054,1.4111328125
33.8084913,1.396484375
33.8530804,1.3818359375
33.8533742,1.3671875
33.8747153,1.357421875
33.8910405,1.3330078125
33.913105,1.2890625
33.9284235,1.25
33.9647796,1.25
33.9703571,1.2451171875
34.0084737,1.25
34.013214,1.2451171875
34.0314389,1.23046875
34.0789642,1.2255859375
34.0792126,1.2109375
34.0920166,1.201171875
34.1074009,1.1865234375
34.1420497,1.181640625
34.1618593,1.171875
34.1699677,1.1669921875
34.2047562,1.162109375
34.2265434,1.15234375
34.2309447,1.1474609375
34.2823502,1.142578125
34.2825923,1.1376953125
34.2996035,1.1376953125
34.3092653,1.142578125
34.3443635,1.1328125
34.363233,1.1376953125
34.36928,1.142578125
34.4029975,1.1767578125
34.4234255,1.2109375
34.4321175,1.2548828125
34.4491796,1.2841796875
34.487991,1.3232421875
34.4892322,1.3525390625
34.5090859,1.396484375
34.5495592,1.416015625
34.5800985,1.4404296875
34.5803617,1.4453125
34.5935835,1.4501953125
34.6098082,1.4404296875
34.6462191,1.4404296875
34.6464731,1.4306640625
34.6821449,1.416015625
34.7025187,1.40625
34.7103819,1.3916015625
34.7481593,1.376953125
34.7530598,1.3623046875
34.7877345,1.34765625
34.7916667,1.328125
34.8272602,1.3134765625
34.829944,1.2939453125
34.8673276,1.2841796875
34.8700731,1.2744140625
34.9073331,1.26953125
34.9114713,1.259765625
34.9325976,1.2451171875
34.9679885,1.240234375
34.9722139,1.220703125
35.0128309,1.2158203125
35.0132301,1.201171875
35.030487,1.2060546875
35.0750026,1.1962890625
35.0752704,1.1962890625
35.0915191,1.19140625
35.1279754,1.1865234375
35.1324749,1.1767578125
35.1678126,1.1767578125
35.1681337,1.1669921875
35.2020764,1.1669921875
35.2226375,1.1669921875
35.2295834,1.1865234375
35.2632617,1.2060546875
35.2852892,1.25
35.2929549,1.2890625
35.3411391,1.318359375
35.3414514,1.3525390625
35.3491391,1.3720703125
35.3830191,1.396484375
35.4191654,1.416015625
35.4194214,1.435546875
35.4302422,1.4404296875
35.4518637,1.4404296875
35.5017094,1.4306640625
35.5023149,1.416015625
35.5071441,1.4013671875
35.5424158,1.4013671875
35.5643434,1.3525390625
35.5695931,1.3525390625
35.6055756,1.357421875
35.6258183,1.34765625
35.6300583,1.337890625
35.6647183,1.3232421875
35.7000989,1.3134765625
35.7044283,1.298828125
35.7139315,1.2841796875
35.7293635,1.2646484375
35.7521391,1.2548828125
35.7869274,1.2451171875
35.791253,1.240234375
35.8280921,1.23046875
35.8329412,1.220703125
35.8679761,1.2060546875
35.8725418,1.201171875
35.9066066,1.1865234375
35.9106251,1.1865234375
35.9479455,1.1865234375
35.9524466,1.1767578125
36.0034632,1.1767578125
36.0037093,1.1669921875
36.0136929,1.162109375
36.0327501,1.1474609375
36.081133,1.1474609375
36.0815286,1.1376953125
36.1006213,1.1474609375
36.1126648,1.162109375
36.1559482,1.19140625
36.1562976,1.2255859375
36.1736858,1.2744140625
36.192273,1.30859375
36.2321778,1.34765625
36.234113,1.3818359375
36.2517642,1.4013671875
36.2709992,1.4306640625
36.3080715,1.4501953125
36.3122812,1.474609375
36.3478332,1.4794921875
36.3521341,1.4794921875
36.3863974,1.46484375
36.4077931,1.4453125
36.4152388,1.42578125
36.4525805,1.4111328125
36.453161,1.3916015625
36.4712522,1.3818359375
36.5146137,1.3671875
36.5313511,1.3525390625
36.5315924,1.3330078125
36.5643932,1.3330078125
36.5842892,1.3232421875
36.5942278,1.3037109375
36.6265808,1.2890625
36.6481033,1.26953125
36.6509986,1.259765625
36.6858915,1.25
36.7075629,1.2451171875
36.7140721,1.2353515625
36.7501848,1.2255859375
36.7522654,1.2109375
36.7881932,1.201171875
36.8090868,1.19140625
36.8111721,1.19140625
36.8329193,1.181640625
36.8547323,1.1767578125
36.8725514,1.1767578125
36.9112682,1.1669921875
36.9322753,1.1572265625
36.9325298,1.1474609375
36.9786716,1.1474609375
36.9790297,1.1376953125
37.0099569,1.142578125
37.010311,1.1474609375
37.0515067,1.181640625
37.0517496,1.2158203125
37.0744204,1.2646484375
37.092576,1.298828125
37.1285461,1.3427734375
37.1508721,1.3671875
37.1512627,1.396484375
37.198489,1.416015625
37.1987943,1.4453125
37.2126348,1.4599609375
37.2493797,1.4599609375
37.2538054,1.455078125
37.2879597,1.4404296875
37.3092117,1.42578125
37.3164662,1.40625
37.3610823,1.3916015625
37.361348,1.3818359375
37.3710114,1.3671875
37.4076245,1.357421875
37.4275821,1.3427734375
37.4320238,1.328125
37.4643375,1.3134765625
37.4855268,1.298828125
37.4955073,1.2841796875
37.5319563,1.2744140625
37.5327587,1.2548828125
37.5546531,1.25
37.5944366,1.2353515625
37.5948233,1.2353515625
37.6331819,1.2255859375
37.633516,1.2255859375
37.6622059,1.2109375
37.6757513,1.2060546875
37.6965339,1.19140625
37.712497,1.1962890625
37.7510004,1.1865234375
37.7720805,1.1865234375
37.7723271,1.1767578125
37.8118792,1.1669921875
37.8331136,1.1572265625
37.8334702,1.1572265625
37.8678564,1.15234375
37.8890033,1.1572265625
37.8933382,1.181640625
37.9356411,1.2158203125
37.9362589,1.259765625
37.9536236,1.298828125
37.9994199,1.337890625
37.9996876,1.3623046875
38.016429,1.38671875
38.0361208,1.40625
38.0560834,1.3916015625
38.0731741,1.376953125
38.1103879,1.40625
38.1156623,1.416015625
38.1507223,1.416015625
38.1526697,1.4111328125
38.1850054,1.396484375
38.2054969,1.38671875
38.2158146,1.3720703125
38.2488912,1.3623046875
38.2699853,1.34765625
38.2748734,1.337890625
38.3133018,1.3232421875
38.3137594,1.3134765625
38.3674062,1.298828125
38.3677151,1.2890625
38.3854197,1.26953125
38.3973041,1.2548828125
38.4128001,1.240234375
38.462763,1.23046875
38.4631538,1.220703125
38.4913644,1.2158203125
38.4937927,1.2109375
38.5258352,1.201171875
38.5538892,1.19140625
38.5544729,1.1767578125
38.6061463,1.171875
38.6064091,1.162109375
38.6242557,1.1669921875
38.6336394,1.171875
38.6692479,1.171875
38.6740253,1.1669921875
38.7143007,1.162109375
38.7146467,1.1572265625
38.7497067,1.1669921875
38.7708041,1.1767578125
38.7726952,1.2109375
38.8082753,1.259765625
38.8296782,1.298828125
38.8338372,1.3427734375
38.8736465,1.376953125
38.8782555,1.4111328125
38.8966871,1.4306640625
38.9354092,1.455078125
38.9359396,1.46484375
38.9706755,1.4794921875
38.9917287,1.4794921875
38.9936696,1.4794921875
39.0276958,1.46484375
39.0496009,1.4501953125
39.0542918,1.4306640625
39.0916029,1.416015625
39.1169715,1.396484375
39.1173251,1.3916015625
39.1611607,1.3818359375
39.1614543,1.3623046875
39.174721,1.3525390625
39.224971,1.337890625
39.2252956,1.3232421875
39.2545368,1.30859375
39.2575123,1.2939453125
39.3023966,1.279296875
39.3027512,1.2646484375
39.31405,1.2451171875
39.3465531,1.2353515625
39.3681457,1.2255859375
39.3739104,1.220703125
39.4095038,1.2109375
39.4284631,1.201171875
39.4369348,1.1962890625
39.4733167,1.181640625
39.4788274,1.1767578125
39.4944533,1.1669921875
39.5319695,1.1669921875
39.534871,1.162109375
39.5799185,1.1572265625
39.5805081,1.1474609375
39.6102602,1.1474609375
39.6152179,1.142578125
39.6487325,1.1572265625
39.6683723,1.1767578125
39.6789112,1.19140625
39.6949575,1.2060546875
39.7353945,1.26953125
39.7356425,1.318359375
39.7703163,1.3671875
39.7975123,1.40625
39.7979531,1.42578125
39.8168547,1.4501953125
39.8533979,1.4599609375
39.8861333,1.46484375
39.8910189,1.455078125
39.895822,1.4501953125
39.9319579,1.435546875
39.9361506,1.416015625
39.9705577,1.4013671875
39.989452,1.38671875
39.9983466,1.3671875
40.0408707,1.357421875
40.0413281,1.3427734375
40.0553146,1.3330078125
40.075876,1.328125
40.1020972,1.3134765625
40.117423,1.298828125
40.1372601,1.279296875
40.1815631,1.2744140625
40.181813,1.259765625
40.1984309,1.25
40.2161919,1.23046875
40.2509781,1.23046875
40.2548216,1.2158203125
40.2879659,1.2109375
40.3097177,1.201171875
40.3173783,1.201171875
40.3661986,1.19140625
40.3665925,1.1865234375
40.3876832,1.171875
40.3946415,1.171875
40.4347571,1.171875
40.4501721,1.162109375
40.4566433,1.1669921875
40.5023498,1.162109375
40.5066642,1.171875
40.518559,1.19140625
40.5534961,1.23046875
40.5584753,1.2646484375
40.5945351,1.3037109375
40.601295,1.3330078125
40.6181734,1.3671875
40.6372072,1.38671875
40.6577869,1.42578125
40.6950892,1.4453125
40.7175267,1.4599609375
40.7177824,1.4697265625
40.7570477,1.4599609375
40.7770484,1.4501953125
40.7774595,1.4306640625
40.8120245,1.42578125
40.8168664,1.4111328125
40.8511375,1.4013671875
40.871875,1.38671875
40.878865,1.3720703125
40.8988004,1.357421875
40.9317157,1.34765625
40.9548044,1.328125
40.955161,1.318359375
40.9947363,1.3037109375
41.0241722,1.2939453125
41.0244817,1.279296875
41.0382048,1.26953125
41.0859348,1.259765625
41.0862877,1.2451171875
41.0978485,1.2353515625
41.1309513,1.220703125
41.13505,1.2158203125
41.1691933,1.2109375
41.1944324,1.2109375
41.1998799,1.2060546875
41.2177079,1.201171875
41.2553867,1.19140625
41.2599561,1.181640625
41.2750318,1.171875
41.3183749,1.171875
41.3186155,1.1669921875
41.3585326,1.171875
41.3589418,1.1865234375
41.393453,1.2060546875
41.3999164,1.2451171875
41.435035,1.279296875
41.4399198,1.3232421875
41.4604997,1.3525390625
41.4986308,1.38671875
41.4989645,1.40625
41.5450541,1.4404296875
41.5454846,1.4599609375
41.5596883,1.4794921875
41.6088485,1.484375
41.609479,1.4794921875
41.6215262,1.4697265625
41.6400479,1.4453125
41.6729858,1.42578125
41.6771321,1.4208984375
41.7173955,1.416015625
41.7178013,1.40625
41.7371964,1.396484375
41.7762499,1.376953125
41.781514,1.3623046875
41.8145121,1.3427734375
41.8211936,1.3330078125
41.8380651,1.30859375
41.8740734,1.2939453125
41.8787784,1.2841796875
41.8980133,1.26953125
41.9361088,1.2548828125
41.9669587,1.25
41.9672494,1.23046875
41.9796354,1.220703125
42.0304789,1.2109375
42.030891,1.1962890625
42.0497618,1.1962890625
42.0581626,1.1865234375
42.0905551,1.1865234375
42.1119338,1.1767578125
42.1191152,1.171875
42.1550844,1.162109375
42.1872671,1.15234375
42.1876677,1.142578125
42.2018121,1.11328125
42.2181594,1.11328125
42.2520981,1.1376953125
42.2724151,1.162109375
42.279567,1.201171875
42.3286669,1.240234375
42.3289478,1.2890625
42.3510055,1.3330078125
42.3629173,1.357421875
42.3811957,1.3916015625
42.3992544,1.4111328125
42.4188935,1.435546875
42.456306,1.4501953125
42.4603863,1.46484375
42.4967732,1.4599609375
42.5010381,1.455078125
42.5516484,1.435546875
42.5519933,1.416015625
42.5579469,1.396484375
42.5993427,1.3916015625
42.5995977,1.376953125
42.6374999,1.3671875
42.638301,1.3525390625
42.6772778,1.3330078125
42.7068275,1.318359375
42.707149,1.3037109375
42.7213351,1.298828125
42.7381591,1.279296875
42.7737942,1.2744140625
42.8004219,1.259765625
42.8007912,1.2548828125
42.8463842,1.2451171875
42.8467949,1.240234375
42.8602023,1.220703125
42.8953117,1.2158203125
42.9158191,1.2060546875
42.9184492,1.201171875
42.9524447,1.19140625
42.9726779,1.19140625
42.9780025,1.1865234375
43.0133593,1.1767578125
43.0341705,1.171875
43.0420756,1.162109375
43.0621847,1.15234375
43.1036689,1.1474609375
43.1040391,1.15234375
43.1186567,1.1669921875
43.1658736,1.201171875
43.1663147,1.240234375
43.1867936,1.279296875
43.2017774,1.3134765625
43.2418422,1.3525390625
43.2420988,1.376953125
43.2897805,1.4013671875
43.290024,1.4208984375
43.3204575,1.4306640625
43.320765,1.4453125
43.3561661,1.4453125
43.3586971,1.4404296875
43.3976893,1.4208984375
43.4017862,1.4111328125
43.4477402,1.3916015625
43.4481028,1.3818359375
43.4587106,1.3623046875
43.480084,1.357421875
43.5155171,1.3427734375
43.5189187,1.3330078125
43.5686337,1.318359375
43.5690302,1.3037109375
43.5949325,1.2841796875
43.6034893,1.2744140625
43.640868,1.259765625
43.6417687,1.2451171875
43.6585535,1.2353515625
43.6920203,1.220703125
43.7146359,1.2158203125
43.7212894,1.2060546875
43.7580499,1.2060546875
43.7604457,1.1962890625
43.7950958,1.19140625
43.820027,1.181640625
43.8220146,1.142578125
43.8546616,1.11328125
43.8607573,1.1279296875
43.8966508,1.1376953125
43.9013732,1.1474609375
43.9226554,1.15234375
43.9424752,1.15234375
44.0036873,1.1572265625
44.0040082,1.171875
44.0042335,1.201171875
44.0503072,1.2353515625
44.0506348,1.2841796875
44.0763166,1.318359375
44.1054317,1.357421875
44.1058216,1.38671875
44.1216894,1.4208984375
44.1553637,1.435546875
44.1859865,1.455078125
44.1863926,1.4599609375
44.1982605,1.4697265625
44.2331782,1.4599609375
44.2548839,1.455078125
44.2639078,1.4453125
44.2828096,1.42578125
44.3249187,1.4111328125
44.3253192,1.396484375
44.344614,1.376953125
44.3594146,1.357421875
44.3943992,1.34765625
44.4162202,1.337890625
44.4202532,1.328125
44.4548261,1.30859375
44.4747623,1.2939453125
44.4830121,1.279296875
44.5234031,1.2646484375
44.523722,1.2451171875
44.5458771,1.240234375
44.5615674,1.2353515625
44.5960259,1.220703125
44.6041868,1.2109375
44.6225861,1.2060546875
44.6692341,1.201171875
44.6698329,1.19140625
44.6835488,1.1865234375
44.7185278,1.1767578125
44.7396797,1.171875
44.7400808,1.162109375
44.776937,1.171875
44.8059047,1.171875
44.8062136,1.1767578125
44.8245477,1.171875
44.8604271,1.1767578125
44.862376,1.181640625
44.896949,1.2109375
44.9172699,1.25
44.9218849,1.279296875
44.9582883,1.328125
44.9630202,1.3623046875
44.9814891,1.396484375
45.0158434,1.4208984375
45.0441453,1.4453125
45.0444725,1.46484375
45.0860408,1.474609375
45.0863345,1.4794921875
45.1020668,1.474609375
45.1477849,1.4599609375
45.1481308,1.4501953125
45.1640489,1.42578125
45.1893989,1.40625
45.2030975,1.396484375
45.2403856,1.376953125
45.244593,1.357421875
45.2623225,1.3330078125
45.2832124,1.328125
45.304001,1.30859375
45.3219429,1.3037109375
45.3585264,1.2841796875
45.3872833,1.26953125
45.3876977,1.25
45.4196786,1.240234375
45.4199532,1.2255859375
45.4454635,1.2158203125
45.4627634,1.171875
45.4996783,1.1767578125
45.4999324,1.171875
45.5467387,1.1767578125
45.5469827,1.1767578125
45.5638215,1.171875
45.607259,1.1669921875
45.607501,1.1572265625
45.6278568,1.15234375
45.6409441,1.142578125
45.677202,1.1474609375
45.7051316,1.142578125
45.7086352,1.142578125
45.7245378,1.1376953125
45.7696707,1.1376953125
45.7699744,1.1474609375
45.7844289,1.1865234375
45.8016835,1.2255859375
45.8421752,1.2744140625
45.8577535,1.3232421875
45.8641594,1.3525390625
45.9067454,1.38671875
45.9070426,1.4111328125
45.9248901,1.435546875
45.9658119,1.4404296875
45.966059,1.4501953125
45.9828038,1.4501953125
46.0330432,1.4453125
46.033363,1.4306640625
46.0432845,1.4208984375
46.0795904,1.4013671875
46.0990329,1.3916015625
46.1029755,1.376953125
46.1363438,1.3623046875
46.1571647,1.3427734375
46.1626259,1.337890625
46.2017415,1.328125
46.2021141,1.30859375
46.2377089,1.298828125
46.2637448,1.2841796875
46.2641545,1.26953125
46.2966062,1.25
46.316695,1.2451171875
46.3257233,1.2255859375
46.3737455,1.220703125
46.3739881,1.2060546875
46.3834053,1.201171875
46.4101331,1.1962890625
46.4243962,1.1962890625
46.4717847,1.1865234375
46.4721193,1.181640625
46.4865366,1.181640625
46.5211176,1.171875
46.525485,1.162109375
46.5416789,1.15234375
46.5754226,1.15234375
46.5966056,1.15234375
46.605471,1.15234375
46.641208,1.162109375
46.6472021,1.1962890625
46.6649752,1.23046875
46.706124,1.2744140625
46.7067528,1.30859375
46.7353289,1.34765625
46.7441657,1.376953125
46.7795048,1.4111328125
46.7833637,1.42578125
46.8154102,1.455078125
46.8357051,1.474609375
46.8444824,1.474609375
46.8775045,1.46484375
46.8970478,1.4501953125
46.90315,1.435546875
46.9351069,1.4208984375
46.9563543,1.4111328125
46.963924,1.396484375
46.9971414,1.3818359375
47.0332867,1.3671875
47.0335605,1.3525390625
47.0425151,1.3330078125
47.0936593,1.3232421875
47.0940082,1.30859375
47.1037088,1.2939453125
47.1379854,1.2841796875
47.1717375,1.2646484375
47.1721122,1.25
47.1878713,1.2353515625
47.2068766,1.2255859375
47.2258716,1.2109375
47.261733,1.201171875
47.2948772,1.1865234375
47.2952351,1.1865234375
47.304282,1.181640625
47.3420234,1.181640625
47.3441653,1.1767578125
47.3796201,1.1767578125
47.40193,1.1669921875
47.4084146,1.162109375
47.4325242,1.15234375
47.4435458,1.1572265625
47.4823071,1.15234375
47.5301547,1.15234375
47.5305786,1.1572265625
47.5330697,1.171875
47.5461431,1.201171875
47.581527,1.240234375
47.6103533,1.2841796875
47.6107205,1.3232421875
47.6366147,1.3623046875
47.6457936,1.396484375
47.695539,1.42578125
47.6958594,1.4453125
47.7061946,1.46484375
47.7419111,1.4697265625
47.7462471,1.4697265625
47.7675803,1.46484375
47.7846574,1.4453125
47.8201976,1.4306640625
47.8243496,1.416015625
47.8605437,1.40625
47.8815651,1.3916015625
47.8865127,1.3818359375
47.9209057,1.3623046875
47.9256886,1.3427734375
47.9464076,1.3232421875
47.9663532,1.279296875
48.0001391,1.240234375
48.0040194,1.2451171875
48.0369946,1.2451171875
48.0579673,1.2451171875
48.0699516,1.2353515625
48.0869701,1.23046875
48.1386367,1.2255859375
48.1388925,1.2158203125
48.1559638,1.2060546875
48.1644478,1.19140625
48.1977139,1.1865234375
48.2336028,1.1767578125
48.2340093,1.171875
48.2484565,1.1669921875
48.2670498,1.162109375
48.3103387,1.15234375
48.3105901,1.1474609375
48.3368041,1.1376953125
48.3441842,1.1376953125
48.3777224,1.1328125
48.3995099,1.1328125
48.4068668,1.142578125
48.4448637,1.1572265625
48.4452778,1.1865234375
48.4808866,1.2255859375
48.5018943,1.26953125
48.5037046,1.3037109375
48.5370575,1.34765625
48.5583787,1.376953125
48.5664853,1.40625
48.587625,1.4208984375
48.6360906,1.4404296875
48.6364995,1.4453125
48.6482329,1.4453125
48.6653239,1.4306640625
48.7135352,1.416015625
48.7141926,1.4013671875
48.7275481,1.3916015625
48.7473182,1.376953125
48.7832822,1.3623046875
48.7853613,1.34765625
48.8232863,1.3330078125
48.8536929,1.318359375
48.8539358,1.3037109375
48.8682909,1.2939453125
48.8840326,1.2744140625
48.9177071,1.26953125
48.9381891,1.259765625
48.9471636,1.25
48.9814609,1.240234375
49.0084998,1.2353515625
49.0087411,1.220703125
49.0548831,1.2109375
49.0551332,1.2060546875
49.0764816,1.1962890625
49.0877911,1.19140625
49.1065756,1.19140625
49.1490594,1.19140625
49.149321,1.181640625
49.1679719,1.1767578125
49.1892586,1.162109375
49.2261128,1.1572265625
49.2264026,1.1474609375
49.2605667,1.1474609375
49.2652439,1.15234375
49.3026335,1.1669921875
49.3229701,1.19140625
49.3268567,1.23046875
49.3594905,1.2646484375
49.3798312,1.3134765625
49.3894151,1.34765625
49.4055032,1.3720703125
49.4406588,1.396484375
49.4455212,1.4208984375
49.4835319,1.435546875
49.5019621,1.4404296875
49.5083992,1.4404296875
49.5492117,1.42578125
49.5534505,1.4111328125
49.5651983,1.396484375
49.610444,1.3818359375
49.6107624,1.337890625
49.6282706,1.337890625
49.6711017,1.3330078125
49.6713507,1.3232421875
49.7183178,1.318359375
49.718895,1.298828125
49.7302762,1.2841796875
49.7782612,1.2646484375
49.7785225,1.25
49.786832,1.2353515625
49.823529,1.2255859375
49.8261489,1.2158203125
49.8720691,1.2109375
49.8724009,1.1962890625
49.9063391,1.1962890625
49.9105024,1.181640625
49.9518992,1.181640625
49.9524073,1.171875
49.9676823,1.171875
50.0091332,1.162109375
50.0096143,1.1669921875
50.0620522,1.1669921875
50.0623016,1.1572265625
50.0789757,1.1474609375
50.0900713,1.1376953125
50.1405668,1.1328125
50.1409159,1.123046875
50.1648331,1.1328125
50.1690926,1.142578125
50.205311,1.1767578125
50.2077841,1.2109375
50.2414582,1.2548828125
50.2641188,1.2939453125
50.2703371,1.3330078125
50.2862248,1.3623046875
50.3070854,1.3916015625
50.3440091,1.4306640625
50.3488023,1.4453125
50.3849436,1.4599609375
50.3874557,1.4599609375
50.422291,1.4599609375
50.4427576,1.4453125
50.4501319,1.42578125
50.4704079,1.40625
50.5160137,1.3916015625
50.5163249,1.3671875
50.5283558,1.357421875
50.5641474,1.34765625
50.5680749,1.3330078125
50.6038529,1.318359375
50.626007,1.3037109375
50.6307406,1.2841796875
50.6670013,1.2744140625
50.6717702,1.259765625
50.6875921,1.2353515625
50.7253265,1.2255859375
50.730745,1.2109375
50.7653948,1.201171875
50.7709458,1.181640625
50.80736,1.1767578125
50.8122956,1.162109375
50.8312178,1.1572265625
50.8501974,1.1474609375
50.8841808,1.142578125
50.8869588,1.1376953125
50.9215273,1.1474609375
50.9436341,1.1376953125
50.9516375,1.1376953125
50.970288,1.1376953125
51.0122288,1.1279296875
51.0124941,1.1181640625
51.0470819,1.11328125
51.0475351,1.123046875
51.0922016,1.1328125
51.0925229,1.1669921875
51.1217179,1.201171875
51.1300321,1.25
51.1628515,1.2841796875
51.1844634,1.3232421875
51.1885341,1.3427734375
51.208155,1.376953125
51.2427449,1.4013671875
51.24785,1.42578125
51.2851639,1.4306640625
51.3040249,1.4404296875
51.3085127,1.435546875
51.3417906,1.4208984375
51.3639737,1.4013671875
51.3841241,1.38671875
51.3929832,1.3671875
51.4084721,1.34765625
51.4459334,1.3427734375
51.4500769,1.3330078125
51.4976407,1.3232421875
51.4982232,1.30859375
51.5123584,1.2939453125
51.5596161,1.2744140625
51.5598685,1.259765625
51.5676752,1.240234375
51.6003733,1.23046875
51.6202969,1.2255859375
51.6288146,1.2109375
51.6633103,1.2060546875
51.6845994,1.19140625
51.6915193,1.19140625
51.7324722,1.1767578125
51.7331757,1.1669921875
51.76252,1.162109375
51.7686601,1.1572265625
51.7938509,1.15234375
51.8095848,1.15234375
51.8523201,1.142578125
51.8525872,1.142578125
51.8699824,1.1328125
51.8972068,1.1328125
51.915695,1.123046875
51.9288409,1.142578125
51.964048,1.171875
51.9679154,1.2060546875
52.0002514,1.25
52.0208086,1.2890625
52.0292367,1.328125
52.0628491,1.3525390625
52.085288,1.38671875
52.0919959,1.4013671875
52.1293804,1.3916015625
52.1626389,1.40625
52.1628845,1.4208984375
52.1713608,1.416015625
52.1909683,1.416015625
52.2112315,1.4013671875
52.2494128,1.38671875
52.2533873,1.376953125
52.2729457,1.357421875
52.3200044,1.34765625
52.3204112,1.328125
52.3417753,1.318359375
52.350482,1.30859375
52.3939579,1.2939453125
52.3942768,1.2841796875
52.4153486,1.26953125
52.4335121,1.2548828125
52.4525734,1.2451171875
52.4701977,1.23046875
52.490203,1.2255859375
52.5239072,1.2158203125
52.5460095,1.2109375
52.5528694,1.201171875
52.5973342,1.1962890625
52.5975773,1.1962890625
52.6135852,1.1865234375
52.6338238,1.1767578125
52.6499042,1.1669921875
52.6887302,1.162109375
52.6930176,1.1572265625
52.7114809,1.1572265625
52.7463514,1.1474609375
52.7672109,1.142578125
52.773341,1.1328125
52.8091231,1.1328125
52.8095251,1.1376953125
52.8450009,1.1669921875
52.8766558,1.2060546875
52.8769033,1.2548828125
52.8914709,1.30859375
52.9258207,1.3427734375
52.946595,1.3818359375
52.9507487,1.4111328125
52.9839779,1.4453125
53.005675,1.4697265625
53.0156322,1.484375
53.0321145,1.4892578125
53.0779311,1.4892578125
53.0783281,1.4794921875
53.0919949,1.4697265625
53.1270535,1.4453125
53.1313893,1.4306640625
53.1655651,1.4111328125
53.1865748,1.396484375
53.1890561,1.3720703125
53.2252199,1.3671875
53.2296267,1.357421875
53.2646214,1.337890625
53.2974725,1.328125
53.2978755,1.30859375
53.3116425,1.2939453125
53.3591271,1.2744140625
53.3593798,1.2646484375
53.3813059,1.25
53.3908682,1.240234375
53.426912,1.23046875
53.4614113,1.2255859375
53.4616892,1.2158203125
53.4727931,1.2109375
53.5088006,1.201171875
53.5382884,1.1962890625
53.5386761,1.19140625
53.5486942,1.181640625
53.5829759,1.1767578125
53.603093,1.171875
53.6095701,1.171875
53.6435175,1.162109375
53.6654565,1.1572265625
53.6752819,1.15234375
53.6940031,1.1572265625
53.7145886,1.162109375
53.7340515,1.1572265625
53.7527288,1.1669921875
53.7732636,1.2353515625
53.8098761,1.2890625
53.8143774,1.337890625
53.8488481,1.3720703125
53.853661,1.4111328125
53.8966179,1.4404296875
53.8969549,1.455078125
53.9181513,1.46484375
53.9306929,1.46484375
53.9653007,1.4599609375
53.9878543,1.4501953125
53.9924433,1.4404296875
54.0342737,1.42578125
54.0345458,1.4111328125
54.063764,1.3916015625
54.0745037,1.376953125
54.0915808,1.357421875
54.1392801,1.34765625
54.1395454,1.3330078125
54.1522018,1.3232421875
54.1916736,1.30859375
54.1922799,1.2939453125
54.2268754,1.2744140625
54.2470745,1.259765625
54.2543155,1.2451171875
54.271372,1.23046875
54.2915348,1.2255859375
54.3410472,1.2109375
54.3412937,1.2060546875
54.3621855,1.1962890625
54.3747711,1.19140625
54.4092302,1.1767578125
54.4132503,1.171875
54.4469383,1.162109375
54.4516551,1.162109375
54.4855729,1.15234375
54.5061802,1.1572265625
54.5121871,1.1572265625
54.5444095,1.1474609375
54.5653933,1.142578125
54.5737567,1.142578125
54.6082187,1.1474609375
54.6286106,1.1669921875
54.6368215,1.2060546875
54.6540141,1.2451171875
54.6732529,1.2890625
54.7264143,1.328125
54.7441901,1.3671875
54.744527,1.3916015625
54.7552303,1.416015625
54.77501,1.42578125
54.8077173,1.4404296875
54.831272,1.4453125
54.8357734,1.4306640625
54.8535744,1.4208984375
54.8897466,1.4013671875
54.8951087,1.396484375
54.9143431,1.376953125
54.9588847,1.3671875
54.9591787,1.3525390625
54.9775417,1.3427734375
54.9929439,1.328125
55.0381715,1.328125
55.0386009,1.3134765625
55.0530497,1.30859375
55.0893987,1.2939453125
55.1102064,1.279296875
55.113901,1.259765625
55.1483033,1.2548828125
55.1739154,1.240234375
55.1744882,1.2255859375
55.2201568,1.220703125
55.2204873,1.2109375
55.2358272,1.2060546875
55.2546455,1.201171875
55.2759191,1.1962890625
55.3127893,1.1865234375
55.3147218,1.181640625
55.33175,1.171875
55.3767638,1.171875
55.3769916,1.1279296875
55.4057778,1.1376953125
55.4153733,1.142578125
55.4504421,1.1474609375
55.4848411,1.162109375
55.4851949,1.1767578125
55.4956132,1.2109375
55.5447659,1.25
55.5450967,1.298828125
55.566622,1.3330078125
55.5746811,1.3720703125
55.5957722,1.40625
55.6156982,1.435546875
55.6557979,1.455078125
55.6562658,1.474609375
55.7025604,1.474609375
55.7029795,1.474609375
55.7133052,1.455078125
55.7496525,1.4404296875
55.7536754,1.42578125
55.7874403,1.416015625
55.8095748,1.40625
55.8154498,1.3916015625
55.8551813,1.3720703125
55.8555167,1.3525390625
55.8752685,1.337890625
55.908693,1.318359375
55.9125633,1.3037109375
55.948397,1.2890625
55.9693587,1.2744140625
55.9735196,1.259765625
56.0094782,1.25
56.0313772,1.2353515625
56.0378283,1.23046875
56.0525327,1.220703125
56.0896242,1.2158203125
56.1190518,1.220703125
56.1194734,1.2109375
56.134848,1.2060546875
56.1802815,1.1962890625
56.1805593,1.19140625
56.1946886,1.181640625
56.2288505,1.1767578125
56.2595038,1.162109375
56.2599429,1.1572265625
56.2742036,1.1474609375
56.320336,1.1474609375
56.3206676,1.142578125
56.3515624,1.1474609375
56.3554636,1.15234375
56.3902726,1.171875
56.4122498,1.1962890625
56.4177066,1.2451171875
56.4393051,1.2939453125
56.4557596,1.328125
56.4766529,1.3720703125
56.4955195,1.40625
56.5348849,1.4453125
56.5351555,1.4697265625
56.5690292,1.4892578125
56.5901005,1.4990234375
56.5965828,1.4990234375
56.6129125,1.484375
56.6461567,1.474609375
56.6682419,1.455078125
56.6756846,1.4404296875
56.7124647,1.4208984375
56.7166107,1.40625
56.7508707,1.3916015625
56.7847443,1.3720703125
56.7851812,1.3525390625
56.7943673,1.3330078125
56.8159564,1.318359375
56.8641838,1.298828125
56.8647613,1.2890625
56.8756599,1.26953125
56.9084219,1.2548828125
56.9301466,1.2353515625
56.9387573,1.23046875
56.9537462,1.2109375
57.0030452,1.2060546875
57.0033954,1.1962890625
57.0235339,1.19140625
57.0362782,1.1767578125
57.0781474,1.181640625
57.078479,1.181640625
57.1103745,1.171875
57.1325582,1.1669921875
57.138989,1.1572265625
57.1866162,1.15234375
57.18699,1.142578125
57.1946052,1.142578125
57.2281561,1.1376953125
57.2487758,1.1376953125
57.2569759,1.1376953125
57.2906138,1.1474609375
57.3112482,1.1669921875
57.3183779,1.2109375
57.3354107,1.25
57.3552738,1.298828125
57.3902782,1.3525390625
57.410506,1.3818359375
57.4166384,1.416015625
57.4511159,1.4306640625
57.4823052,1.455078125
57.4826306,1.46484375
57.4982029,1.4697265625
57.5175465,1.4599609375
57.5359304,1.455078125
57.5865801,1.4306640625
57.5869142,1.4208984375
57.5971515,1.4013671875
57.6495519,1.3916015625
57.6498723,1.3720703125
57.6602331,1.357421875
57.6746648,1.3330078125
57.7264104,1.328125
57.7266579,1.318359375
57.7579512,1.3037109375
57.758276,1.2890625
57.7772812,1.2744140625
57.8125762,1.259765625
57.8331324,1.2451171875
57.8381969,1.2353515625
57.8593106,1.220703125
57.8798898,1.181640625
57.8961011,1.15234375
57.9417538,1.162109375
57.9420097,1.171875
57.9588464,1.181640625
58.0046717,1.1767578125
58.0049572,1.1767578125
58.0202995,1.181640625
58.0393586,1.171875
58.0611587,1.171875
58.0773051,1.1572265625
58.1151123,1.1669921875
58.1155194,1.162109375
58.1507867,1.171875
58.1723514,1.181640625
58.1794865,1.2158203125
58.2174503,1.25
58.2178265,1.298828125
58.2379068,1.328125
58.2565086,1.3671875
58.2769933,1.38671875
58.3126884,1.416015625
58.3335108,1.42578125
58.3387879,1.4404296875
58.3591604,1.4501953125
58.4061076,1.4453125
58.4063624,1.4306640625
58.4165917,1.416015625
58.4526571,1.40625
58.4570844,1.396484375
58.491662,1.3916015625
58.5117931,1.376953125
58.5167258,1.3623046875
58.5552334,1.3427734375
58.5776891,1.3330078125
58.5780158,1.3134765625
58.5975653,1.3037109375
58.6185368,1.2890625
58.6377492,1.279296875
58.6861837,1.26953125
58.6865821,1.2548828125
58.6982236,1.2451171875
58.7329398,1.23046875
58.7539848,1.23046875
58.761345,1.2158203125
58.7820168,1.2109375
58.7976694,1.201171875
58.8404014,1.1962890625
58.8410761,1.19140625
58.8692673,1.19140625
58.8775843,1.1767578125
58.9130933,1.1767578125
58.9349161,1.1669921875
58.9417013,1.1572265625
58.9585581,1.15234375
58.9960148,1.15234375
58.9980743,1.15234375
59.0349319,1.1474609375
59.0412392,1.1572265625
59.0598179,1.1767578125
59.0965231,1.2109375
59.1014244,1.2451171875
59.1228762,1.2939453125
59.1388915,1.328125
59.1581432,1.3671875
59.1941278,1.396484375
59.1988299,1.4208984375
59.2208027,1.4404296875
59.2395242,1.4599609375
59.28332,1.46484375
59.2837296,1.4697265625
59.3137667,1.46484375
59.3185873,1.4453125
59.3400472,1.435546875
59.3587652,1.4208984375
59.3966454,1.4208984375
59.3985711,1.4111328125
59.4357137,1.396484375
59.4587169,1.3818359375
59.4611928,1.3671875
59.4757769,1.34765625
59.5106578,1.337890625
59.5431246,1.2890625
59.5434433,1.2841796875
59.5598257,1.279296875
59.6062709,1.26953125
59.606609,1.259765625
59.6209114,1.2548828125
59.6513584,1.25
59.6620115,1.240234375
59.6971278,1.23046875
59.6973819,1.2158203125
59.7323511,1.2109375
59.7569671,1.2060546875
59.7572185,1.201171875
59.8030764,1.1962890625
59.8034518,1.1865234375
59.8245219,1.181640625
59.855953,1.171875
59.8569012,1.162109375
59.9024088,1.1669921875
59.9027549,1.162109375
59.9200093,1.1572265625
59.9650028,1.1572265625
59.9652614,1.1474609375
59.9813633,1.1572265625
60.0026364,1.1669921875
60.0216223,1.2060546875
60.0404257,1.240234375
60.058272,1.2890625
60.0947487,1.328125
60.1214915,1.3671875
60.122095,1.3916015625
60.1409972,1.4208984375
60.1848033,1.4404296875
60.1851392,1.455078125
60.2154365,1.4599609375
60.2178146,1.46484375
60.2530327,1.4599609375
60.2737561,1.455078125
60.2804097,1.4404296875
60.3168213,1.42578125
60.3208965,1.416015625
60.3582634,1.396484375
60.3630661,1.3818359375
60.3826932,1.3623046875
60.4199825,1.34765625
60.4202251,1.3330078125
60.4414207,1.318359375
60.4599241,1.3037109375
60.5029284,1.2890625
60.5207215,1.2744140625
60.5209648,1.2646484375
60.5579488,1.25
60.5623157,1.240234375
60.5965122,1.23046875
60.617578,1.2158203125
60.6179366,1.2158203125
60.6533699,1.2060546875
60.6770965,1.2060546875
60.6794546,1.1962890625
60.7161101,1.19140625
60.738337,1.181640625
60.7426593,1.1767578125
60.7585485,1.1669921875
60.7947399,1.1669921875
60.815893,1.162109375
60.8209871,1.162109375
60.8560196,1.15234375
60.8604862,1.15234375
60.895097,1.1474609375
60.9422597,1.1572265625
60.9425953,1.181640625
60.9470239,1.2109375
60.9596415,1.2548828125
61.005314,1.2890625
61.0056759,1.3232421875
61.0266294,1.34765625
61.0506346,1.3720703125
61.0622857,1.38671875
61.1136985,1.4013671875
61.1140466,1.4111328125
61.1179802,1.4208984375
61.1692053,1.4208984375
61.1694764,1.435546875
61.1806935,1.4306640625
61.2169938,1.4208984375
61.2473601,1.4208984375
61.2476291,1.40625
61.2691229,1.3916015625
61.2837975,1.376953125
61.3230686,1.3671875
61.3234744,1.34765625
61.3413804,1.3330078125
61.3671191,1.3232421875
61.3822536,1.3134765625
61.4203757,1.2939453125
61.4232325,1.2890625
61.4612845,1.2744140625
61.4617016,1.2646484375
61.4967017,1.2548828125
61.4986653,1.2451171875
61.5336108,1.2353515625
61.5525995,1.2353515625
61.5619492,1.2255859375
61.600506,1.2158203125
61.6009509,1.2109375
61.6367176,1.201171875
61.6598072,1.19140625
61.6600761,1.181640625
61.6993088,1.1865234375
61.7170293,1.1767578125
61.7212359,1.1767578125
61.7673759,1.171875
61.7720362,1.171875
61.7833541,1.1669921875
61.8062939,1.181640625
61.8257446,1.201171875
61.8399084,1.2451171875
61.8751208,1.2890625
61.8951418,1.318359375
61.9020814,1.3525390625
61.9373446,1.376953125
61.9681309,1.40625
61.9728353,1.4208984375
61.9841519,1.435546875
62.0063134,1.435546875
62.025241,1.4111328125
62.0407578,1.4111328125
62.0850638,1.416015625
62.0853987,1.40625
62.1037864,1.4013671875
62.1440364,1.38671875
62.1444712,1.376953125
62.1795037,1.3623046875
62.184442,1.357421875
62.2205099,1.34765625
62.2208448,1.328125
62.2557208,1.318359375
62.2774329,1.3037109375
62.2843303,1.2939453125
62.304173,1.2744140625
62.3519238,1.2646484375
62.3521667,1.25
62.3795873,1.240234375
62.3799329,1.2255859375
62.4153109,1.2158203125
62.4360452,1.2109375
62.4431037,1.2109375
62.4780568,1.201171875
62.482255,1.1962890625
62.5156173,1.19140625
62.5492216,1.181640625
62.5495406,1.171875
62.5615627,1.1669921875
62.6113277,1.171875
62.611662,1.1669921875
62.6410116,1.171875
62.6437399,1.1669921875
62.6779946,1.1669921875
62.7044694,1.1572265625
62.7048303,1.162109375
62.7231183,1.1572265625
62.7588137,1.1767578125
62.761172,1.2060546875
62.8011697,1.2451171875
62.8259031,1.2744140625
62.8262883,1.3134765625
62.8436028,1.34765625
62.8876662,1.3720703125
62.8884615,1.396484375
62.9068393,1.416015625
62.9266985,1.4306640625
62.9429324,1.4453125
62.9796799,1.4599609375
62.9817305,1.46484375
63.0150341,1.4599609375
63.0366243,1.4501953125
63.0458629,1.4453125
63.0652597,1.435546875
63.089274,1.4306640625
63.1035522,1.4208984375
63.1513468,1.4111328125
63.1518367,1.4111328125
63.1656572,1.4013671875
63.1911342,1.3916015625
63.2052289,1.3818359375
63.2249402,1.3818359375
63.2870113,1.3720703125
63.2872606,1.3671875
63.2950588,1.357421875
63.3039019,1.3525390625
63.339557,1.3427734375
63.3437645,1.337890625
63.3794566,1.318359375
63.4128196,1.298828125
63.4130846,1.26953125
63.4287667,1.23046875
63.44181,1.19140625
63.477443,1.1767578125
63.4814834,1.162109375
63.5155418,1.1572265625
63.535973,1.1572265625
63.5436509,1.1572265625
63.5800406,1.162109375
63.6017229,1.162109375
63.60602,1.162109375
63.6263531,1.1572265625
63.6463303,1.1279296875
63.6636366,1.1181640625
63.699986,1.162109375
63.705156,1.201171875
63.7525134,1.2548828125
63.7527567,1.2890625
63.7675838,1.328125
63.7857424,1.3623046875
63.806684,1.3818359375
63.8434771,1.40625
63.8437489,1.4208984375
63.8838765,1.4306640625
63.884149,1.42578125
63.9313914,1.4111328125
63.9319821,1.3916015625
63.959549,1.3671875
63.9659111,1.3427734375
64.0043498,1.3330078125
64.0046016,1.3134765625
64.0391608,1.3134765625
64.0435333,1.30859375
64.0816616,1.30859375
64.0859,1.298828125
64.1277974,1.2890625
64.1280391,1.26953125
64.1753914,1.240234375
64.1757301,1.2109375
64.1836364,1.1865234375
64.2194865,1.1669921875
64.223508,1.15234375
64.2562729,1.15234375
64.2778251,1.142578125
64.2864287,1.142578125
64.3315815,1.142578125
64.3320127,1.142578125
64.3440263,1.1376953125
64.3629475,1.142578125
64.400056,1.142578125
64.4216728,1.142578125
64.4264689,1.142578125
64.4630172,1.1328125
64.463395,1.1279296875
64.4997248,1.123046875
64.5257187,1.123046875
64.5261331,1.123046875
64.5606834,1.1328125
64.5820751,1.1474609375
64.5839793,1.181640625
64.6315432,1.2158203125
64.631828,1.25
64.6515804,1.2744140625
64.6650803,1.298828125
64.6993805,1.3134765625
64.7236316,1.3330078125
64.7240019,1.3330078125
64.744715,1.34765625
64.7866891,1.3525390625
64.7870956,1.3427734375
64.8326894,1.328125
64.8329324,1.30859375
64.8456674,1.298828125
64.881051,1.2890625
64.9107795,1.2841796875
64.9110332,1.26953125
64.9289442,1.2646484375
64.9446192,1.2548828125
64.9669605,1.2451171875
65.0028026,1.23046875
65.0071717,1.220703125
65.0346086,1.2060546875
65.0467084,1.1865234375
65.0888803,1.171875
65.0892492,1.15234375
65.1055802,1.142578125
65.1259391,1.1328125
65.1648284,1.1279296875
65.1652521,1.1083984375
65.2135855,1.103515625
65.2138309,1.09375
65.2434382,1.083984375
65.2436974,1.07421875
65.2783408,1.0888671875
65.2966605,1.0595703125
65.3051392,1.0791015625
65.3373289,1.0888671875
65.3591136,1.0986328125
65.3657638,1.103515625
65.399749,1.11328125
65.4295667,1.1181640625
65.4298295,1.11328125
65.4630846,1.11328125
65.4842528,1.123046875
65.4844956,1.1572265625
65.5159483,1.1865234375
65.5369756,1.23046875
65.5458885,1.259765625
65.58128,1.2890625
65.6014752,1.30859375
65.6075241,1.3232421875
65.6413191,1.337890625
65.6460017,1.3623046875
65.6662573,1.3720703125
65.7101911,1.3818359375
65.710614,1.3818359375
65.7438673,1.3671875
65.7466904,1.357421875
65.7814612,1.337890625
65.8028851,1.3330078125
65.804697,1.3134765625
65.8378752,1.30859375
65.8587338,1.298828125
65.8650646,1.2939453125
65.8992839,1.279296875
65.9267574,1.26953125
65.9270609,1.25
65.9614445,1.240234375
65.9903421,1.220703125
65.9905844,1.2158203125
66.0067521,1.2060546875
66.0435433,1.2060546875
66.0485576,1.201171875
66.0731529,1.1865234375
66.0880972,1.1767578125
66.123878,1.1669921875
66.1290152,1.1572265625
66.1493813,1.142578125
66.1860443,1.103515625
66.1864226,1.103515625
66.2092917,1.1083984375
66.2268811,1.1083984375
66.27071,1.1083984375
66.2709795,1.1083984375
66.290713,1.11328125
66.3270889,1.103515625
66.3274921,1.0986328125
66.3658672,1.0986328125
66.3661117,1.09375
66.3846774,1.11328125
66.4202684,1.142578125
66.4555867,1.1865234375
66.4559031,1.2255859375
66.4693487,1.259765625
66.5159573,1.2841796875
66.5162391,1.30859375
66.5249833,1.318359375
66.5627362,1.337890625
66.5677852,1.34765625
66.5899994,1.357421875
66.6079974,1.357421875
66.6472064,1.3525390625
66.6475836,1.337890625
66.6901958,1.3330078125
66.6904418,1.318359375
66.7113495,1.30859375
66.7259377,1.3037109375
66.7610531,1.2939453125
66.781763,1.2890625
66.7869218,1.2744140625
66.822773,1.26953125
66.8446957,1.259765625
66.8489861,1.25
66.8660686,1.2353515625
66.9008534,1.2255859375
66.9227272,1.2109375
66.9284864,1.2109375
66.9651457,1.1962890625
66.9716612,1.19140625
66.9886283,1.1865234375
67.0346703,1.1767578125
67.0351603,1.1669921875
67.0551946,1.162109375
67.0707693,1.162109375
67.0880517,1.15234375
67.1236466,1.1474609375
67.1285649,1.142578125
67.165385,1.142578125
67.169685,1.1376953125
67.2069893,1.1328125
67.2112104,1.123046875
67.2508283,1.123046875
67.2512392,1.123046875
67.2672928,1.142578125
67.303103,1.1767578125
67.3080529,1.23046875
67.3448952,1.2744140625
67.3477107,1.3037109375
67.382527,1.328125
67.4032406,1.3427734375
67.4100731,1.357421875
67.4437888,1.3623046875
67.4466089,1.376953125
67.4882935,1.3818359375
67.5022654,1.376953125
67.5083843,1.3671875
67.5446976,1.357421875
67.5694459,1.3427734375
67.5698457,1.337890625
67.5859842,1.328125
67.6217127,1.3232421875
67.6419055,1.3232421875
67.6477613,1.30859375
67.6808012,1.3037109375
67.7015856,1.2939453125
67.7090828,1.2890625
67.7437004,1.26953125
67.7694812,1.2646484375
67.7697925,1.25
67.8022132,1.2109375
67.8068603,1.171875
67.8432904,1.1865234375
67.8640458,1.19140625
67.8705368,1.201171875
67.891689,1.1962890625
67.9270291,1.1962890625
67.9290489,1.1865234375
67.9637927,1.1865234375
67.9964884,1.181640625
67.9969817,1.171875
68.0078109,1.171875
68.0445043,1.1669921875
68.0724054,1.1572265625
68.0728108,1.15234375
68.0892304,1.1572265625
68.1235451,1.1474609375
68.1498399,1.142578125
68.1502011,1.1376953125
68.2016591,1.1474609375
68.2020968,1.1767578125
68.2107978,1.220703125
68.2296484,1.259765625
68.2695265,1.2939453125
68.2739779,1.328125
68.2920379,1.34765625
68.3134168,1.3623046875
68.3290353,1.3720703125
68.372051,1.3916015625
68.3762195,1.396484375
68.3898475,1.4013671875
68.4264017,1.396484375
68.4310615,1.38671875
68.4666986,1.3671875
68.4717095,1.357421875
68.4886394,1.337890625
68.5246171,1.337890625
68.5287419,1.3330078125
68.5738318,1.328125
68.5911267,1.318359375
68.5914124,1.3134765625
68.6103027,1.30859375
68.6531157,1.2939453125
68.6534298,1.279296875
68.6971534,1.2646484375
68.697396,1.25
68.7158473,1.2353515625
68.729587,1.2353515625
68.7769274,1.2255859375
68.7773292,1.220703125
68.7969991,1.2109375
68.8094234,1.201171875
68.8540629,1.1865234375
68.8543969,1.181640625
68.8739557,1.171875
68.8891174,1.171875
68.9315356,1.171875
68.9318724,1.1669921875
68.9511194,1.1669921875
68.9970126,1.162109375
68.9976875,1.1572265625
69.0129592,1.1474609375
69.057068,1.1376953125
69.0574095,1.1328125
69.0839672,1.1376953125
69.0911844,1.1572265625
69.1270379,1.201171875
69.1293624,1.240234375
69.1662615,1.2841796875
69.1882018,1.3134765625
69.1923751,1.3427734375
69.2088137,1.3525390625
69.250818,1.3720703125
69.2512131,1.3818359375
69.273478,1.38671875
69.2904242,1.38671875
69.3283819,1.3818359375
69.3331141,1.3720703125
69.3690577,1.3623046875
69.3733482,1.3623046875
69.3894171,1.3525390625
69.4342707,1.3525390625
69.4345817,1.318359375
69.4517501,1.3232421875
69.4719427,1.3232421875
69.5121792,1.328125
69.5125852,1.318359375
69.5451472,1.30859375
69.5677134,1.298828125
69.5732026,1.2841796875
69.6208434,1.2744140625
69.6211737,1.259765625
69.6420288,1.259765625
69.6494849,1.2548828125
69.6837601,1.25
69.7046729,1.240234375
69.7108099,1.2353515625
69.7593496,1.2255859375
69.7595932,1.220703125
69.7898375,1.2109375
69.7945313,1.2060546875
69.8102937,1.201171875
69.8312645,1.1962890625
69.8520845,1.1865234375
69.8923713,1.19140625
69.8927565,1.1865234375
69.9295168,1.1767578125
69.9343017,1.181640625
69.9502075,1.1865234375
69.9938065,1.2255859375
69.9981971,1.2646484375
70.0095673,1.3037109375
70.0448586,1.3330078125
70.0658276,1.3623046875
70.0717872,1.376953125
70.1038399,1.38671875
70.1247937,1.396484375
70.12972,1.4111328125
70.1640664,1.416015625
70.1841985,1.4111328125
70.1913611,1.4111328125
70.2285625,1.396484375
70.2568878,1.3818359375
70.2572122,1.3720703125
70.2735072,1.3671875
70.3094499,1.357421875
70.3141908,1.3525390625
70.334584,1.337890625
70.3523651,1.337890625
70.3953799,1.328125
70.3957036,1.328125
70.4131493,1.3134765625
70.4482959,1.30859375
70.4685907,1.2939453125
70.4725512,1.279296875
70.5068575,1.2646484375
70.5112836,1.259765625
70.5442668,1.259765625
70.5660246,1.25
70.5723579,1.2451171875
70.6117997,1.2353515625
70.6121462,1.2255859375
70.6572039,1.220703125
70.6575395,1.2158203125
70.6773489,1.2060546875
70.6893734,1.2060546875
70.7213658,1.201171875
70.7418435,1.1962890625
70.7521681,1.19140625
70.7999447,1.19140625
70.8002173,1.1767578125
70.8319457,1.1767578125
70.8348292,1.181640625
70.8501957,1.1962890625
70.8836013,1.240234375
70.9048099,1.279296875
70.9112521,1.328125
70.9572673,1.357421875
70.9576622,1.3916015625
70.9774772,1.4013671875
71.0109992,1.42578125
71.0115996,1.4306640625
71.0506579,1.4501953125
71.0509998,1.4501953125
71.0827644,1.4599609375
71.0918608,1.4453125
71.1135973,1.435546875
71.1612043,1.4208984375
71.1616171,1.416015625
71.1749409,1.40625
71.2095843,1.3916015625
71.2308717,1.3818359375
71.2311198,1.3671875
71.2665418,1.357421875
71.2869167,1.34765625
71.2938688,1.3427734375
71.328335,1.328125
71.3338035,1.3134765625
71.3573885,1.298828125
71.3938253,1.2890625
71.3941224,1.2744140625
71.4295211,1.2744140625
71.4339304,1.26953125
71.4543519,1.2646484375
71.4979133,1.259765625
71.4981793,1.25
71.515756,1.240234375
71.5608342,1.23046875
71.5611099,1.2255859375
71.5728448,1.2109375
71.6224293,1.2060546875
71.6226769,1.1962890625
71.633076,1.1962890625
71.6666112,1.1865234375
71.6877299,1.1865234375
71.6939485,1.181640625
71.7300237,1.181640625
71.7633828,1.1962890625
71.7636687,1.23046875
71.772341,1.26953125
71.8185653,1.318359375
71.8354667,1.357421875
71.8358633,1.3818359375
71.8692033,1.4013671875
71.8734627,1.4111328125
71.907627,1.42578125
71.9256092,1.4306640625
71.93524,1.4111328125
71.9706904,1.416015625
71.9710011,1.4208984375
72.0203092,1.416015625
72.0208391,1.4111328125
72.0398519,1.4013671875
72.0565076,1.396484375
72.1019144,1.38671875
72.1022663,1.3818359375
72.1166294,1.376953125
72.1315962,1.357421875
72.1764406,1.3525390625
72.1767578,1.3427734375
72.1963549,1.337890625
72.2324103,1.3232421875
72.2327344,1.30859375
72.2709536,1.2890625
72.3013113,1.279296875
72.3016625,1.259765625
72.313612,1.2548828125
72.3627161,1.2451171875
72.3630499,1.240234375
72.3739785,1.23046875
72.4083323,1.2255859375
72.4300293,1.2158203125
72.4365161,1.2158203125
72.4797318,1.2109375
72.4800639,1.201171875
72.4997904,1.1962890625
72.513266,1.1865234375
72.5565116,1.181640625
72.5567559,1.1767578125
72.5873518,1.1865234375
72.5964187,1.2060546875
72.6465748,1.240234375
72.6468214,1.2744140625
72.6534018,1.3134765625
72.6746315,1.34765625
72.7098272,1.3818359375
72.7148732,1.40625
72.7356446,1.42578125
72.7849699,1.4404296875
72.785288,1.4404296875
72.7956837,1.4453125
72.8341378,1.4306640625
72.8386542,1.42578125
72.8545295,1.40625
72.8758929,1.396484375
72.895915,1.38671875
72.9377555,1.376953125
72.9424177,1.3671875
72.9572146,1.3623046875
73.0007416,1.34765625
73.0009841,1.337890625
73.0127233,1.318359375
73.0486392,1.30859375
73.080001,1.2939453125
73.0804218,1.2890625
73.0951058,1.2744140625
73.1428329,1.259765625
73.1430926,1.2451171875
73.1627519,1.2353515625
73.1760906,1.220703125
73.2087883,1.2109375
73.2126975,1.2060546875
73.2452408,1.201171875
73.2647431,1.201171875
73.2769026,1.19140625
73.3132952,1.181640625
73.3161432,1.1767578125
73.3465367,1.171875
73.3750241,1.162109375
73.3753892,1.162109375
73.419214,1.162109375
73.419608,1.1572265625
73.4348846,1.1572265625
73.4828505,1.1572265625
73.4834175,1.19140625
73.4959227,1.220703125
73.5418357,1.26953125
73.5467487,1.30859375
73.5578241,1.318359375
73.5754882,1.318359375
73.6124959,1.3671875
73.615453,1.396484375
73.6363588,1.42578125
73.670536,1.4453125
73.6907083,1.4599609375
73.6976814,1.455078125
73.7467968,1.4599609375
73.7471484,1.4501953125
73.7564608,1.435546875
73.7918613,1.42578125
73.7937301,1.416015625
73.8272256,1.40625
73.8493315,1.3916015625
73.8589577,1.376953125
73.877326,1.3623046875
73.9149734,1.34765625
73.9153061,1.328125
73.935714,1.3134765625
73.9550672,1.298828125
73.9900676,1.2890625
73.9975031,1.2744140625
74.0426716,1.2646484375
74.0429256,1.2548828125
74.0585761,1.2353515625
74.0785113,1.220703125
74.0938062,1.2060546875
74.1295501,1.2060546875
74.1523945,1.1962890625
74.1579229,1.19140625
74.1804742,1.181640625
74.1968336,1.1767578125
74.2342835,1.1669921875
74.238791,1.1669921875
74.2543204,1.1572265625
74.3009277,1.15234375
74.3011757,1.1474609375
74.3160724,1.1474609375
74.3511173,1.142578125
74.3711125,1.162109375
74.3761224,1.19140625
74.4123981,1.220703125
74.4329955,1.2646484375
74.4372376,1.2939453125
74.4596392,1.328125
74.4761403,1.34765625
74.5151591,1.376953125
74.5155614,1.4013671875
74.5520035,1.416015625
74.5711835,1.42578125
74.5778934,1.42578125
74.6118507,1.4208984375
74.6339441,1.4111328125
74.6341885,1.396484375
74.6567902,1.38671875
74.693144,1.38671875
74.6960605,1.376953125
74.7326698,1.3671875
74.7638922,1.3525390625
74.7641362,1.34765625
74.7800297,1.3330078125
74.8006922,1.3134765625
74.8165263,1.298828125
74.8546473,1.2890625
74.8549817,1.2744140625
74.9011841,1.2646484375
74.9015478,1.25
74.9209936,1.240234375
74.9386096,1.23046875
74.9790425,1.220703125
74.9793665,1.201171875
74.9951746,1.201171875
75.0415111,1.2060546875
75.0419084,1.1962890625
75.0574406,1.19140625
75.1037814,1.181640625
75.1042626,1.1767578125
75.1189747,1.1669921875
75.1539002,1.1572265625
75.1541472,1.1474609375
75.1906038,1.1474609375
75.2127522,1.1083984375
75.2176512,1.1328125
75.2369918,1.162109375
75.275745,1.2158203125
75.2786463,1.2548828125
75.3220559,1.298828125
75.3224398,1.337890625
75.3577694,1.3671875
75.3581395,1.3916015625
75.3922748,1.40625
75.3971807,1.4306640625
75.4341211,1.4404296875
75.4619594,1.4404296875
75.4623094,1.4306640625
75.4941757,1.42578125
75.4991787,1.4111328125
75.533959,1.40625
75.5565374,1.396484375
75.556907,1.3916015625
75.5915,1.3818359375
75.6151112,1.376953125
75.6197589,1.357421875
75.6557304,1.3525390625
75.6580457,1.337890625
75.6844474,1.318359375
75.6998165,1.3037109375
75.7207275,1.2841796875
75.7381945,1.26953125
75.7831931,1.259765625
75.7835094,1.259765625
75.7988671,1.25
75.8335008,1.240234375
75.8546752,1.2255859375
75.8594606,1.2158203125
75.8760536,1.2060546875
75.910229,1.201171875
75.9310774,1.1962890625
75.9372985,1.19140625
75.9711467,1.1865234375
75.9914748,1.1767578125
76.0000528,1.171875
76.0271403,1.162109375
76.0407959,1.1669921875
76.0615921,1.1572265625
76.1081184,1.123046875
76.1088198,1.1279296875
76.1194762,1.1474609375
76.1544265,1.1767578125
76.1595748,1.23046875
76.2099669,1.26953125
76.2102106,1.318359375
76.2209284,1.3427734375
76.2425365,1.376953125
76.2583809,1.396484375
76.2958782,1.4306640625
76.3002785,1.4501953125
76.34309,1.4599609375
76.3434719,1.4697265625
76.3773603,1.4599609375
76.3777352,1.4501953125
76.421583,1.4306640625
76.4219216,1.416015625
76.4371402,1.396484375
76.470203,1.3818359375
76.4926117,1.3671875
76.5000848,1.357421875
76.5476582,1.337890625
76.5481889,1.3330078125
76.5597337,1.318359375
76.5961716,1.30859375
76.6227526,1.2939453125
76.6231622,1.2744140625
76.6372335,1.2646484375
76.6697076,1.2451171875
76.689987,1.2353515625
76.7002909,1.220703125
76.7484002,1.2158203125
76.7486487,1.201171875
76.7611859,1.19140625
76.7975792,1.1767578125
76.797909,1.1767578125
76.8434839,1.1669921875
76.8438873,1.1669921875
76.8644936,1.162109375
76.880924,1.1572265625
76.9053354,1.142578125
76.9204822,1.142578125
76.958887,1.1376953125
76.9637234,1.1279296875
76.9822105,1.123046875
77.005317,1.11328125
77.0191788,1.1279296875
77.055402,1.1474609375
77.0828754,1.19140625
77.0832655,1.23046875
77.102101,1.2744140625
77.1214937,1.30859375
77.1588282,1.337890625
77.1591211,1.3525390625
77.2034809,1.3818359375
77.2038538,1.396484375
77.2367603,1.4111328125
77.2413647,1.4208984375
77.2776627,1.4111328125
77.2827196,1.4013671875
77.3016109,1.38671875
77.3427566,1.376953125
77.3430069,1.3623046875
77.3578091,1.357421875
77.4037889,1.34765625
77.4041098,1.337890625
77.4243204,1.3232421875
77.4413389,1.3134765625
77.4611238,1.2939453125
77.5026252,1.2841796875
77.502904,1.2646484375
77.5343,1.2548828125
77.5389882,1.2451171875
77.5753661,1.25
77.5819752,1.25
77.6233924,1.240234375
77.6236421,1.2353515625
77.6418122,1.2255859375
77.6623421,1.2109375
77.6834424,1.201171875
77.7214992,1.1572265625
77.7218008,1.1572265625
77.7518861,1.162109375
77.7610077,1.162109375
77.7933797,1.1572265625
77.8286294,1.15234375
77.8289831,1.15234375
77.8435721,1.1474609375
77.8920299,1.1376953125
77.8922722,1.1474609375
77.9018503,1.1572265625
77.9197347,1.19140625
77.9636196,1.23046875
77.9640818,1.279296875
77.9805905,1.3134765625
78.0148438,1.3427734375
78.03548,1.3671875
78.0425443,1.38671875
78.0766152,1.396484375
78.0785638,1.4208984375
78.126497,1.42578125
78.1334878,1.4306640625
78.1412708,1.4208984375
78.1765287,1.40625
78.2129139,1.38671875
78.2132803,1.376953125
78.222573,1.3671875
78.2387987,1.34765625
78.2761901,1.337890625
78.2995169,1.328125
78.3015405,1.318359375
78.338314,1.30859375
78.3402023,1.2939453125
78.3747707,1.279296875
78.4054602,1.2646484375
78.40581,1.2451171875
78.4204721,1.2353515625
78.4562665,1.2255859375
78.4616912,1.220703125
78.4816694,1.2060546875
78.5294835,1.1962890625
78.529726,1.1962890625
78.5435954,1.1865234375
78.5793707,1.1767578125
78.5843951,1.1669921875
78.6308517,1.171875
78.638548,1.1572265625
78.6405749,1.162109375
78.676248,1.15234375
78.7092378,1.15234375
78.7098244,1.142578125
78.7229441,1.142578125
78.7707179,1.1279296875
78.7709799,1.1279296875
78.8021722,1.1279296875
78.8025067,1.1572265625
78.8486506,1.1865234375
78.8489832,1.2451171875
78.860632,1.2939453125
78.9110198,1.328125
78.9113547,1.3671875
78.9370433,1.3916015625
78.945039,1.416015625
78.9621486,1.435546875
78.9833408,1.455078125
79.0010933,1.4697265625
79.0522968,1.4794921875
79.0525394,1.474609375
79.0629083,1.46484375
79.0976319,1.4453125
79.1169345,1.435546875
79.1188409,1.416015625
79.1509939,1.4111328125
79.1722517,1.40625
79.1805809,1.3916015625
79.2152561,1.376953125
79.2400941,1.357421875
79.2418299,1.3427734375
79.2784348,1.3232421875
79.3059099,1.30859375
79.3062334,1.2890625
79.3257291,1.2451171875
79.3414762,1.2109375
79.3769329,1.220703125
79.3993661,1.220703125
79.401483,1.220703125
79.4453553,1.2158203125
79.4456007,1.2109375
79.465252,1.201171875
79.5079094,1.1962890625
79.5082004,1.1865234375
79.5230598,1.171875
79.5590994,1.171875
79.5638247,1.1669921875
79.583607,1.162109375
79.6058451,1.1572265625
79.6250069,1.162109375
79.6658302,1.1572265625
79.6661519,1.15234375
79.6821104,1.142578125
79.7275272,1.1474609375
79.7278442,1.162109375
79.7433713,1.1962890625
79.7888036,1.2353515625
79.7892547,1.279296875
79.8025882,1.328125
79.8367093,1.3525390625
79.8561194,1.3818359375
79.8610112,1.40625
79.8973296,1.435546875
79.917148,1.4501953125
79.9231171,1.46484375
79.956746,1.4697265625
79.9779445,1.46484375
79.9848534,1.4501953125
80.021184,1.435546875
80.0214312,1.416015625
80.042225,1.40625
80.0631063,1.4013671875
80.083723,1.3916015625
80.1331957,1.3720703125
80.1334383,1.3671875
80.1448579,1.3525390625
80.1653552,1.3330078125
80.185303,1.318359375
80.2218492,1.298828125
80.2261438,1.2841796875
80.2426435,1.26953125
80.2632431,1.259765625
80.3006701,1.2451171875
80.3048273,1.23046875
80.3411598,1.2255859375
80.3436632,1.2109375
80.3791198,1.2060546875
80.3990185,1.1962890625
80.4011893,1.181640625
80.4367736,1.181640625
80.4578328,1.181640625
80.4627909,1.1767578125
80.50198,1.171875
80.5187448,1.162109375
80.5269071,1.1572265625
80.561808,1.142578125
80.5672995,1.1376953125
80.5826769,1.1279296875
80.6059849,1.1328125
80.6229396,1.1474609375
80.6683717,1.1865234375
80.668613,1.2255859375
80.6844948,1.26953125
80.730793,1.30859375
80.7310497,1.337890625
80.7511213,1.357421875
80.7623464,1.38671875
80.7982571,1.4013671875
80.8027328,1.40625
80.8360927,1.4111328125
80.8581942,1.40625
80.8657119,1.396484375
80.9000017,1.3818359375
80.9044704,1.3720703125
80.9375369,1.357421875
80.9479072,1.357421875
80.9642031,1.318359375
81.0004964,1.3232421875
81.0051728,1.318359375
81.0437299,1.3134765625
81.0441585,1.3037109375
81.089931,1.2939453125
81.0902682,1.2890625
81.1131936,1.26953125
81.1280672,1.2548828125
81.1448806,1.2451171875
81.1927824,1.240234375
81.1937096,1.23046875
81.2044262,1.23046875
81.2482348,1.2158203125
81.2484845,1.2158203125
81.2679851,1.201171875
81.3100185,1.1962890625
81.3106372,1.181640625
81.3241305,1.1767578125
81.3587509,1.171875
81.3788145,1.171875
81.3851038,1.162109375
81.4201253,1.1669921875
81.440995,1.162109375
81.4447888,1.15234375
81.4788483,1.1474609375
81.4992551,1.142578125
81.5045642,1.1474609375
81.5399792,1.1669921875
81.5444183,1.2060546875
81.5674468,1.2451171875
81.5907874,1.2890625
81.6061311,1.3232421875
81.6419584,1.3525390625
81.6423953,1.376953125
81.6778937,1.40625
81.6994597,1.4306640625
81.7042407,1.4453125
81.7252275,1.4599609375
81.7453289,1.455078125
81.7904168,1.4501953125
81.7946916,1.435546875
81.8080927,1.42578125
81.8295994,1.40625
81.8718539,1.3671875
81.8721935,1.3623046875
81.8846462,1.3623046875
81.9198037,1.357421875
81.9401936,1.357421875
81.9461867,1.34765625
81.9823181,1.337890625
82.0119479,1.318359375
82.0121985,1.30859375
82.0227154,1.2939453125
82.0553507,1.2841796875
82.0774429,1.279296875
82.0847398,1.2646484375
82.1225778,1.2548828125
82.1522729,1.2451171875
82.1525997,1.2353515625
82.1692122,1.2255859375
82.2152954,1.220703125
82.2157876,1.2109375
82.2242346,1.2060546875
82.2585411,1.201171875
82.2786291,1.1962890625
82.2948743,1.19140625
82.3060511,1.1865234375
82.341948,1.1767578125
82.3710708,1.1669921875
82.3713588,1.1669921875
82.3830657,1.1572265625
82.4165402,1.1572265625
82.4375031,1.1572265625
82.4458396,1.181640625
82.4817661,1.2109375
82.5015937,1.2548828125
82.5084185,1.2890625
82.5317803,1.328125
82.551151,1.3525390625
82.5642161,1.38671875
82.5993966,1.4013671875
82.6211568,1.4208984375
82.6253806,1.4306640625
82.6597888,1.435546875
82.6923073,1.4306640625
82.6969126,1.4306640625
82.7076908,1.42578125
82.7307484,1.40625
82.7501793,1.396484375
82.7645197,1.3818359375
82.7993717,1.376953125
82.8202263,1.3671875
82.8248429,1.3623046875
82.8615194,1.34765625
82.8890094,1.3330078125
82.8893222,1.318359375
82.9214488,1.3037109375
82.9432785,1.2890625
82.9435877,1.2841796875
82.9787622,1.2744140625
83.000129,1.2646484375
83.0069947,1.259765625
83.0529843,1.2451171875
83.0533233,1.23046875
83.0692009,1.220703125
83.1149455,1.2109375
83.1152214,1.1962890625
83.1357552,1.1962890625
83.1452982,1.1865234375
83.1811397,1.1865234375
83.2062989,1.1767578125
83.2066992,1.1767578125
83.2513489,1.162109375
83.2520668,1.15234375
83.2715693,1.142578125
83.2856104,1.1376953125
83.3195526,1.1328125
83.341105,1.1376953125
83.3475406,1.142578125
83.3897752,1.1572265625
83.3900566,1.1962890625
83.4228196,1.2353515625
83.4439674,1.279296875
83.4478662,1.3134765625
83.4826133,1.3134765625
83.4845972,1.30859375
83.517056,1.3427734375
83.5366726,1.3720703125
83.5522553,1.3916015625
83.5680779,1.396484375
83.6086391,1.4013671875
83.6088861,1.38671875
83.6387444,1.376953125
83.6495592,1.3671875
83.6822619,1.3525390625
83.6871741,1.34765625
83.7198372,1.3427734375
83.7404916,1.34765625
83.746939,1.337890625
83.7803228,1.3330078125
83.7997844,1.318359375
83.8091199,1.30859375
83.8438229,1.2890625
83.8481657,1.2890625
83.868029,1.2744140625
83.9025513,1.26953125
83.9082327,1.259765625
83.9449874,1.25
83.9489753,1.2353515625
83.9818683,1.23046875
84.0039633,1.220703125
84.0042132,1.2109375
84.0381934,1.2060546875
84.0589,1.2060546875
84.0684155,1.2060546875
84.1023149,1.201171875
84.1239926,1.19140625
84.1323876,1.181640625
84.1517295,1.171875
84.1673815,1.162109375
84.2048168,1.1572265625
84.2053045,1.1572265625
84.2434117,1.162109375
84.2634375,1.171875
84.2697824,1.201171875
84.2884387,1.2451171875
84.3367295,1.2841796875
84.3415006,1.3232421875
84.3512376,1.34765625
84.3870052,1.3720703125
84.387263,1.38671875
84.4231232,1.4013671875
84.4434716,1.4111328125
84.4502635,1.4208984375
84.4689993,1.416015625
84.4908029,1.4111328125
84.5269521,1.396484375
84.5312424,1.38671875
84.5465585,1.3720703125
84.5810071,1.3720703125
84.603547,1.3623046875
84.6080224,1.3623046875
84.6475334,1.3525390625
84.6769167,1.337890625
84.6771892,1.3330078125
84.6909176,1.318359375
84.7277154,1.3037109375
84.7280362,1.2841796875
84.7614063,1.2841796875
84.7850467,1.2744140625
84.7870789,1.26953125
84.8201734,1.2548828125
84.8397959,1.2451171875
84.8509642,1.23046875
84.8934824,1.2255859375
84.893831,1.2158203125
84.9076627,1.2060546875
84.9523941,1.2060546875
84.952647,1.1962890625
84.9831261,1.1962890625
84.9892509,1.19140625
85.0246337,1.19140625
85.0292069,1.181640625
85.0535321,1.181640625
85.0725007,1.171875
85.0917152,1.1328125
85.1087409,1.103515625
85.1500803,1.123046875
85.1547717,1.1376953125
85.1706539,1.162109375
85.2060525,1.201171875
85.2102172,1.25
85.2446429,1.2890625
85.267438,1.337890625
85.2726582,1.3818359375
85.288809,1.4013671875
85.3335804,1.4306640625
85.3339067,1.4501953125
85.3487691,1.4697265625
85.382721,1.474609375
85.4032105,1.4794921875
85.4094796,1.4697265625
85.4586482,1.4599609375
85.4589362,1.4404296875
85.4788621,1.4306640625
85.4909095,1.4208984375
85.5259369,1.416015625
85.5288111,1.40625
85.564037,1.3916015625
85.5841342,1.38671875
85.5920801,1.3671875
85.6297787,1.3525390625
85.6301216,1.3330078125
85.6647701,1.3232421875
85.6712327,1.3037109375
85.6907553,1.2939453125
85.7363199,1.2744140625
85.7365843,1.2646484375
85.7527927,1.25
85.7723659,1.25
85.7885754,1.2353515625
85.8301193,1.2353515625
85.8304618,1.23046875
85.8765133,1.2255859375
85.8769085,1.2109375
85.8902818,1.2109375
85.9391678,1.2060546875
85.9394234,1.19140625
85.9645765,1.1865234375
85.9734495,1.1767578125
86.0084094,1.1669921875
86.0087735,1.1572265625
86.0436344,1.1572265625
86.0655049,1.1572265625
86.0701635,1.1572265625
86.1061872,1.162109375
86.1261033,1.1865234375
86.1316048,1.220703125
86.1669839,1.26953125
86.1672269,1.3037109375
86.1960215,1.3427734375
86.2098392,1.376953125
86.2440399,1.396484375
86.2666659,1.416015625
86.2716764,1.42578125
86.2928361,1.4404296875
86.3125883,1.435546875
86.3512181,1.435546875
86.3515865,1.4208984375
86.3699643,1.4111328125
86.40776,1.396484375
86.4128555,1.3916015625
86.4307952,1.376953125
86.4763477,1.3720703125
86.4811565,1.357421875
86.4922334,1.34765625
86.5139035,1.328125
86.5306955,1.3232421875
86.5792535,1.3134765625
86.5794998,1.3037109375
86.5934433,1.2890625
86.616191,1.26953125
86.6355076,1.259765625
86.6530926,1.2451171875
86.6883008,1.2353515625
86.6887233,1.2158203125
86.7265559,1.2109375
86.7310225,1.1669921875
86.7809676,1.1669921875
86.7812831,1.1669921875
86.7901142,1.171875
86.8256919,1.1669921875
86.8475869,1.1669921875
86.8539634,1.1669921875
86.889872,1.1572265625
86.8921407,1.15234375
86.9108873,1.142578125
86.9326471,1.142578125
86.9527706,1.1376953125
86.9733107,1.142578125
86.9922332,1.1474609375
87.0391595,1.171875
87.0394301,1.2060546875
87.0552249,1.2548828125
87.0705731,1.2890625
87.1099676,1.328125
87.1102253,1.357421875
87.1485271,1.38671875
87.1527543,1.396484375
87.1932144,1.416015625
87.1935751,1.42578125
87.2283657,1.4208984375
87.2335884,1.416015625
87.2502108,1.4013671875
87.2871325,1.396484375
87.3085228,1.38671875
87.3126846,1.38671875
87.3509778,1.376953125
87.3512225,1.3671875
87.3968917,1.3525390625
87.3972448,1.3427734375
87.4179192,1.328125
87.4308828,1.318359375
87.466853,1.30859375
87.4711502,1.2939453125
87.507272,1.279296875
87.5266994,1.2646484375
87.5315861,1.2548828125
87.568901,1.240234375
87.5730658,1.23046875
87.6062365,1.2158203125
87.6142937,1.1767578125
87.6484022,1.1767578125
87.6532881,1.1767578125
87.6728938,1.1767578125
87.7209641,1.1767578125
87.7212259,1.171875
87.7346298,1.171875
87.7824406,1.1669921875
87.7827932,1.162109375
87.7906508,1.15234375
87.824977,1.162109375
87.844954,1.1669921875
87.8525973,1.1572265625
87.8702637,1.162109375
87.8943319,1.162109375
87.929433,1.1865234375
87.9336282,1.2158203125
87.9568637,1.2646484375
87.9722809,1.3037109375
87.9917392,1.3427734375
88.0322337,1.376953125
88.032489,1.4111328125
88.062612,1.4306640625
88.074638,1.455078125
88.0941174,1.46484375
88.129962,1.474609375
88.150921,1.4794921875
88.1551579,1.46484375
88.1719128,1.455078125
88.1930812,1.4404296875
88.2331727,1.4306640625
88.2335782,1.416015625
88.2673326,1.40625
88.2883767,1.3916015625
88.2941166,1.376953125
88.3100462,1.3623046875
88.3537255,1.3525390625
88.3714816,1.337890625
88.3718072,1.3330078125
88.4066807,1.30859375
88.4367649,1.298828125
88.4370483,1.279296875
88.4712753,1.26953125
88.4732871,1.2548828125
88.5085198,1.2353515625
88.5299793,1.220703125
88.5318808,1.2060546875
88.5639897,1.1962890625
88.5882895,1.19140625
88.5954245,1.1865234375
88.6376432,1.181640625
88.637895,1.171875
88.6554646,1.162109375
88.6982036,1.1572265625
88.6986983,1.1474609375
88.7123823,1.142578125
88.7464115,1.1376953125
88.7757374,1.1328125
88.7760911,1.1328125
88.8096902,1.1279296875
88.8136127,1.1279296875
88.8471102,1.1328125
88.8681893,1.1669921875
88.8712067,1.201171875
88.9061993,1.25
88.926582,1.2890625
88.9324055,1.3330078125
88.9645675,1.357421875
88.9860305,1.3916015625
88.9949223,1.4013671875
89.0323834,1.42578125
89.0327311,1.4306640625
89.0710968,1.4453125
89.071345,1.4404296875
89.1045741,1.4404296875
89.1271667,1.42578125
89.1347544,1.4111328125
89.1799855,1.4013671875
89.1803213,1.38671875
89.1968238,1.3720703125
89.21748,1.3623046875
89.2360617,1.318359375
89.2593566,1.279296875
89.2740512,1.2841796875
89.2977265,1.2841796875
89.3164746,1.279296875
89.3505884,1.26953125
89.3554367,1.2646484375
89.397124,1.2548828125
89.4015906,1.2451171875
89.4183833,1.2353515625
89.4337039,1.220703125
89.4757467,1.2158203125
89.4761583,1.2060546875
89.5110517,1.201171875
89.5164883,1.19140625
89.5542377,1.181640625
89.5546505,1.171875
89.598394,1.1669921875
89.5986461,1.1572265625
89.6283422,1.162109375
89.63338,1.1572265625
89.6690092,1.1572265625
89.6902026,1.15234375
89.6963848,1.1474609375
89.7330401,1.142578125
89.7421508,1.1572265625
89.7624758,1.181640625
89.7751713,1.2158203125
89.8105299,1.2646484375
89.8125585,1.3037109375
89.8478149,1.337890625
89.8693767,1.3623046875
89.874913,1.396484375
89.9111262,1.4111328125
89.9468841,1.42578125
89.9472224,1.4306640625
89.9536295,1.4404296875
89.9985308,1.4306640625
89.9989126,1.4208984375
90.0145213,1.40625
90.0619096,1.396484375
90.0782783,1.38671875
90.0785703,1.3720703125
90.112891,1.357421875
90.1178467,1.3427734375
90.1662419,1.3330078125
90.1664887,1.318359375
90.1758806,1.30859375
90.2249016,1.2939453125
90.2251505,1.279296875
90.2362365,1.2646484375
90.2727699,1.2548828125
90.2773217,1.2353515625
90.3186783,1.2255859375
90.3192568,1.2109375
90.3359306,1.2060546875
90.3719442,1.1962890625
90.3750512,1.201171875
90.4220128,1.1962890625
90.422296,1.181640625
90.4520637,1.181640625
90.472591,1.171875
90.476936,1.1669921875
90.4953651,1.15234375
90.5457686,1.15234375
90.5460991,1.1474609375
90.5555799,1.1474609375
90.5913911,1.1376953125
90.5954815,1.1328125
90.6429339,1.1279296875
90.6431743,1.1376953125
90.6528462,1.15234375
90.6889432,1.1962890625
90.7077479,1.25
90.7147267,1.2939453125
90.749979,1.337890625
90.7703553,1.3671875
90.7751049,1.4013671875
90.8142664,1.416015625
90.8475744,1.435546875
90.8478204,1.4453125
90.859416,1.4306640625
90.8757816,1.40625
90.9212885,1.42578125
90.9215416,1.42578125
90.9377329,1.42578125
90.9587693,1.416015625
90.9782735,1.416015625
91.0139698,1.396484375
91.0190356,1.38671875
91.0526256,1.376953125
91.0751162,1.357421875
91.0754582,1.34765625
91.1246955,1.337890625
91.125065,1.3232421875
91.141154,1.30859375
91.1580916,1.3037109375
91.1787754,1.2841796875
91.2301785,1.26953125
91.2305243,1.2548828125
91.235166,1.2451171875
91.271394,1.2353515625
91.2768848,1.2255859375
91.297164,1.2158203125
91.3364016,1.201171875
91.3370626,1.1962890625
91.3566558,1.1767578125
91.398083,1.171875
91.3983274,1.1572265625
91.4178999,1.162109375
91.4525606,1.1572265625
91.4551651,1.1572265625
91.5043932,1.1474609375
91.5047127,1.142578125
91.5253192,1.1279296875
91.5395208,1.1279296875
91.5553311,1.1181640625
91.6064677,1.1279296875
91.6067891,1.1474609375
91.617032,1.19140625
91.6385057,1.23046875
91.6753283,1.2841796875
91.6756747,1.328125
91.69859,1.357421875
91.7334022,1.3818359375
91.7551868,1.4013671875
91.7591347,1.4208984375
91.7764901,1.42578125
91.8143147,1.4404296875
91.8146321,1.4404296875
91.8549507,1.435546875
91.874228,1.416015625
91.8782858,1.4013671875
91.9099622,1.38671875
91.9310062,1.3818359375
91.9357173,1.3720703125
91.9721598,1.3671875
91.9952114,1.3623046875
91.9997218,1.3525390625
92.0184953,1.337890625
92.0533035,1.3232421875
92.0595051,1.30859375
92.0798634,1.2890625
92.1198636,1.2744140625
92.1202669,1.2548828125
92.1350335,1.2451171875
92.1688523,1.2353515625
92.1886945,1.2255859375
92.1976679,1.2109375
92.2448058,1.2060546875
92.2452039,1.19140625
92.2752569,1.1865234375
92.2756061,1.171875
92.3097127,1.1767578125
92.3302556,1.171875
92.3366066,1.1669921875
92.35783,1.162109375
92.3964837,1.1572265625
92.400967,1.15234375
92.4162706,1.142578125
92.4404571,1.1376953125
92.4564052,1.1328125
92.502271,1.1328125
92.519023,1.142578125
92.5193467,1.1669921875
92.5539876,1.1962890625
92.5592363,1.2451171875
92.6031984,1.2841796875
92.6077927,1.3232421875
92.6191693,1.357421875
92.6548736,1.3720703125
92.6825263,1.3916015625
92.6827682,1.4013671875
92.6976037,1.416015625
92.7334742,1.42578125
92.7403512,1.42578125
92.7598556,1.416015625
92.7794526,1.4111328125
92.8275893,1.3916015625
92.8278593,1.3818359375
92.8488341,1.3671875
92.8581687,1.3623046875
92.9144049,1.3525390625
92.9148472,1.3427734375
92.9174497,1.328125
92.9529436,1.3232421875
92.9827236,1.3134765625
92.9830284,1.298828125
92.9998013,1.2890625
93.0338467,1.26953125
93.035605,1.259765625
93.0758286,1.2451171875
93.0989428,1.240234375
93.0992529,1.2255859375
93.1204821,1.2158203125
93.1567671,1.201171875
93.1613145,1.1962890625
93.1762997,1.1865234375
93.2200966,1.1865234375
93.2204056,1.181640625
93.2572162,1.1767578125
93.2615245,1.1767578125
93.2795346,1.1669921875
93.3168357,1.162109375
93.3197614,1.15234375
93.3557925,1.1474609375
93.3825364,1.1328125
93.3827813,1.0986328125
93.3997419,1.103515625
93.431648,1.1328125
93.439595,1.171875
93.476699,1.2255859375
93.4808796,1.2744140625
93.5169314,1.3232421875
93.5215379,1.357421875
93.5553992,1.38671875
93.5759597,1.40625
93.5780127,1.4306640625
93.6119339,1.4453125
93.6322828,1.4599609375
93.6396419,1.4599609375
93.6753696,1.455078125
93.7077058,1.4453125
93.7079498,1.42578125
93.7219389,1.416015625
93.7375242,1.4013671875
93.7836441,1.3916015625
93.7839615,1.3818359375
93.8019411,1.3720703125
93.8211014,1.357421875
93.8618531,1.3427734375
93.8621202,1.3232421875
93.8975586,1.30859375
93.9003872,1.2939453125
93.9346913,1.2744140625
93.9368661,1.2646484375
93.97195,1.259765625
94.0035536,1.259765625
94.0039545,1.25
94.0204231,1.2451171875
94.0678994,1.2353515625
94.0681883,1.2255859375
94.0892781,1.2158203125
94.099975,1.2158203125
94.1452891,1.201171875
94.1455364,1.201171875
94.1589831,1.19140625
94.1929448,1.1865234375
94.2153143,1.171875
94.2218375,1.1767578125
94.2590928,1.171875
94.2638799,1.162109375
94.3005995,1.15234375
94.3009232,1.142578125
94.3404975,1.142578125
94.3572363,1.15234375
94.3598545,1.1767578125
94.4031958,1.2109375
94.403439,1.259765625
94.422918,1.298828125
94.4568065,1.337890625
94.4585359,1.3671875
94.4972035,1.40625
94.4993197,1.4306640625
94.5380926,1.455078125
94.5384095,1.474609375
94.574045,1.4794921875
94.6065348,1.4794921875
94.6068592,1.4697265625
94.6222225,1.4599609375
94.645992,1.4404296875
94.6591441,1.42578125
94.7049258,1.4111328125
94.7053278,1.4013671875
94.7209801,1.3818359375
94.7560134,1.3720703125
94.7761921,1.3525390625
94.7835457,1.337890625
94.7988775,1.318359375
94.8347458,1.30859375
94.861709,1.2890625
94.8621257,1.2841796875
94.8802423,1.26953125
94.9032532,1.2548828125
94.9221462,1.240234375
94.9678606,1.2255859375
94.9681017,1.2109375
94.9851343,1.1962890625
95.0207844,1.162109375
95.0210342,1.162109375
95.0556186,1.1669921875
95.0863969,1.1669921875
95.0866537,1.162109375
95.1032772,1.1572265625
95.150777,1.1572265625
95.1511049,1.1474609375
95.1629962,1.142578125
95.2114273,1.1376953125
95.2118384,1.1279296875
95.2196479,1.1279296875
95.2534341,1.123046875
95.2739228,1.1279296875
95.2803735,1.1328125
95.3160553,1.162109375
95.3364024,1.1962890625
95.3439016,1.2451171875
95.3598448,1.2841796875
95.3801718,1.3330078125
95.4172881,1.3623046875
95.4384693,1.396484375
95.4427733,1.416015625
95.4630168,1.4306640625
95.512319,1.435546875
95.5127303,1.4453125
95.5238115,1.4453125
95.5393505,1.42578125
95.5752816,1.416015625
95.6055687,1.40625
95.6059712,1.396484375
95.6214599,1.3818359375
95.6701533,1.376953125
95.670393,1.3623046875
95.6906845,1.34765625
95.7001693,1.3330078125
95.7341469,1.3232421875
95.7617069,1.3037109375
95.7619512,1.298828125
95.7967752,1.279296875
95.8021121,1.2646484375
95.8359753,1.2548828125
95.8574404,1.2353515625
95.8642205,1.220703125
95.8834115,1.2060546875
95.9314024,1.201171875
95.931652,1.1865234375
95.9527273,1.181640625
95.9615408,1.1767578125
95.9973891,1.1767578125
96.0243313,1.171875
96.0245765,1.1767578125
96.0599997,1.1669921875
96.0624777,1.162109375
96.0813464,1.15234375
96.1168474,1.15234375
96.1211209,1.1474609375
96.1632115,1.15234375
96.1673498,1.1572265625
96.1830518,1.1669921875
96.2030421,1.19140625
96.2669439,1.23046875
96.2672649,1.2744140625
96.281434,1.30859375
96.2816788,1.3525390625
96.3149286,1.3818359375
96.3436934,1.40625
96.3442471,1.4208984375
96.3902075,1.435546875
96.3909741,1.435546875
96.4111195,1.4404296875
96.4208044,1.4306640625
96.458019,1.4208984375
96.4735728,1.416015625
96.4837867,1.396484375
96.526311,1.38671875
96.5268061,1.376953125
96.5431897,1.3720703125
96.5779935,1.357421875
96.6098493,1.34765625
96.6101876,1.328125
96.6275116,1.2841796875
96.6424571,1.2451171875
96.681288,1.2548828125
96.6858078,1.25
96.7044126,1.25
96.7239455,1.240234375
96.7590399,1.2353515625
96.7634946,1.2255859375
96.7879008,1.2255859375
96.8060533,1.2158203125
96.8215226,1.201171875
96.8624601,1.1962890625
96.8627397,1.19140625
96.9110052,1.1865234375
96.9112475,1.1767578125
96.9315591,1.171875
96.9437543,1.1669921875
96.9761922,1.1572265625
96.9969244,1.1474609375
97.0032419,1.142578125
97.0488882,1.1376953125
97.0492933,1.142578125
97.0631622,1.1376953125
97.1099937,1.1474609375
97.1102782,1.171875
97.131186,1.1962890625
97.1446286,1.2451171875
97.1613846,1.2890625
97.2041052,1.337890625
97.2043748,1.376953125
97.2245284,1.40625
97.2649668,1.4306640625
97.2652087,1.455078125
97.3133408,1.46484375
97.3137485,1.484375
97.3439512,1.484375
97.3442122,1.484375
97.3898828,1.4697265625
97.3901809,1.455078125
97.4018756,1.435546875
97.4388988,1.42578125
97.4683552,1.4111328125
97.4687496,1.396484375
97.4864581,1.3818359375
97.531042,1.3623046875
97.5314346,1.34765625
97.5448312,1.3232421875
97.582042,1.318359375
97.5822864,1.3037109375
97.6051667,1.2890625
97.6437194,1.26953125
97.6440955,1.2548828125
97.6792957,1.240234375
97.7020897,1.23046875
97.7024919,1.2158203125
97.7379181,1.2060546875
97.742613,1.201171875
97.7795868,1.19140625
97.8002235,1.181640625
97.804948,1.1767578125
97.8263747,1.171875
97.8469668,1.1572265625
97.8890912,1.15234375
97.8893734,1.142578125
97.9050097,1.1376953125
97.9230759,1.1328125
97.9651793,1.1328125
97.9654949,1.1181640625
97.9851277,1.1181640625
98.0184094,1.11328125
98.0424159,1.1279296875
98.0429874,1.15234375
98.0787586,1.2158203125
98.0828313,1.279296875
98.1080013,1.3232421875
98.1257673,1.3671875
98.1595685,1.3916015625
98.1651128,1.416015625
98.2157142,1.4306640625
98.2159563,1.4501953125
98.2458591,1.455078125
98.2461497,1.46484375
98.2650512,1.455078125
98.307026,1.4453125
98.3072694,1.4306640625
98.3416102,1.4208984375
98.3441731,1.40625
98.3781594,1.396484375
98.3996361,1.38671875
98.4080526,1.3671875
98.4290064,1.3525390625
98.4449458,1.328125
98.495425,1.3232421875
98.4956705,1.30859375
98.5060746,1.2939453125
98.5414586,1.279296875
98.5455447,1.2646484375
98.5784613,1.2451171875
98.5998994,1.2353515625
98.6019336,1.220703125
98.636916,1.2158203125
98.6565929,1.2060546875
98.6635244,1.201171875
98.7117922,1.1865234375
98.7171602,1.1865234375
98.726265,1.1865234375
98.760321,1.171875
98.7819782,1.1669921875
98.7823824,1.1572265625
98.8128229,1.15234375
98.8315766,1.1474609375
98.8444894,1.142578125
98.8787609,1.1376953125
98.9051491,1.1376953125
98.9055709,1.142578125
98.939383,1.1669921875
98.9624192,1.201171875
98.962663,1.2548828125
98.9981527,1.298828125
99.0280099,1.3427734375
99.0282577,1.3818359375
99.0631784,1.396484375
99.0677781,1.416015625
99.1057476,1.4306640625
99.1075746,1.4501953125
99.128251,1.4501953125
99.1516122,1.416015625
99.1658939,1.40625
99.2168417,1.4013671875
99.2170934,1.3916015625
99.2253183,1.3916015625
99.2522078,1.376953125
99.266929,1.3720703125
99.313329,1.357421875
99.3299264,1.3427734375
99.3303414,1.3232421875
99.3465183,1.318359375
99.3922694,1.30859375
99.3925389,1.2939453125
99.4054982,1.279296875
99.4425643,1.259765625
99.4710134,1.2451171875
99.4712549,1.23046875
99.4901285,1.2255859375
99.5047275,1.2109375
99.5409145,1.2060546875
99.5450533,1.1962890625
99.5811877,1.1865234375
99.5862416,1.181640625
99.6355638,1.1767578125
99.6359389,1.1669921875
99.6667859,1.1572265625
99.6670379,1.1572265625
99.7118669,1.1474609375
99.712161,1.1474609375
99.7266812,1.142578125
99.7611293,1.1376953125
99.7663787,1.1279296875
99.8004542,1.1279296875
99.8211331,1.1279296875
99.8273597,1.142578125
99.8453246,1.1669921875
99.8650361,1.220703125
99.9135935,1.2646484375
99.9138973,1.318359375
99.9275218,1.3525390625
99.962785,1.38671875
99.967537,1.40625
100.0035778,1.435546875
100.025525,1.455078125
100.0307996,1.46484375
100.0676159,1.4697265625
100.0679614,1.46484375
100.0865924,1.4599609375
100.1324555,1.4453125
100.1327095,1.4453125
100.1524761,1.4306640625
100.1682651,1.4208984375
100.2244464,1.40625
100.2248218,1.38671875
100.2287293,1.3720703125
100.2458106,1.3623046875
100.2806284,1.3427734375
100.2866232,1.328125
100.3191997,1.3134765625
100.3394054,1.2939453125
100.3490753,1.2744140625
100.385471,1.2548828125
100.3882684,1.2451171875
100.4068572,1.2255859375
100.4275946,1.2158203125
100.4726683,1.2109375
100.4735054,1.201171875
100.4879842,1.19140625
100.5356933,1.181640625
100.5360964,1.171875
100.5657574,1.162109375
100.5660067,1.15234375
100.6042988,1.15234375
100.6049368,1.1474609375
100.6438244,1.1474609375
100.6459173,1.142578125
100.6790804,1.1328125
100.6999796,1.1279296875
100.7101309,1.1181640625
100.7310535,1.123046875
100.7491218,1.1279296875
100.7715438,1.1328125
100.786679,1.1474609375
100.8206789,1.220703125
100.8408873,1.2744140625
100.8477649,1.3232421875
100.8705183,1.357421875
100.8899459,1.396484375
100.9307841,1.416015625
100.9310928,1.435546875
100.9794121,1.4501953125
100.9796618,1.4501953125
100.9887267,1.4453125
101.024303,1.435546875
101.0283681,1.4306640625
101.0481119,1.4111328125
101.0871713,1.396484375
101.1072886,1.3818359375
101.1089844,1.3720703125
101.1274278,1.357421875
101.1638674,1.3525390625
101.1659265,1.337890625
101.1895353,1.328125
101.2255934,1.3134765625
101.2278867,1.298828125
101.2508668,1.279296875
101.2972425,1.2646484375
101.2974969,1.2548828125
101.3065051,1.240234375
101.3431592,1.23046875
101.3489655,1.220703125
101.3843443,1.2109375
101.3886928,1.201171875
101.4246378,1.1962890625
101.4512519,1.1865234375
101.455748,1.181640625
