fs,t,y
55.32335845569874,227.0816396,2.2705078125
,227.082005,2.2314453125
,227.0943855,2.197265625
,227.130201,2.158203125
,227.1357182,2.119140625
,227.1712509,2.080078125
,227.1763392,2.05078125
,227.2122371,2.0166015625
,227.238314,1.9873046875
,227.2390167,1.962890625
,227.2552003,1.93359375
,227.2984802,1.9140625
,227.2988378,1.8896484375
,227.316758,1.865234375
,227.3526896,1.8408203125
,227.3718434,1.8212890625
,227.3781081,1.8017578125
,227.3983205,1.7822265625
,227.4334911,1.767578125
,227.4340694,1.7529296875
,227.4701117,1.7431640625
,227.4907174,1.73828125
,227.4957475,1.728515625
,227.5323737,1.71875
,227.5376206,1.7236328125
,227.57672,1.7626953125
,227.5770972,1.8359375
,227.6108424,1.9189453125
,227.6462703,2.0166015625
,227.6466506,2.0947265625
,227.656291,2.177734375
,227.6929304,2.236328125
,227.6974105,2.2900390625
,227.7375968,2.3193359375
,227.7379636,2.34375
,227.7730429,2.3583984375
,227.7935241,2.353515625
,227.7997348,2.3388671875
,227.8162598,2.314453125
,227.8645009,2.275390625
,227.8651516,2.236328125
,227.8786304,2.1875
,227.9131339,2.1435546875
,227.9174394,2.099609375
,227.938036,2.0654296875
,227.9758268,2.03125
,227.9764654,1.9970703125
,228.0136746,1.97265625
,228.0166437,1.943359375
,228.0496067,1.9189453125
,228.0697757,1.8896484375
,228.076784,1.865234375
,228.1121813,1.8359375
,228.1328938,1.8115234375
,228.1383852,1.787109375
,228.1559093,1.767578125
,228.1922508,1.7431640625
,228.1969927,1.7236328125
,228.2168759,1.7041015625
,228.2542471,1.6845703125
,228.2862557,1.6748046875
,228.2866125,1.66015625
,228.3002071,1.650390625
,228.3352734,1.650390625
,228.3403119,1.7041015625
,228.3573072,1.787109375
,228.3940693,1.8896484375
,228.3972918,1.9873046875
,228.4167121,2.0703125
,228.4529784,2.1484375
,228.4742529,2.20703125
,228.4793713,2.255859375
,228.5148616,2.2900390625
,228.5197592,2.3095703125
,228.5374159,2.314453125
,228.5806809,2.3193359375
,228.5810679,2.3046875
,228.6280241,2.2802734375
,228.6286046,2.2412109375
,228.6395127,2.2021484375
,228.6744919,2.158203125
,228.694969,2.1142578125
,228.6999991,2.0751953125
,228.7167354,2.0361328125
,228.7512983,2.0068359375
,228.7571501,1.9775390625
,228.7929215,1.953125
,228.8135222,1.923828125
,228.8192141,1.8994140625
,228.8547164,1.8701171875
,228.8598369,1.845703125
,228.8763576,1.8212890625
,228.9236236,1.8017578125
,228.9245894,1.77734375
,228.9378598,1.7578125
,228.9715878,1.7333984375
,228.9920187,1.7138671875
,228.9991833,1.689453125
,229.033514,1.6748046875
,229.0394993,1.66015625
,229.0777306,1.6455078125
,229.0799482,1.6357421875
,229.0971771,1.630859375
,229.1329155,1.650390625
,229.158852,1.71875
,229.1592071,1.81640625
,229.204234,1.9140625
,229.2045944,2.01171875
,229.2195727,2.0947265625
,229.2545756,2.16796875
,229.2756787,2.2265625
,229.2779341,2.2802734375
,229.3137299,2.3095703125
,229.3194477,2.3291015625
,229.3618324,2.3388671875
,229.3622911,2.3291015625
,229.382313,2.3095703125
,229.4178847,2.2802734375
,229.4215068,2.2412109375
,229.4367127,2.197265625
,229.4720073,2.158203125
,229.4924899,2.119140625
,229.4978327,2.080078125
,229.5346959,2.0458984375
,229.5399084,2.0166015625
,229.5613075,1.982421875
,229.5956974,1.9580078125
,229.596069,1.9287109375
,229.633981,1.904296875
,229.638524,1.8798828125
,229.6584937,1.85546875
,229.6942093,1.8310546875
,229.7201485,1.8115234375
,229.7205536,1.787109375
,229.7551155,1.767578125
,229.7753488,1.7431640625
,229.7808503,1.728515625
,229.8154075,1.7138671875
,229.8373299,1.69921875
,229.837938,1.689453125
,229.8746332,1.6796875
,229.9073899,1.6650390625
,229.9079649,1.6552734375
,229.9222195,1.6650390625
,229.9564326,1.71875
,229.9629362,1.806640625
,229.9832706,1.904296875
,230.0000683,1.9921875
,230.0194699,2.080078125
,230.0561378,2.1533203125
,230.0592622,2.216796875
,230.1111496,2.2607421875
,230.1117176,2.294921875
,230.1406461,2.3095703125
,230.1410229,2.314453125
,230.1580886,2.3095703125
,230.193147,2.294921875
,230.2149205,2.265625
,230.2200584,2.2265625
,230.2570124,2.1875
,230.2596307,2.1435546875
,230.2972005,2.1044921875
,230.301752,2.0703125
,230.3367395,2.0361328125
,230.3370946,2.0068359375
,230.3765673,1.982421875
,230.4061194,1.953125
,230.4065141,1.9287109375
,230.4196791,1.904296875
,230.4557309,1.8798828125
,230.4838407,1.85546875
,230.4843487,1.8310546875
,230.529474,1.806640625
,230.5297935,1.7822265625
,230.537629,1.7529296875
,230.5745428,1.73828125
,230.6088429,1.71875
,230.6092206,1.7041015625
,230.6203658,1.689453125
,230.672572,1.6748046875
,230.6729876,1.66015625
,230.6827115,1.6455078125
,230.7023937,1.6357421875
,230.7197399,1.6259765625
,230.7562655,1.6259765625
,230.7756354,1.6552734375
,230.780721,1.73828125
,230.816524,1.8310546875
,230.8206205,1.9384765625
,230.8568243,2.021484375
,230.8788321,2.1044921875
,230.8793011,2.16796875
,230.8996438,2.2265625
,230.9185512,2.265625
,230.9545158,2.2900390625
,230.9743609,2.2998046875
,230.9829574,2.294921875
,231.0330616,2.2802734375
,231.0334632,2.2509765625
,231.0439883,2.2119140625
,231.060453,2.16796875
,231.0974279,2.12890625
,231.1007403,2.0849609375
,231.1423327,2.05078125
,231.1427395,2.0166015625
,231.1631257,1.982421875
,231.1966627,1.953125
,231.2024331,1.9287109375
,231.2510509,1.8994140625
,231.2514136,1.875
,231.2705797,1.845703125
,231.2812385,1.8212890625
,231.3014048,1.8017578125
,231.3386381,1.7822265625
,231.3411908,1.767578125
,231.3762634,1.748046875
,231.4053218,1.728515625
,231.4058994,1.7138671875
,231.4236832,1.7041015625
,231.4409308,1.689453125
,231.476882,1.6845703125
,231.4819568,1.6796875
,231.5283232,1.6748046875
,231.5289565,1.669921875
,231.5447596,1.6650390625
,231.5644784,1.66015625
,231.6004594,1.6650390625
,231.6049041,1.7041015625
,231.6210844,1.7822265625
,231.6575696,1.884765625
,231.6605283,1.9775390625
,231.6958531,2.0654296875
,231.7163504,2.1337890625
,231.7218135,2.197265625
,231.7578701,2.24609375
,231.7785102,2.2802734375
,231.7790027,2.3046875
,231.8179662,2.314453125
,231.8209159,2.314453125
,231.8550406,2.2998046875
,231.875985,2.275390625
,231.8844647,2.236328125
,231.9191647,2.197265625
,231.9236248,2.1630859375
,231.943366,2.1240234375
,231.9803934,2.08984375
,231.9860355,2.060546875
,232.0018649,2.03125
,232.0367806,2.001953125
,232.0413837,1.97265625
,232.0779337,1.943359375
,232.0988415,1.9189453125
,232.1037754,1.89453125
,232.1383348,1.8701171875
,232.1438727,1.8408203125
,232.1610242,1.8212890625
,232.2105722,1.8017578125
,232.2109295,1.7822265625
,232.2312661,1.767578125
,232.2441016,1.748046875
,232.2785094,1.7236328125
,232.2989017,1.708984375
,232.3043441,1.6943359375
,232.3402494,1.6796875
,232.3408254,1.6650390625
,232.3762119,1.66015625
,232.4101831,1.650390625
,232.41083,1.66015625
,232.4219281,1.708984375
,232.459217,1.806640625
,232.4867378,1.904296875
,232.4871108,2.001953125
,232.5029656,2.080078125
,232.5382543,2.158203125
,232.5412315,2.2216796875
,232.5779687,2.265625
,232.583377,2.2998046875
,232.6186201,2.314453125
,232.6393272,2.32421875
,232.644568,2.3193359375
,232.6902889,2.2998046875
,232.6908518,2.2705078125
,232.7066667,2.2314453125
,232.7217032,2.1923828125
,232.7667953,2.1533203125
,232.7672385,2.119140625
,232.7855878,2.0849609375
,232.8211489,2.05078125
,232.8242188,2.021484375
,232.8454525,1.9921875
,232.8807221,1.9677734375
,232.9089369,1.943359375
,232.9095354,1.9140625
,232.9237303,1.89453125
,232.9585044,1.865234375
,232.964314,1.8408203125
,233.0024672,1.81640625
,233.0033773,1.796875
,233.0445686,1.7724609375
,233.0451631,1.7529296875
,233.061719,1.7333984375
,233.0983049,1.71875
,233.1035249,1.7041015625
,233.1235451,1.689453125
,233.1682982,1.6796875
,233.1687005,1.669921875
,233.1982013,1.6650390625
,233.2060508,1.66015625
,233.2450545,1.689453125
,233.2456988,1.7626953125
,233.2639317,1.8701171875
,233.3001759,1.962890625
,233.3045267,2.0556640625
,233.3532191,2.12890625
,233.3539078,2.197265625
,233.3673309,2.24609375
,233.4018376,2.2900390625
,233.4047226,2.3095703125
,233.4411579,2.32421875
,233.4621532,2.32421875
,233.4625088,2.314453125
,233.4990375,2.2900390625
,233.5200373,2.2607421875
,233.5247043,2.216796875
,233.5707352,2.1728515625
,233.5712664,2.12890625
,233.5874039,2.08984375
,233.6319896,2.05078125
,233.6324565,2.0166015625
,233.642725,1.982421875
,233.6770418,1.953125
,233.6986771,1.923828125
,233.7063017,1.89453125
,233.7428921,1.865234375
,233.7457735,1.8408203125
,233.7802066,1.81640625
,233.8080457,1.796875
,233.8087147,1.77734375
,233.8248639,1.7626953125
,233.8613095,1.7431640625
,233.8653761,1.7333984375
,233.902154,1.7236328125
,233.9050509,1.7236328125
,233.9417489,1.71875
,233.9468617,1.7138671875
,233.9637479,1.708984375
,233.9839934,1.7041015625
,234.0205917,1.69921875
,234.0243852,1.7041015625
,234.0598935,1.748046875
,234.0647806,1.8408203125
,234.1013509,1.93359375
,234.1215497,2.0263671875
,234.1267431,2.099609375
,234.1629153,2.1728515625
,234.168477,2.2314453125
,234.1839783,2.275390625
,234.2190439,2.3095703125
,234.239714,2.3291015625
,234.2482854,2.3388671875
,234.26779,2.333984375
,234.3135864,2.3193359375
,234.3142392,2.2900390625
,234.3277642,2.2509765625
,234.3445992,2.216796875
,234.3796932,2.1826171875
,234.3835343,2.1484375
,234.4181053,2.119140625
,234.4388433,2.08984375
,234.444983,2.060546875
,234.4788405,2.03125
,234.4991464,2.001953125
,234.5061389,1.97265625
,234.524826,1.943359375
,234.5597375,1.923828125
,234.5649023,1.89453125
,234.6046659,1.8701171875
,234.6221602,1.8505859375
,234.626947,1.8359375
,234.6615491,1.81640625
,234.6835676,1.796875
,234.6839195,1.77734375
,234.7323058,1.7626953125
,234.7327065,1.7529296875
,234.7456271,1.73828125
,234.7813155,1.7236328125
,234.8087139,1.7138671875
,234.8090929,1.7041015625
,234.8266814,1.708984375
,234.8619338,1.7529296875
,234.8829034,1.8310546875
,234.8887379,1.923828125
,234.9047705,2.01171875
,234.9397255,2.099609375
,234.9605857,2.16796875
,234.9685189,2.2314453125
,234.9878424,2.275390625
,235.0229723,2.314453125
,235.0276923,2.333984375
,235.0621006,2.3486328125
,235.0818914,2.3486328125
,235.0871623,2.3388671875
,235.1061895,2.314453125
,235.140666,2.2802734375
,235.1625464,2.2412109375
,235.1668164,2.20703125
,235.2031603,2.1728515625
,235.2286342,2.1337890625
,235.2289946,2.1044921875
,235.2446747,2.0751953125
,235.2810119,2.05078125
,235.2865592,2.021484375
,235.3227526,1.9970703125
,235.3295141,1.9677734375
,235.3490342,1.9384765625
,235.3856318,1.9091796875
,235.39017,1.8798828125
,235.4043836,1.845703125
,235.4485804,1.8212890625
,235.4490064,1.796875
,235.4681617,1.7724609375
,235.5033905,1.748046875
,235.507279,1.7236328125
,235.5452867,1.69921875
,235.547024,1.6796875
,235.583765,1.6650390625
,235.6039637,1.6552734375
,235.610381,1.6455078125
,235.6259337,1.640625
,235.6612452,1.6650390625
,235.66721,1.73828125
,235.7039724,1.8408203125
,235.7071311,1.9384765625
,235.7294962,2.03125
,235.7503495,2.109375
,235.7862746,2.1728515625
,235.788502,2.2265625
,235.8062031,2.265625
,235.8406702,2.294921875
,235.8609456,2.314453125
,235.8684475,2.314453125
,235.889664,2.3046875
,235.9290767,2.28515625
,235.9294448,2.2509765625
,235.9651987,2.2216796875
,235.9912976,2.1875
,235.9916678,2.158203125
,236.0075287,2.12890625
,236.0426826,2.0947265625
,236.0477914,2.0654296875
,236.0878436,2.0361328125
,236.1064949,2.01171875
,236.1099549,1.982421875
,236.145454,1.9580078125
,236.1458226,1.93359375
,236.1818339,1.9140625
,236.2012533,1.8896484375
,236.2070088,1.8701171875
,236.2408376,1.845703125
,236.261379,1.826171875
,236.2686296,1.806640625
,236.3035299,1.7919921875
,236.3243368,1.77734375
,236.3293988,1.7626953125
,236.3459259,1.748046875
,236.3820454,1.73828125
,236.412132,1.7236328125
,236.4126554,1.7138671875
,236.4299027,1.73828125
,236.464195,1.8017578125
,236.4698107,1.8896484375
,236.5045179,1.9677734375
,236.512442,2.041015625
,236.5262683,2.1044921875
,236.5623261,2.1630859375
,236.5828109,2.20703125
,236.5880036,2.2412109375
,236.6252243,2.2607421875
,236.6294175,2.2705078125
,236.6779782,2.2705078125
,236.6784323,2.265625
,236.7074871,2.2509765625
,236.7078439,2.236328125
,236.7276761,2.2119140625
,236.7721571,2.1826171875
,236.7725553,2.1533203125
,236.7908342,2.119140625
,236.8249925,2.08984375
,236.829833,2.0556640625
,236.8651325,2.021484375
,236.8685137,1.982421875
,236.9041394,1.943359375
,236.9069214,1.904296875
,236.9423671,1.8701171875
,236.9628751,1.8359375
,236.9681065,1.8115234375
,237.0182734,1.7919921875
,237.018633,1.767578125
,237.0390329,1.7529296875
,237.0533104,1.728515625
,237.072468,1.7138671875
,237.0888629,1.6943359375
,237.1255125,1.6796875
,237.1462971,1.6650390625
,237.1498544,1.6552734375
,237.1887804,1.640625
,237.189146,1.630859375
,237.2263607,1.6259765625
,237.2315753,1.6650390625
,237.2493719,1.748046875
,237.286543,1.85546875
,237.2871278,1.953125
,237.3308752,2.0458984375
,237.3315214,2.119140625
,237.3613032,2.1923828125
,237.3722157,2.24609375
,237.4080455,2.2802734375
,237.4098759,2.2998046875
,237.4446371,2.3095703125
,237.4495718,2.314453125
,237.4858726,2.2998046875
,237.4888238,2.275390625
,237.5253509,2.236328125
,237.5301512,2.197265625
,237.5639066,2.1484375
,237.5843802,2.1044921875
,237.5896564,2.060546875
,237.6102814,2.0166015625
,237.6285123,1.9775390625
,237.6647009,1.9384765625
,237.6692653,1.89453125
,237.7053862,1.85546875
,237.7336328,1.8115234375
,237.7339957,1.7724609375
,237.7521253,1.728515625
,237.7719561,1.689453125
,237.8055862,1.6552734375
,237.827381,1.62109375
,237.8277765,1.591796875
,237.863399,1.5673828125
,237.8840579,1.5478515625
,237.8913456,1.533203125
,237.9272717,1.5185546875
,237.9308535,1.5087890625
,237.9676874,1.50390625
,237.9680522,1.50390625
,237.988229,1.513671875
,238.0249756,1.5283203125
,238.0308109,1.552734375
,238.0668815,1.630859375
,238.0714802,1.73828125
,238.1058314,1.865234375
,238.1267186,1.9677734375
,238.1324803,2.060546875
,238.1504156,2.1337890625
,238.1754074,2.20703125
,238.1915384,2.255859375
,238.2268174,2.294921875
,238.2299773,2.3193359375
,238.2658569,2.3291015625
,238.272227,2.3291015625
,238.3114395,2.3193359375
,238.311804,2.294921875
,238.3313248,2.255859375
,238.3751707,2.2119140625
,238.3756451,2.1533203125
,238.3899124,2.119140625
,238.4372154,2.080078125
,238.4375687,2.0458984375
,238.4668531,2.01171875
,238.4726765,1.97265625
,238.5081001,1.9384765625
,238.5141491,1.904296875
,238.529153,1.8701171875
,238.5642598,1.8408203125
,238.5850144,1.806640625
,238.5927411,1.77734375
,238.6374218,1.7431640625
,238.63808,1.7138671875
,238.6540739,1.6845703125
,238.6908247,1.6650390625
,238.6939259,1.6455078125
,238.7103478,1.6259765625
,238.7453973,1.611328125
,238.7531038,1.5966796875
,238.7725482,1.58203125
,238.7917473,1.5673828125
,238.8273107,1.552734375
,238.8553398,1.5380859375
,238.8557218,1.5234375
,238.8704664,1.513671875
,238.8910663,1.533203125
,238.9286534,1.6064453125
,238.9290402,1.7333984375
,238.9645289,1.8701171875
,238.9848687,1.982421875
,238.9923749,2.080078125
,239.0276134,2.1533203125
,239.0476702,2.216796875
,239.0509271,2.2607421875
,239.0869182,2.2998046875
,239.0911731,2.32421875
,239.1260906,2.3388671875
,239.1317877,2.3388671875
,239.1677982,2.32421875
,239.1736769,2.2998046875
,239.1937396,2.2607421875
,239.2301207,2.216796875
,239.2345861,2.16796875
,239.2505413,2.1240234375
,239.2860918,2.08984375
,239.3071809,2.0556640625
,239.3125031,2.021484375
,239.3332188,1.9873046875
,239.3683001,1.9580078125
,239.388939,1.9287109375
,239.393748,1.8994140625
,239.4290287,1.875
,239.4502453,1.845703125
,239.450761,1.8212890625
,239.4861218,1.796875
,239.5077391,1.767578125
,239.5123891,1.7431640625
,239.5504807,1.71875
,239.5552979,1.69921875
,239.5889809,1.6748046875
,239.5941799,1.66015625
,239.6114613,1.640625
,239.647675,1.6259765625
,239.6521614,1.611328125
,239.6929558,1.6015625
,239.6933184,1.591796875
,239.7302856,1.5869140625
,239.7330198,1.5771484375
,239.7721994,1.5966796875
,239.7725628,1.669921875
,239.8029522,1.796875
,239.8118409,1.9091796875
,239.8486382,2.0263671875
,239.8680604,2.1142578125
,239.8734887,2.1923828125
,239.9091658,2.24609375
,239.9286784,2.294921875
,239.9348246,2.32421875
,239.9699123,2.3388671875
,239.9757226,2.34375
,239.9932671,2.3388671875
,240.0305794,2.32421875
,240.0309339,2.3046875
,240.0819582,2.2705078125
,240.0825232,2.2265625
,240.1031477,2.177734375
,240.1137616,2.138671875
,240.1499908,2.0947265625
,240.1701583,2.0556640625
,240.1722487,2.0263671875
,240.2092407,1.9921875
,240.2121593,1.962890625
,240.2482116,1.93359375
,240.2710082,1.8994140625
,240.2754575,1.8701171875
,240.3106168,1.845703125
,240.3162817,1.81640625
,240.3315965,1.7919921875
,240.3787244,1.7724609375
,240.3792119,1.7431640625
,240.3978568,1.7236328125
,240.4134724,1.7041015625
,240.4490794,1.6845703125
,240.4702142,1.6650390625
,240.4752642,1.650390625
,240.4930736,1.6357421875
,240.5341388,1.6259765625
,240.5346022,1.611328125
,240.5701343,1.6064453125
,240.5727094,1.5966796875
,240.608465,1.5869140625
,240.6284498,1.591796875
,240.6371003,1.6455078125
,240.6554351,1.7626953125
,240.6931993,1.8896484375
,240.723181,2.01171875
,240.7237786,2.109375
,240.7332221,2.1923828125
,240.7682287,2.2509765625
,240.7758203,2.2998046875
,240.795412,2.3291015625
,240.8330137,2.3486328125
,240.8532708,2.3583984375
,240.8577061,2.353515625
,240.8767501,2.34375
,240.8939725,2.314453125
,240.9285872,2.2802734375
,240.9327753,2.236328125
,240.9665866,2.1923828125
,240.9878314,2.1435546875
,240.9960929,2.1044921875
,241.0320279,2.0654296875
,241.0363387,2.03125
,241.0543775,1.9970703125
,241.090304,1.97265625
,241.0934139,1.9482421875
,241.1284783,1.9140625
,241.1500969,1.8896484375
,241.1551337,1.865234375
,241.1925947,1.8310546875
,241.1955503,1.806640625
,241.2314155,1.7822265625
,241.2342238,1.7529296875
,241.2696014,1.7333984375
,241.2754786,1.69921875
,241.3129765,1.6796875
,241.3135942,1.6650390625
,241.353252,1.650390625
,241.3562918,1.640625
,241.4035961,1.630859375
,241.4041981,1.62109375
,241.4175035,1.611328125
,241.4337701,1.6064453125
,241.4705831,1.6015625
,241.474201,1.6015625
,241.5125427,1.640625
,241.5329244,1.7431640625
,241.5336314,1.865234375
,241.574717,1.9921875
,241.5954942,2.0947265625
,241.5983262,2.1826171875
,241.615483,2.24609375
,241.6504011,2.2998046875
,241.6559661,2.333984375
,241.6768311,2.3583984375
,241.6960464,2.3681640625
,241.7304,2.3681640625
,241.7509445,2.3583984375
,241.75828,2.3388671875
,241.7745884,2.3046875
,241.7943595,2.2607421875
,241.8292237,2.216796875
,241.8503702,2.1728515625
,241.855393,2.1337890625
,241.8921273,2.099609375
,241.8971108,2.0703125
,241.9310963,2.041015625
,241.9517564,2.0068359375
,241.9590791,1.97265625
,241.9796519,1.9384765625
,241.9948703,1.8994140625
,242.030972,1.884765625
,242.0369043,1.8603515625
,242.0845697,1.8359375
,242.0849371,1.8115234375
,242.0973026,1.7919921875
,242.1338498,1.767578125
,242.1387365,1.748046875
,242.1748993,1.728515625
,242.1753161,1.7041015625
,242.208634,1.689453125
,242.2297162,1.669921875
,242.2365031,1.650390625
,242.2736807,1.640625
,242.2781438,1.6259765625
,242.3213369,1.6162109375
,242.3217149,1.611328125
,242.3352251,1.5966796875
,242.3732035,1.591796875
,242.376103,1.611328125
,242.412442,1.6845703125
,242.4174618,1.8017578125
,242.4630081,1.9384765625
,242.4634765,2.05078125
,242.4922688,2.158203125
,242.4988557,2.236328125
,242.5154106,2.2900390625
,242.5490487,2.3388671875
,242.5687864,2.36328125
,242.5765837,2.3779296875
,242.6120028,2.3779296875
,242.6168286,2.373046875
,242.6532093,2.3486328125
,242.6732933,2.314453125
,242.6736528,2.275390625
,242.7062981,2.236328125
,242.7283193,2.1875
,242.7371302,2.158203125
,242.7749799,2.1240234375
,242.7755875,2.0849609375
,242.8107143,2.05078125
,242.8316994,2.0166015625
,242.8388616,1.982421875
,242.8755805,1.9482421875
,242.8789504,1.9140625
,242.8957998,1.884765625
,242.9441932,1.8603515625
,242.9447967,1.8359375
,242.973768,1.8017578125
,242.9771262,1.77734375
,243.0147907,1.7529296875
,243.0193905,1.7333984375
,243.0539712,1.7138671875
,243.0746227,1.69921875
,243.0749767,1.6845703125
,243.1112692,1.669921875
,243.1316395,1.6552734375
,243.1375649,1.6455078125
,243.1739615,1.6259765625
,243.1786871,1.6162109375
,243.198279,1.611328125
,243.241226,1.6015625
,243.2415868,1.5966796875
,243.2628109,1.5966796875
,243.2782544,1.6162109375
,243.2973067,1.708984375
,243.3348557,1.8359375
,243.3560137,1.9775390625
,243.3580746,2.0947265625
,243.3937748,2.197265625
,243.4142369,2.2705078125
,243.4204145,2.333984375
,243.4414256,2.36328125
,243.4583394,2.3779296875
,243.493291,2.392578125
,243.4972092,2.3974609375
,243.5353021,2.3876953125
,243.5380127,2.3583984375
,243.5746857,2.32421875
,243.594565,2.275390625
,243.5996614,2.2314453125
,243.6350408,2.1923828125
,243.6376914,2.1533203125
,243.6727234,2.119140625
,243.6918276,2.0849609375
,243.698504,2.05078125
,243.7179524,2.0166015625
,243.7551917,1.9775390625
,243.7750112,1.943359375
,243.7825476,1.9140625
,243.7989294,1.8798828125
,243.8347509,1.8505859375
,243.8392018,1.8212890625
,243.876366,1.796875
,243.8769567,1.767578125
,243.9152635,1.73828125
,243.9205069,1.71875
,243.9546795,1.7041015625
,243.9754067,1.6845703125
,243.9794047,1.6650390625
,244.015691,1.640625
,244.0163159,1.6162109375
,244.0551243,1.5966796875
,244.075326,1.5771484375
,244.080266,1.5625
,244.1300361,1.5478515625
,244.130422,1.533203125
,244.14122,1.5283203125
,244.1617724,1.5185546875
,244.1774753,1.5234375
,244.2097689,1.6162109375
,244.2318666,1.7578125
,244.2411625,1.9140625
,244.2862147,2.0361328125
,244.2865648,2.1484375
,244.3028172,2.2216796875
,244.3483016,2.28515625
,244.3486689,2.32421875
,244.3596719,2.353515625
,244.4104183,2.3583984375
,244.4110213,2.353515625
,244.420295,2.3388671875
,244.4561927,2.3095703125
,244.4597977,2.2705078125
,244.5023693,2.2216796875
,244.5029295,2.1728515625
,244.5231407,2.12890625
,244.5387975,2.0849609375
,244.5743815,2.05078125
,244.5793474,2.0166015625
,244.6140946,1.9873046875
,244.6346335,1.962890625
,244.6405223,1.9384765625
,244.6774382,1.9091796875
,244.7050588,1.8798828125
,244.705768,1.8505859375
,244.7187398,1.826171875
,244.7535873,1.8017578125
,244.7751226,1.77734375
,244.7800053,1.748046875
,244.8006525,1.7236328125
,244.8353469,1.6943359375
,244.8569487,1.669921875
,244.8619231,1.650390625
,244.8826344,1.6162109375
,244.9001194,1.5966796875
,244.9509152,1.5869140625
,244.9514088,1.58203125
,244.961889,1.5771484375
,244.9996472,1.572265625
,245.0002163,1.5673828125
,245.0359515,1.5625
,245.058756,1.591796875
,245.0619549,1.69921875
,245.0787072,1.8359375
,245.1208589,1.9775390625
,245.1212137,2.08984375
,245.1506465,2.1875
,245.1598514,2.2509765625
,245.1972283,2.2998046875
,245.2176831,2.3291015625
,245.2223739,2.3388671875
,245.2385246,2.34375
,245.2734826,2.3388671875
,245.2936456,2.3193359375
,245.2985492,2.28515625
,245.3335338,2.2412109375
,245.3541219,2.1923828125
,245.3632939,2.1533203125
,245.3984824,2.1142578125
,245.4011422,2.080078125
,245.4189733,2.0556640625
,245.4570409,2.0361328125
,245.4617343,2.01171875
,245.499573,1.9873046875
,245.5001572,1.962890625
,245.535466,1.9384765625
,245.5563689,1.9091796875
,245.5631679,1.884765625
,245.5824561,1.8603515625
,245.604152,1.8310546875
,245.6202597,1.796875
,245.6546716,1.7822265625
,245.6757206,1.767578125
,245.6808523,1.7529296875
,245.7277691,1.73828125
,245.7282526,1.7236328125
,245.7433299,1.708984375
,245.7950482,1.689453125
,245.7954261,1.6796875
,245.7994724,1.669921875
,245.8348904,1.66015625
,245.8552718,1.650390625
,245.8627461,1.640625
,245.8977438,1.6357421875
,245.9028911,1.650390625
,245.9365824,1.7236328125
,245.9574231,1.85546875
,245.9603714,1.9873046875
,245.9960772,2.109375
,245.9996226,2.216796875
,246.0363093,2.294921875
,246.0411724,2.3583984375
,246.0764216,2.3974609375
,246.0976101,2.4267578125
,246.103253,2.4365234375
,246.1246841,2.44140625
,246.1401817,2.431640625
,246.1775631,2.412109375
,246.1833871,2.3779296875
,246.2191341,2.3388671875
,246.2197333,2.28515625
,246.2550002,2.2314453125
,246.2756357,2.1875
,246.2842292,2.1484375
,246.3027926,2.109375
,246.3239938,2.0751953125
,246.344334,2.0458984375
,246.3617184,2.01171875
,246.3975213,1.9970703125
,246.4175283,1.97265625
,246.4228268,1.9482421875
,246.4599201,1.9189453125
,246.4642469,1.8896484375
,246.4848818,1.865234375
,246.5044532,1.8408203125
,246.5212515,1.81640625
,246.5685144,1.7919921875
,246.5691176,1.767578125
,246.5891778,1.7529296875
,246.6034916,1.7333984375
,246.6380387,1.71875
,246.6440297,1.7041015625
,246.6785861,1.689453125
,246.6990049,1.6748046875
,246.7022011,1.66015625
,246.7217438,1.650390625
,246.7728559,1.640625
,246.773322,1.630859375
,246.7840489,1.630859375
,246.8180982,1.6796875
,246.8230355,1.787109375
,246.8593389,1.923828125
,246.8598091,2.0458984375
,246.8988325,2.1630859375
,246.9177966,2.24609375
,246.9228685,2.314453125
,246.9583555,2.3583984375
,246.9633332,2.392578125
,246.9984662,2.4072265625
,247.0034687,2.412109375
,247.0385926,2.40234375
,247.067988,2.3828125
,247.0684185,2.34375
,247.0807365,2.2900390625
,247.1150147,2.24609375
,247.1457251,2.2021484375
,247.1463209,2.1533203125
,247.1642194,2.109375
,247.200506,2.0703125
,247.2054152,2.0361328125
,247.2408433,2.0068359375
,247.2412017,1.9775390625
,247.2766089,1.9482421875
,247.2814547,1.923828125
,247.316938,1.8896484375
,247.346679,1.865234375
,247.347044,1.8408203125
,247.3661925,1.81640625
,247.4010873,1.7919921875
,247.4067132,1.767578125
,247.4214661,1.748046875
,247.458039,1.7236328125
,247.4641909,1.69921875
,247.4981514,1.6796875
,247.504985,1.6650390625
,247.5421403,1.650390625
,247.5425939,1.640625
,247.5788307,1.6357421875
,247.5985054,1.630859375
,247.6035191,1.6357421875
,247.6425854,1.6357421875
,247.6429468,1.630859375
,247.6792177,1.669921875
,247.6843203,1.7578125
,247.7230745,1.8896484375
,247.7235695,2.01171875
,247.7594917,2.12890625
,247.7800031,2.2119140625
,247.7854447,2.2705078125
,247.819898,2.314453125
,247.8229495,2.3486328125
,247.8597692,2.3681640625
,247.8644,2.373046875
,247.8854183,2.36328125
,247.923829,2.34375
,247.942478,2.3095703125
,247.9452214,2.265625
,247.9856569,2.2119140625
,247.9861069,2.1728515625
,248.0053397,2.138671875
,248.0237009,2.1044921875
,248.0603145,2.0703125
,248.0649834,2.041015625
,248.100972,2.01171875
,248.107024,1.982421875
,248.1432754,1.953125
,248.1439739,1.9287109375
,248.1632746,1.904296875
,248.1989961,1.875
,248.2041926,1.8505859375
,248.2423709,1.8212890625
,248.2473709,1.796875
,248.2657055,1.77734375
,248.3110889,1.748046875
,248.3116135,1.71875
,248.3411565,1.69921875
,248.3416758,1.689453125
,248.377607,1.6748046875
,248.3984485,1.6650390625
,248.4067785,1.650390625
,248.4254953,1.640625
,248.4607954,1.6357421875
,248.4656533,1.630859375
,248.4866314,1.6259765625
,248.5069775,1.6357421875
,248.5248007,1.7041015625
,248.5437353,1.845703125
,248.5797635,1.9873046875
,248.6003309,2.099609375
,248.6055097,2.197265625
,248.6412973,2.2705078125
,248.6458647,2.333984375
,248.6812345,2.3681640625
,248.7099177,2.3876953125
,248.710299,2.3974609375
,248.7245144,2.40234375
,248.7584737,2.392578125
,248.7799613,2.373046875
,248.7871123,2.3388671875
,248.8210827,2.294921875
,248.826085,2.24609375
,248.8599462,2.197265625
,248.8802583,2.158203125
,248.8832673,2.1240234375
,248.9271959,2.0849609375
,248.92751,2.05078125
,248.9484981,2.021484375
,248.9666315,1.982421875
,249.0008498,1.9482421875
,249.0066129,1.9140625
,249.0427767,1.8896484375
,249.0433586,1.865234375
,249.082916,1.845703125
,249.1147602,1.826171875
,249.1152393,1.806640625
,249.1278573,1.787109375
,249.1474513,1.7626953125
,249.1815136,1.7333984375
,249.1874179,1.7041015625
,249.2230257,1.6845703125
,249.2286455,1.66015625
,249.2653317,1.640625
,249.2658972,1.6357421875
,249.3165363,1.630859375
,249.3168876,1.62109375
,249.3292149,1.6162109375
,249.3471346,1.650390625
,249.3814139,1.7529296875
,249.4018457,1.8798828125
,249.4075086,2.0068359375
,249.4262897,2.109375
,249.4460561,2.2021484375
,249.4914547,2.2705078125
,249.4919405,2.3193359375
,249.5232355,2.353515625
,249.5277266,2.3681640625
,249.563674,2.3828125
,249.5681016,2.3779296875
,249.6024733,2.36328125
,249.6222434,2.3388671875
,249.6251298,2.2998046875
,249.6632281,2.255859375
,249.6678029,2.2119140625
,249.6875504,2.16796875
,249.7232011,2.12890625
,249.7301308,2.099609375
,249.7637518,2.0654296875
,249.7642453,2.0361328125
,249.7984604,2.0068359375
,249.8188722,1.97265625
,249.8250731,1.93359375
,249.8456097,1.8994140625
,249.8813845,1.865234375
,249.9015457,1.8359375
,249.9072235,1.806640625
,249.9426484,1.7822265625
,249.963046,1.7578125
,249.9704051,1.728515625
,249.987777,1.7138671875
,250.0232692,1.7041015625
,250.0277912,1.689453125
,250.0666959,1.6796875
,250.0671154,1.6650390625
,250.1135731,1.66015625
,250.1141673,1.650390625
,250.1287511,1.6455078125
,250.1447103,1.6455078125
,250.1784694,1.7138671875
,250.1990804,1.8310546875
,250.2065946,1.953125
,250.2404273,2.0654296875
,250.2612768,2.1533203125
,250.2664146,2.2314453125
,250.3017664,2.28515625
,250.3224971,2.32421875
,250.3232907,2.3486328125
,250.3599231,2.36328125
,250.3807849,2.36328125
,250.3878269,2.353515625
,250.4252029,2.3291015625
,250.4299346,2.2900390625
,250.4649191,2.24609375
,250.4685719,2.1923828125
,250.5040936,2.1484375
,250.5045594,2.1044921875
,250.5474091,2.0703125
,250.5477629,2.041015625
,250.5680969,2.01171875
,250.6057016,1.982421875
,250.6062856,1.953125
,250.6416248,1.923828125
,250.6617319,1.8994140625
,250.6709162,1.865234375
,250.6921717,1.8310546875
,250.7081521,1.8115234375
,250.7265907,1.7919921875
,250.7614596,1.7724609375
,250.7813828,1.748046875
,250.7895076,1.7236328125
,250.8082843,1.7041015625
,250.8439756,1.6845703125
,250.8760267,1.6650390625
,250.8763934,1.650390625
,250.8868224,1.640625
,250.9226853,1.630859375
,250.9271322,1.62109375
,250.9608595,1.6064453125
,250.983136,1.6064453125
,250.9898196,1.611328125
,251.0253713,1.6552734375
,251.0303809,1.77734375
,251.0459089,1.904296875
,251.0933491,2.0361328125
,251.0939037,2.1337890625
,251.122248,2.216796875
,251.1288404,2.28515625
,251.1650583,2.3291015625
,251.1705702,2.3583984375
,251.2080606,2.3681640625
,251.2084257,2.3681640625
,251.246721,2.353515625
,251.2475644,2.3291015625
,251.2956048,2.294921875
,251.296183,2.24609375
,251.3084016,2.197265625
,251.3437942,2.1533203125
,251.3639557,2.1142578125
,251.3690513,2.0751953125
,251.3909894,2.0361328125
,251.4362231,1.9970703125
,251.4368,1.9677734375
,251.4495819,1.943359375
,251.4688864,1.9140625
,251.504004,1.884765625
,251.5097575,1.8603515625
,251.5474398,1.8310546875
,251.5522013,1.806640625
,251.5725101,1.7822265625
,251.6080188,1.7578125
,251.6086074,1.7333984375
,251.6433169,1.7236328125
,251.6634323,1.7041015625
,251.6702306,1.6845703125
,251.6902856,1.669921875
,251.711366,1.6552734375
,251.7460935,1.640625
,251.7534575,1.630859375
,251.7721808,1.6259765625
,251.7891706,1.62109375
,251.8240041,1.6162109375
,251.8295307,1.6162109375
,251.8662164,1.66015625
,251.8714914,1.767578125
,251.9073272,1.9091796875
,251.9105464,2.03125
,251.9582338,2.1337890625
,251.9585979,2.2119140625
,251.9692267,2.2802734375
,252.0049348,2.3193359375
,252.0104076,2.3486328125
,252.030596,2.3583984375
,252.0669739,2.36328125
,252.069292,2.3486328125
,252.1055764,2.32421875
,252.1119487,2.2900390625
,252.132494,2.24609375
,252.1526222,2.1923828125
,252.1695105,2.1630859375
,252.2074581,2.12890625
,252.2104155,2.099609375
,252.2477986,2.0703125
,252.2541041,2.041015625
,252.2714037,2.01171875
,252.3058366,1.982421875
,252.3260384,1.953125
,252.3294712,1.923828125
,252.3648331,1.8994140625
,252.3696243,1.875
,252.4053002,1.8505859375
,252.41081,1.8212890625
,252.4464362,1.796875
,252.4521455,1.7724609375
,252.473695,1.7529296875
,252.5078818,1.7333984375
,252.5085786,1.71875
,252.5297203,1.708984375
,252.5641809,1.7041015625
,252.5843223,1.6943359375
,252.5922191,1.6845703125
,252.6293483,1.6796875
,252.630015,1.6748046875
,252.6637296,1.7041015625
,252.6845916,1.796875
,252.6900844,1.923828125
,252.7267173,2.0361328125
,252.731139,2.1484375
,252.7682846,2.2412109375
,252.7717334,2.3046875
,252.8072886,2.353515625
,252.8121052,2.3828125
,252.8480449,2.3974609375
,252.8527385,2.3974609375
,252.8892864,2.392578125
,252.8896448,2.3779296875
,252.9092599,2.353515625
,252.9475234,2.314453125
,252.9506543,2.275390625
,252.9875384,2.2314453125
,252.9919226,2.1923828125
,253.0285814,2.1533203125
,253.0322447,2.119140625
,253.0829827,2.08984375
,253.0836775,2.060546875
,253.1030757,2.03125
,253.1121851,2.001953125
,253.1487841,1.97265625
,253.1532778,1.9384765625
,253.1921563,1.904296875
,253.1927521,1.875
,253.2282171,1.845703125
,253.2477104,1.8115234375
,253.2501033,1.796875
,253.2871336,1.77734375
,253.2889389,1.7626953125
,253.3252767,1.7431640625
,253.3462371,1.728515625
,253.352935,1.7138671875
,253.3888882,1.7041015625
,253.3935723,1.689453125
,253.4110839,1.6748046875
,253.4302224,1.6650390625
,253.4515831,1.6552734375
,253.4852452,1.6552734375
,253.505851,1.689453125
,253.5112451,1.796875
,253.5501166,1.9189453125
,253.5537446,2.05078125
,253.598144,2.1533203125
,253.5987727,2.24609375
,253.6114811,2.3046875
,253.6614431,2.3583984375
,253.6619644,2.3974609375
,253.6717133,2.4169921875
,253.7084504,2.4267578125
,253.7138944,2.421875
,253.7550607,2.4072265625
,253.7556427,2.3828125
,253.7742015,2.34375
,253.8077422,2.2998046875
,253.8110852,2.2509765625
,253.847215,2.20703125
,253.8521615,2.16796875
,253.8879128,2.1337890625
,253.9103171,2.099609375
,253.915159,2.0654296875
,253.9353608,2.0361328125
,253.9498974,2.001953125
,253.9885573,1.9775390625
,254.00855919999998,1.9482421875
,254.01312380000002,1.923828125
,254.04827799999998,1.8994140625
,254.0519243,1.8798828125
,254.0882965,1.8603515625
,254.0942331,1.8359375
,254.13111400000003,1.806640625
,254.1316916,1.7822265625
,254.15070580000003,1.7529296875
,254.18463860000003,1.728515625
,254.20516609999999,1.708984375
,254.2133205,1.6943359375
,254.2495899,1.6845703125
,254.25280249999997,1.669921875
,254.29042349999997,1.66015625
,254.29310220000002,1.6455078125
,254.3278226,1.630859375
,254.34837069999998,1.6455078125
,254.351497,1.7041015625
,254.39186560000002,1.826171875
,254.4208026,1.9580078125
,254.4211767,2.08984375
,254.4327184,2.1875
,254.46693620000002,2.275390625
,254.4874959,2.3388671875
,254.4946726,2.3828125
,254.51301059999997,2.4072265625
,254.5475902,2.4169921875
,254.5524196,2.4169921875
,254.58804780000003,2.40234375
,254.59427829999998,2.3779296875
,254.62959410000002,2.3388671875
,254.63454969999998,2.294921875
,254.6701185,2.255859375
,254.67431399999998,2.2119140625
,254.6931459,2.1728515625
,254.72919760000002,2.138671875
,254.7335771,2.1142578125
,254.7771217,2.080078125
,254.77771610000002,2.05078125
,254.79474670000002,2.021484375
,254.8297996,1.9921875
,254.83502549999997,1.9677734375
,254.852234,1.9384765625
,254.8871393,1.9091796875
,254.9066469,1.875
,254.91268839999998,1.8408203125
,254.95015,1.8115234375
,254.95404660000003,1.7822265625
,254.9876554,1.7529296875
,255.0090315,1.7236328125
,255.01671900000002,1.69921875
,255.03591260000002,1.669921875
,255.07122450000003,1.650390625
,255.07167930000003,1.6357421875
,255.0919536,1.6259765625
,255.12808660000002,1.611328125
,255.13455499999998,1.6064453125
,255.1704916,1.6015625
,255.1752123,1.6015625
,255.2104278,1.62109375
,255.23019219999998,1.7236328125
,255.2306593,1.85546875
,255.2673168,1.9970703125
,255.2876286,2.1142578125
,255.29604369999998,2.2119140625
,255.31390829999998,2.28515625
,255.3369242,2.3291015625
,255.3823049,2.3583984375
,255.3826859,2.36328125
,255.39717259999998,2.36328125
,255.4123528,2.3583984375
,255.44717930000002,2.3486328125
,255.45291680000003,2.3193359375
,255.4745684,2.2802734375
,255.5099695,2.236328125
,255.5381337,2.1923828125
,255.5387334,2.1533203125
,255.5559298,2.1240234375
,255.572838,2.0947265625
,255.60817029999998,2.0703125
,255.6135575,2.0458984375
,255.64761149999998,2.0166015625
,255.6696013,1.9873046875
,255.6766462,1.962890625
,255.72302789999998,1.9287109375
,255.7233969,1.8994140625
,255.7354259,1.875
,255.77051010000002,1.8505859375
,255.79111469999998,1.826171875
,255.79396839999998,1.806640625
,255.8313665,1.7919921875
,255.8362877,1.7724609375
,255.8539141,1.7626953125
,255.888934,1.748046875
,255.91108789999998,1.73828125
,255.9178607,1.728515625
,255.936983,1.7236328125
,255.97341219999998,1.7138671875
,255.97376359999998,1.7041015625
,256.0096062,1.708984375
,256.0135127,1.748046875
,256.0485243,1.85546875
,256.0802048,1.962890625
,256.0805833,2.080078125
,256.0964678,2.177734375
,256.1321643,2.2607421875
,256.13265,2.3193359375
,256.1560219,2.3681640625
,256.1758,2.392578125
,256.2218572,2.4072265625
,256.2224448,2.40234375
,256.2373494,2.3876953125
,256.2720628,2.3681640625
,256.2787622,2.3291015625
,256.315486,2.28515625
,256.3161037,2.2314453125
,256.3347929,2.1923828125
,256.3716341,2.1533203125
,256.3749645,2.1142578125
,256.4117757,2.080078125
,256.416206,2.05078125
,256.4671641,2.0263671875
,256.4677574,2.001953125
,256.4787942,1.9775390625
,256.4978826,1.953125
,256.5140037,1.923828125
,256.5361352,1.89453125
,256.5707068,1.875
,256.5765956,1.85546875
,256.5955777,1.8359375
,256.6301333,1.81640625
,256.6500629,1.7919921875
,256.6573988,1.7724609375
,256.6929674,1.7529296875
,256.6933331,1.728515625
,256.7141824,1.7041015625
,256.7501946,1.6845703125
,256.7565005,1.6650390625
,256.7919004,1.650390625
,256.8264943,1.6357421875
,256.8269734,1.6259765625
,256.8368572,1.6259765625
,256.8712271,1.6455078125
,256.8743504,1.7529296875
,256.9101283,1.8994140625
,256.9301729,2.03125
,256.9357271,2.1484375
,256.9574756,2.2412109375
,256.9927258,2.314453125
,256.9961323,2.3681640625
,257.0323044,2.3974609375
,257.0597603,2.412109375
,257.0604931,2.421875
,257.0750356,2.4169921875
,257.1116008,2.412109375
,257.1166274,2.3876953125
,257.1532564,2.34375
,257.1742614,2.2998046875
,257.1795099,2.24609375
,257.1976792,2.197265625
,257.2337213,2.1533203125
,257.2383352,2.1142578125
,257.2728817,2.080078125
,257.2762815,2.05078125
,257.2980412,2.021484375
,257.3318831,1.9970703125
,257.3532558,1.9677734375
,257.3585621,1.943359375
,257.4038813,1.9140625
,257.404251,1.884765625
,257.4153394,1.8505859375
,257.4668341,1.826171875
,257.4673386,1.8017578125
,257.4782331,1.7822265625
,257.4969974,1.7578125
,257.5433677,1.73828125
,257.5437265,1.71875
,257.5646989,1.7041015625
,257.5794459,1.689453125
,257.5972749,1.6748046875
,257.6323904,1.6650390625
,257.6351797,1.6552734375
,257.6705069,1.650390625
,257.6915909,1.640625
,257.6985089,1.6357421875
,257.7345535,1.6357421875
,257.7393224,1.689453125
,257.7554698,1.8017578125
,257.7898868,1.93359375
,257.8116214,2.060546875
,257.8169286,2.16796875
,257.8542173,2.2509765625
,257.8588821,2.314453125
,257.8995017,2.36328125
,257.9000014,2.3876953125
,257.9452134,2.40234375
,257.9455677,2.3974609375
,257.9662836,2.392578125
,257.9769982,2.373046875
,258.0110624,2.34375
,258.0176117,2.2998046875
,258.053393,2.24609375
,258.0582693,2.1923828125
,258.0951345,2.1484375
,258.1002639,2.1044921875
,258.1356372,2.0703125
,258.1362137,2.03125
,258.1725945,2.001953125
,258.1770832,1.97265625
,258.2124664,1.943359375
,258.2332083,1.9140625
,258.2384199,1.884765625
,258.2894689,1.8603515625
,258.2901113,1.8310546875
,258.3005937,1.806640625
,258.3169535,1.77734375
,258.3545669,1.7626953125
,258.3591967,1.73828125
,258.3786009,1.71875
,258.4126162,1.69921875
,258.433891,1.6796875
,258.4397618,1.66015625
,258.4759697,1.6455078125
,258.4765155,1.6357421875
,258.5137569,1.6357421875
,258.5184228,1.6259765625
,258.5546829,1.6162109375
,258.5574615,1.611328125
,258.6036184,1.6015625
,258.6042559,1.6015625
,258.6192193,1.6259765625
,258.6530859,1.728515625
,258.6741881,1.865234375
,258.6815317,2.001953125
,258.697801,2.1142578125
,258.7320088,2.216796875
,258.7529091,2.28515625
,258.7586145,2.34375
,258.7942843,2.373046875
,258.8210168,2.392578125
,258.8216625,2.3974609375
,258.8573655,2.3876953125
,258.8603588,2.36328125
,258.8783873,2.333984375
,258.9148538,2.2998046875
,258.9176002,2.255859375
,258.9526681,2.2119140625
,258.9734364,2.1728515625
,258.9811369,2.138671875
,259.0209927,2.1044921875
,259.0213645,2.0703125
,259.0376069,2.0361328125
,259.0598303,2.0068359375
,259.0962345,1.982421875
,259.1009019,1.9580078125
,259.1199242,1.9287109375
,259.1545303,1.904296875
,259.1585888,1.875
,259.1929162,1.845703125
,259.2147164,1.8212890625
,259.2153449,1.796875
,259.2692119,1.7724609375
,259.2696732,1.7529296875
,259.2809137,1.7333984375
,259.3178844,1.7138671875
,259.3187117,1.6943359375
,259.361226,1.669921875
,259.3616924,1.6455078125
,259.3813839,1.630859375
,259.4226348,1.6162109375
,259.4232122,1.5966796875
,259.4401956,1.5869140625
,259.4597631,1.58203125
,259.4949481,1.58203125
,259.5006116,1.591796875
,259.5376965,1.6259765625
,259.5406842,1.73828125
,259.5751347,1.8798828125
,259.5952309,2.021484375
,259.5985435,2.12890625
,259.6197974,2.2216796875
,259.6549047,2.2900390625
,259.6866526,2.3388671875
,259.6872581,2.3681640625
,259.7025439,2.3828125
,259.7384927,2.3779296875
,259.7431183,2.3583984375
,259.7589847,2.3291015625
,259.7940131,2.2998046875
,259.8148151,2.255859375
,259.8199639,2.2119140625
,259.8548657,2.16796875
,259.8597666,2.12890625
,259.8823831,2.08984375
,259.9190569,2.0556640625
,259.9197828,2.0263671875
,259.9550713,1.9921875
,259.9591779,1.9677734375
,259.9801044,1.943359375
,260.0144678,1.9140625
,260.0209357,1.884765625
,260.0430697,1.8603515625
,260.0900675,1.8310546875
,260.0904294,1.8017578125
,260.1040539,1.7822265625
,260.1395037,1.7626953125
,260.1423341,1.73828125
,260.1599782,1.71875
,260.1971745,1.7041015625
,260.2007642,1.689453125
,260.2374204,1.669921875
,260.2437343,1.6552734375
,260.2795053,1.640625
,260.2822832,1.6259765625
,260.3170109,1.611328125
,260.3379957,1.6015625
,260.3429531,1.5966796875
,260.3612385,1.5869140625
,260.3960283,1.591796875
,260.4018833,1.650390625
,260.4388011,1.7919921875
,260.4427892,1.9384765625
,260.4781111,2.060546875
,260.4834715,2.1630859375
,260.4982671,2.2314453125
,260.5342586,2.28515625
,260.5554006,2.3193359375
,260.5622938,2.34375
,260.5984556,2.3486328125
,260.6011719,2.34375
,260.6348971,2.32421875
,260.6553737,2.28515625
,260.6586541,2.24609375
,260.6947242,2.20703125
,260.7008897,2.16796875
,260.7373382,2.1337890625
,260.7401937,2.099609375
,260.7761357,2.0654296875
,260.7813677,2.0361328125
,260.8169391,2.0068359375
,260.8378492,1.982421875
,260.8449933,1.953125
,260.8642939,1.9287109375
,260.880297,1.8994140625
,260.9149103,1.875
,260.9352434,1.8505859375
,260.9408502,1.826171875
,260.9787729,1.8017578125
,260.9832193,1.7822265625
,261.0188594,1.7578125
,261.0242598,1.73828125
,261.0406804,1.71875
,261.0775214,1.7041015625
,261.0823329,1.689453125
,261.1329269,1.6748046875
,261.133531,1.6650390625
,261.1410019,1.650390625
,261.1774337,1.6455078125
,261.1980556,1.630859375
,261.2039016,1.6259765625
,261.2203206,1.640625
,261.2564024,1.7236328125
,261.2621145,1.8603515625
,261.2998564,2.001953125
,261.3005663,2.1142578125
,261.3384042,2.2216796875
,261.3433305,2.2900390625
,261.3620827,2.3388671875
,261.3963032,2.373046875
,261.4167907,2.392578125
,261.4217143,2.3974609375
,261.4570608,2.392578125
,261.4616824,2.373046875
,261.4823901,2.3388671875
,261.5046458,2.294921875
,261.5409155,2.2509765625
,261.5456232,2.20703125
,261.5661861,2.1630859375
,261.5850319,2.1240234375
,261.6016166,2.08984375
,261.6335425,2.060546875
,261.6535117,2.03125
,261.662759,2.001953125
,261.6984504,1.9677734375
,261.703242,1.9384765625
,261.7393475,1.9091796875
,261.7596733,1.8798828125
,261.7649913,1.8505859375
,261.7828098,1.8212890625
,261.818155,1.8017578125
,261.8215895,1.77734375
,261.8567067,1.7578125
,261.8769993,1.73828125
,261.8861808,1.71875
,261.9049471,1.7041015625
,261.945411,1.689453125
,261.9460174,1.6748046875
,261.9759402,1.6650390625
,261.9816746,1.650390625
,262.0191524,1.640625
,262.0233703,1.6357421875
,262.0585716,1.6259765625
,262.0786042,1.62109375
,262.0850862,1.611328125
,262.1207666,1.611328125
,262.1211859,1.66015625
,262.1551369,1.8017578125
,262.1775961,1.9482421875
,262.1843073,2.0849609375
,262.2190738,2.1923828125
,262.2260713,2.28515625
,262.2461841,2.3486328125
,262.2904194,2.3974609375
,262.2909929,2.4169921875
,262.3051334,2.431640625
,262.3239873,2.431640625
,262.3444015,2.421875
,262.3844352,2.40234375
,262.3850076,2.36328125
,262.4293612,2.3193359375
,262.4298662,2.2705078125
,262.4508042,2.2216796875
,262.4708509,2.177734375
,262.4868175,2.1435546875
,262.5022104,2.1044921875
,262.5371208,2.0751953125
,262.5634105,2.041015625
,262.5640025,2.01171875
,262.5849243,1.982421875
,262.6198234,1.962890625
,262.6256409,1.93359375
,262.6610747,1.9091796875
,262.6664133,1.8798828125
,262.6847651,1.85546875
,262.7194208,1.8359375
,262.7221495,1.8115234375
,262.76858,1.7919921875
,262.7691594,1.7724609375
,262.7862665,1.7529296875
,262.8210122,1.7333984375
,262.8266434,1.7236328125
,262.8445984,1.7138671875
,262.8789004,1.708984375
,262.884396,1.69921875
,262.903931,1.6845703125
,262.9406753,1.6748046875
,262.9467111,1.6650390625
,262.9806204,1.650390625
,262.9855195,1.6455078125
,263.033484,1.640625
,263.0338407,1.669921875
,263.0544439,1.7724609375
,263.0638632,1.904296875
,263.1113033,2.0458984375
,263.111668,2.1533203125
,263.1247776,2.255859375
,263.1735961,2.32421875
,263.1739536,2.373046875
,263.186119,2.40234375
,263.2221729,2.4169921875
,263.2227234,2.4169921875
,263.2563633,2.412109375
,263.2770951,2.392578125
,263.2849693,2.353515625
,263.320341,2.314453125
,263.3255134,2.265625
,263.3599597,2.216796875
,263.3805172,2.1728515625
,263.3871437,2.1337890625
,263.4048615,2.099609375
,263.4228751,2.0703125
,263.4566655,2.0361328125
,263.4767494,2.0068359375
,263.4862565,1.9775390625
,263.5291964,1.9482421875
,263.5295675,1.9140625
,263.5451561,1.884765625
,263.5618346,1.85546875
,263.5971204,1.826171875
,263.617313,1.796875
,263.6260179,1.77734375
,263.6602428,1.7529296875
,263.6646881,1.7333984375
,263.7004666,1.7138671875
,263.7219642,1.6943359375
,263.7266262,1.6748046875
,263.7490627,1.66015625
,263.7854463,1.6455078125
,263.7861412,1.6357421875
,263.8046835,1.6259765625
,263.8412451,1.6162109375
,263.844028,1.6064453125
,263.8878357,1.5966796875
,263.8883896,1.5869140625
,263.9183846,1.572265625
,263.9283174,1.5625
,263.9652782,1.58203125
,263.9658678,1.6796875
,264.0028972,1.8408203125
,264.005819,1.9775390625
,264.0403508,2.099609375
,264.0608973,2.1875
,264.0655797,2.255859375
,264.1057833,2.3046875
,264.1061374,2.333984375
,264.1244879,2.34375
,264.1587212,2.3486328125
,264.1794632,2.3388671875
,264.1846734,2.3193359375
,264.2373297,2.2802734375
,264.2379172,2.2412109375
,264.2471996,2.197265625
,264.2690543,2.1533203125
,264.3045395,2.109375
,264.3049086,2.080078125
,264.3390542,2.05078125
,264.3590968,2.021484375
,264.3666307,1.9970703125
,264.4066062,1.9677734375
,264.4071832,1.943359375
,264.4524739,1.9140625
,264.4528423,1.8896484375
,264.4682012,1.865234375
,264.5040152,1.8408203125
,264.5045702,1.81640625
,264.525408,1.8017578125
,264.5756696,1.77734375
,264.5760446,1.7529296875
,264.5880902,1.73828125
,264.6239778,1.7236328125
,264.6291975,1.708984375
,264.6489832,1.689453125
,264.6845072,1.6845703125
,264.7047108,1.6748046875
,264.705133,1.669921875
,264.7464326,1.6650390625
,264.7467903,1.6650390625
,264.7837954,1.66015625
,264.7880723,1.6552734375
,264.8251092,1.669921875
,264.8295491,1.7578125
,264.8446325,1.884765625
,264.8891011,2.021484375
,264.8895089,2.1240234375
,264.9205072,2.216796875
,264.9274227,2.28515625
,264.9614742,2.3291015625
,264.9835656,2.353515625
,264.9883093,2.36328125
,265.0293889,2.3583984375
,265.0297581,2.3486328125
,265.0498442,2.32421875
,265.0673543,2.2900390625
,265.1013925,2.24609375
,265.1075185,2.2021484375
,265.1439547,2.158203125
,265.147218,2.1142578125
,265.1842369,2.0751953125
,265.1895334,2.0361328125
,265.2336022,2.001953125
,265.2340761,1.9677734375
,265.2476357,1.9384765625
,265.2680994,1.9091796875
,265.3055741,1.884765625
,265.3061261,1.85546875
,265.3430458,1.8310546875
,265.3631561,1.806640625
,265.3673263,1.77734375
,265.4057118,1.7529296875
,265.4345724,1.728515625
,265.4352578,1.7138671875
,265.4470487,1.7041015625
,265.4841753,1.69921875
,265.5135669,1.6943359375
,265.5141458,1.6845703125
,265.5298759,1.6748046875
,265.5666033,1.669921875
,265.5697388,1.669921875
,265.587912,1.6650390625
,265.6064452,1.66015625
,265.6428805,1.6552734375
,265.6478404,1.66015625
,265.697045,1.728515625
,265.6974104,1.8603515625
,265.7116097,1.9873046875
,265.7603205,2.1044921875
,265.7607947,2.197265625
,265.7668925,2.275390625
,265.8057817,2.32421875
,265.8061415,2.3681640625
,265.8444552,2.3876953125
,265.8478151,2.3974609375
,265.8842328,2.392578125
,265.8890144,2.3828125
,265.9250871,2.3583984375
,265.9325757,2.3291015625
,265.9509356,2.28515625
,265.9673835,2.24609375
,266.0069084,2.20703125
,266.0072701,2.1728515625
,266.0277247,2.138671875
,266.0661712,2.1044921875
,266.0687974,2.0703125
,266.105076,2.0361328125
,266.1320385,2.0068359375
,266.1324218,1.9775390625
,266.1469205,1.9482421875
,266.183796,1.9189453125
,266.1901442,1.8896484375
,266.241239,1.865234375
,266.2418259,1.8408203125
,266.2489965,1.81640625
,266.2860535,1.796875
,266.2910275,1.7822265625
,266.3086139,1.767578125
,266.3417864,1.7578125
,266.3505279,1.7431640625
,266.3686649,1.728515625
,266.3895959,1.7138671875
,266.4243789,1.69921875
,266.429866,1.6845703125
,266.465168,1.6748046875
,266.4680079,1.6650390625
,266.5042875,1.6552734375
,266.5074832,1.650390625
,266.5436243,1.6748046875
,266.5648187,1.7724609375
,266.5692845,1.8994140625
,266.6161589,2.0263671875
,266.6166091,2.12890625
,266.6316639,2.2216796875
,266.6662398,2.28515625
,266.6869099,2.333984375
,266.6874908,2.36328125
,266.7238775,2.392578125
,266.7288527,2.3974609375
,266.7496556,2.392578125
,266.791133,2.373046875
,266.7917105,2.3486328125
,266.8222889,2.3046875
,266.8312323,2.2607421875
,266.8699932,2.2119140625
,266.8705853,2.1728515625
,266.890027,2.138671875
,266.9297363,2.099609375
,266.9301234,2.0703125
,266.96471,2.041015625
,266.9696284,2.01171875
,267.0046062,1.982421875
,267.0254744,1.953125
,267.0283846,1.923828125
,267.0629389,1.89453125
,267.0844798,1.865234375
,267.0894382,1.8408203125
,267.1328606,1.81640625
,267.1332159,1.8017578125
,267.1674921,1.787109375
,267.1703873,1.767578125
,267.2062165,1.7431640625
,267.2261731,1.7236328125
,267.2294808,1.7138671875
,267.266259,1.69921875
,267.270969,1.6796875
,267.3056818,1.66015625
,267.3107228,1.6455078125
,267.3468874,1.6357421875
,267.3676953,1.630859375
,267.3722995,1.630859375
,267.4106352,1.66015625
,267.4111809,1.7529296875
,267.429613,1.89453125
,267.4644818,2.021484375
,267.4851838,2.12890625
,267.490174,2.2119140625
,267.5333013,2.2705078125
,267.5337162,2.3046875
,267.5641305,2.32421875
,267.5727712,2.3388671875
,267.5907134,2.333984375
,267.6258155,2.32421875
,267.6287455,2.2998046875
,267.6625631,2.265625
,267.6847058,2.2216796875
,267.6913644,2.177734375
,267.7272999,2.138671875
,267.7485038,2.1044921875
,267.7489542,2.0654296875
,267.7802979,2.0361328125
,267.800384,2.01171875
,267.8103128,1.9775390625
,267.8307262,1.9482421875
,267.8651687,1.93359375
,267.8862023,1.9140625
,267.8924394,1.89453125
,267.9263498,1.875
,267.9484172,1.8505859375
,267.9490182,1.8310546875
,267.9862609,1.81640625
,267.9908842,1.796875
,268.0277117,1.7822265625
,268.0309629,1.767578125
,268.0767824,1.748046875
,268.0773873,1.7333984375
,268.0924366,1.71875
,268.1299047,1.708984375
,268.1336998,1.6943359375
,268.1507382,1.6845703125
,268.2012282,1.6845703125
,268.2015959,1.6796875
,268.2126325,1.69921875
,268.2500079,1.7724609375
,268.2546756,1.8994140625
,268.2907903,2.0166015625
,268.2955535,2.1240234375
,268.3115551,2.20703125
,268.3319236,2.2802734375
,268.3670912,2.32421875
,268.3735418,2.353515625
,268.407626,2.3681640625
,268.412361,2.373046875
,268.4484175,2.373046875
,268.4810052,2.353515625
,268.4816569,2.32421875
,268.490526,2.2802734375
,268.5118491,2.236328125
,268.5469334,2.1923828125
,268.5522895,2.1484375
,268.588065,2.109375
,268.593386,2.0751953125
,268.6287762,2.041015625
,268.6345758,2.021484375
,268.651149,1.9921875
,268.6869338,1.9677734375
,268.6910661,1.9482421875
,268.7270478,1.9287109375
,268.7338065,1.904296875
,268.7769341,1.884765625
,268.7772877,1.85546875
,268.7949268,1.826171875
,268.8300188,1.8115234375
,268.8333071,1.796875
,268.8705268,1.77734375
,268.871028,1.7578125
,268.9071862,1.748046875
,268.9129534,1.728515625
,268.9470203,1.7138671875
,268.9681019,1.6943359375
,268.9736009,1.6796875
,269.0143932,1.669921875
,269.01497,1.66015625
,269.031302,1.6552734375
,269.0523258,1.708984375
,269.0888767,1.826171875
,269.0915528,1.953125
,269.1266649,2.0751953125
,269.147563,2.1728515625
,269.1555692,2.255859375
,269.1922298,2.3095703125
,269.1929496,2.353515625
,269.2122699,2.373046875
,269.2467103,2.392578125
,269.267988,2.392578125
,269.2731237,2.3876953125
,269.3091389,2.36328125
,269.312667,2.3291015625
,269.3554583,2.294921875
,269.3558174,2.255859375
,269.3763674,2.2119140625
,269.3915322,2.1728515625
,269.4260335,2.138671875
,269.4468265,2.099609375
,269.4541219,2.0703125
,269.4727059,2.041015625
,269.5076127,2.0068359375
,269.5278931,1.9775390625
,269.5361527,1.953125
,269.5559149,1.923828125
,269.5922184,1.8994140625
,269.5925927,1.8701171875
,269.6293252,1.8505859375
,269.6347078,1.826171875
,269.653552,1.806640625
,269.6917216,1.787109375
,269.6948971,1.767578125
,269.7303798,1.748046875
,269.7609299,1.728515625
,269.7615203,1.7138671875
,269.771322,1.69921875
,269.8240175,1.689453125
,269.8243819,1.6748046875
,269.8426559,1.669921875
,269.8549023,1.6552734375
,269.8999267,1.650390625
,269.9002786,1.669921875
,269.9298587,1.7724609375
,269.9330672,1.8896484375
,269.9693122,2.021484375
,269.9719993,2.12890625
,270.0067537,2.2119140625
,270.0262184,2.275390625
,270.0349809,2.32421875
,270.0697748,2.3583984375
,270.0905034,2.3681640625
,270.0963283,2.373046875
,270.1112039,2.3681640625
,270.1458273,2.3486328125
,270.1668637,2.3193359375
,270.1737477,2.2802734375
,270.2101834,2.236328125
,270.2152502,2.1923828125
,270.2504333,2.1484375
,270.2720211,2.109375
,270.2765883,2.080078125
,270.296553,2.0458984375
,270.3126553,2.01171875
,270.3473664,1.9873046875
,270.368092,1.9580078125
,270.3750018,1.93359375
,270.4117777,1.8994140625
,270.4166142,1.8701171875
,270.4578009,1.8505859375
,270.4581991,1.826171875
,270.4928312,1.806640625
,270.4936192,1.7822265625
,270.5142886,1.7578125
,270.5497377,1.73828125
,270.5704227,1.71875
,270.5759734,1.69921875
,270.6110175,1.689453125
,270.616997,1.6748046875
,270.6517337,1.6552734375
,270.6521045,1.640625
,270.6876292,1.6357421875
,270.7196016,1.6259765625
,270.7199656,1.62109375
,270.7356223,1.630859375
,270.7700469,1.6943359375
,270.7770531,1.8212890625
,270.8145599,1.9482421875
,270.8149297,2.0703125
,270.8497767,2.158203125
,270.8550031,2.2314453125
,270.890648,2.28515625
,270.8936932,2.32421875
,270.929745,2.3388671875
,270.9501161,2.3486328125
,270.9568888,2.34375
,270.9946391,2.333984375
,270.9951034,2.3095703125
,271.0300495,2.2705078125
,271.0515177,2.2216796875
,271.05606,2.1728515625
,271.0763264,2.1337890625
,271.1125495,2.099609375
,271.1172017,2.0703125
,271.1537597,2.041015625
,271.1565331,2.01171875
,271.1951204,1.97265625
,271.1957407,1.943359375
,271.214647,1.9091796875
,271.2497021,1.8896484375
,271.2540365,1.875
,271.2892265,1.845703125
,271.3091518,1.8212890625
,271.3177663,1.8017578125
,271.3374572,1.7822265625
,271.3892902,1.767578125
,271.3898166,1.748046875
,271.3923588,1.7333984375
,271.4288336,1.71875
,271.4509305,1.708984375
,271.4559025,1.69921875
,271.4919504,1.689453125
,271.4972517,1.6796875
,271.5325072,1.669921875
,271.558721,1.66015625
,271.5591996,1.6748046875
,271.5764638,1.7626953125
,271.6119162,1.8896484375
,271.6143053,2.0166015625
,271.6509094,2.119140625
,271.6579857,2.2021484375
,271.6779679,2.265625
,271.7118732,2.3095703125
,271.7187815,2.3388671875
,271.7392183,2.353515625
,271.7765282,2.3583984375
,271.7772017,2.3583984375
,271.8121868,2.34375
,271.8322052,2.314453125
,271.8369564,2.275390625
,271.8735727,2.2265625
,271.8780188,2.177734375
,271.9177999,2.1435546875
,271.9183814,2.109375
,271.9390536,2.0751953125
,271.9561437,2.0556640625
,271.9912371,2.0361328125
,271.9969688,2.0068359375
,272.0328875,1.982421875
,272.0388831,1.9580078125
,272.0751238,1.9384765625
,272.0797297,1.9140625
,272.1193826,1.8896484375
,272.1199594,1.865234375
,272.136867,1.8408203125
,272.1710823,1.81640625
,272.1758794,1.796875
,272.2119554,1.7724609375
,272.2177221,1.7529296875
,272.2555718,1.7333984375
,272.2584934,1.71875
,272.294972,1.7041015625
,272.2954393,1.6943359375
,272.3189105,1.6845703125
,272.3373259,1.6650390625
,272.3852156,1.669921875
,272.3857374,1.7041015625
,272.3975732,1.806640625
,272.4462718,1.923828125
,272.4470117,2.041015625
,272.4596764,2.138671875
,272.4961645,2.2216796875
,272.4967639,2.2802734375
,272.5165744,2.333984375
,272.552009,2.3681640625
,272.5726376,2.3876953125
,272.5778764,2.392578125
,272.5987112,2.392578125
,272.6459059,2.3779296875
,272.6463336,2.3486328125
,272.659319,2.314453125
,272.6760488,2.2705078125
,272.7119743,2.2216796875
,272.7324196,2.177734375
,272.7377994,2.1435546875
,272.7731152,2.109375
,272.77873,2.0751953125
,272.8149414,2.041015625
,272.8201584,2.01171875
,272.8374853,1.982421875
,272.8590899,1.9580078125
,272.8764075,1.9287109375
,272.9239491,1.8994140625
,272.9243166,1.875
,272.9447858,1.845703125
,272.958764,1.81640625
,272.9947586,1.7919921875
,272.9998423,1.7724609375
,273.0158663,1.748046875
,273.0516306,1.728515625
,273.0724446,1.708984375
,273.0776527,1.708984375
,273.1285412,1.69921875
,273.129101,1.6943359375
,273.1399049,1.6796875
,273.1590239,1.6748046875
,273.194099,1.6650390625
,273.2146529,1.66015625
,273.2174689,1.669921875
,273.2537296,1.7578125
,273.2845044,1.884765625
,273.2851232,2.001953125
,273.2992073,2.119140625
,273.3461483,2.20703125
,273.3466106,2.2802734375
,273.3606575,2.3291015625
,273.3801875,2.3681640625
,273.3967695,2.3876953125
,273.4321968,2.40234375
,273.4549993,2.40234375
,273.4599618,2.3876953125
,273.5021123,2.36328125
,273.502704,2.32421875
,273.5228917,2.2802734375
,273.5414808,2.2314453125
,273.5618419,2.1875
,273.5781335,2.1484375
,273.611757,2.1142578125
,273.6326168,2.080078125
,273.6379255,2.0458984375
,273.6757995,2.0166015625
,273.7032514,1.982421875
,273.7036048,1.953125
,273.7215744,1.923828125
,273.7366277,1.89453125
,273.7712735,1.8701171875
,273.7921394,1.8359375
,273.7995793,1.8115234375
,273.8343372,1.7919921875
,273.8393321,1.7724609375
,273.8761525,1.748046875
,273.8805646,1.7333984375
,273.9165431,1.7138671875
,273.9225301,1.6943359375
,273.9417037,1.6796875
,273.9583225,1.66015625
,273.9925849,1.650390625
,274.0132468,1.640625
,274.0186745,1.6259765625
,274.0550269,1.6162109375
,274.0771781,1.6064453125
,274.0801577,1.6357421875
,274.1160006,1.7431640625
,274.1363474,1.875
,274.139316,2.0068359375
,274.1745916,2.109375
,274.1798279,2.1923828125
,274.2162638,2.2607421875
,274.2196106,2.2998046875
,274.2620888,2.3291015625
,274.2625272,2.3388671875
,274.2935321,2.3388671875
,274.3150444,2.32421875
,274.3202701,2.3046875
,274.3563019,2.2705078125
,274.3593205,2.2265625
,274.3979988,2.1826171875
,274.4009419,2.1435546875
,274.4376619,2.1044921875
,274.4420616,2.0751953125
,274.4583884,2.041015625
,274.4832397,2.01171875
,274.4984171,1.97265625
,274.5441592,1.9482421875
,274.5447519,1.923828125
,274.5606582,1.8994140625
,274.6054084,1.8701171875
,274.6060068,1.8505859375
,274.6218628,1.826171875
,274.6574303,1.8017578125
,274.66272,1.77734375
,274.6789405,1.7529296875
,274.7288605,1.73828125
,274.7294364,1.7236328125
,274.7588511,1.7138671875
,274.7606697,1.69921875
,274.7956889,1.6943359375
,274.8160374,1.6845703125
,274.8215667,1.669921875
,274.8594927,1.6650390625
,274.882753,1.650390625
,274.8832212,1.650390625
,274.9299069,1.6748046875
,274.9305013,1.7724609375
,274.9404024,1.89453125
,274.9752824,2.021484375
,274.9945513,2.119140625
,275.0030063,2.20703125
,275.0185198,2.265625
,275.0541273,2.3193359375
,275.0749464,2.3486328125
,275.0800383,2.36328125
,275.1153389,2.3681640625
,275.1357913,2.36328125
,275.1412295,2.3388671875
,275.1769054,2.3095703125
,275.197171,2.265625
,275.2022237,2.2216796875
,275.2258957,2.1728515625
,275.2391436,2.12890625
,275.274399,2.1044921875
,275.2942749,2.0751953125
,275.3012794,2.05078125
,275.3483935,2.0166015625
,275.3487423,1.9921875
,275.3631596,1.962890625
,275.4087361,1.93359375
,275.4090998,1.904296875
,275.4207582,1.8798828125
,275.4571228,1.85546875
,275.4615209,1.8310546875
,275.4974328,1.8115234375
,275.5032912,1.7919921875
,275.5385125,1.7724609375
,275.5437238,1.7529296875
,275.5784582,1.7333984375
,275.5788206,1.7138671875
,275.6164614,1.69921875
,275.640747,1.6845703125
,275.6412989,1.669921875
,275.675559,1.66015625
,275.6961711,1.650390625
,275.7041305,1.640625
,275.7239484,1.6455078125
,275.7408386,1.69921875
,275.7756088,1.826171875
,275.7805278,1.9580078125
,275.8293424,2.080078125
,275.8300403,2.1826171875
,275.8439034,2.2607421875
,275.8909182,2.3193359375
,275.8912757,2.3583984375
,275.9026428,2.3876953125
,275.9251809,2.3974609375
,275.9448754,2.392578125
,275.9595781,2.3779296875
,275.9934062,2.3681640625
,276.0147355,2.3388671875
,276.0240374,2.2998046875
,276.0651248,2.255859375
,276.0657038,2.2119140625
,276.0840042,2.1728515625
,276.1276248,2.1337890625
,276.1280538,2.099609375
,276.1420782,2.0654296875
,276.1619604,2.0361328125
,276.2049098,2.0068359375
,276.205318,1.9775390625
,276.2356619,1.9482421875
,276.2450657,1.9189453125
,276.2635789,1.89453125
,276.2990947,1.865234375
,276.3285537,1.8359375
,276.3291441,1.81640625
,276.3409635,1.7919921875
,276.3773328,1.7724609375
,276.3981709,1.7578125
,276.4056282,1.73828125
,276.4535308,1.71875
,276.4541888,1.7041015625
,276.4659938,1.6845703125
,276.4820824,1.6748046875
,276.5031992,1.6650390625
,276.5222536,1.6552734375
,276.5594183,1.6455078125
,276.5632998,1.640625
,276.6084154,1.66015625
,276.6088778,1.748046875
,276.6279721,1.884765625
,276.6409565,2.0068359375
,276.6850952,2.1240234375
,276.6856989,2.197265625
,276.7012278,2.2802734375
,276.7386914,2.3291015625
,276.7437068,2.36328125
,276.7786017,2.3876953125
,276.7992747,2.392578125
,276.8043827,2.3876953125
,276.8410011,2.3681640625
,276.8462558,2.34375
,276.8613603,2.3046875
,276.8972461,2.2607421875
,276.9183092,2.216796875
,276.92314,2.1728515625
,276.9587944,2.138671875
,276.9785548,2.1044921875
,276.9842434,2.0703125
,277.0267077,2.041015625
,277.0270679,2.01171875
,277.0444999,1.982421875
,277.0652717,1.953125
,277.0841631,1.9189453125
,277.119462,1.8896484375
,277.1234647,1.8603515625
,277.1590182,1.8408203125
,277.1808693,1.81640625
,277.1861867,1.7919921875
,277.201505,1.7724609375
,277.235481,1.7529296875
,277.2561664,1.728515625
,277.2636277,1.7138671875
,277.3060508,1.6943359375
,277.3064189,1.6796875
,277.3431983,1.66015625
,277.3435504,1.650390625
,277.3666155,1.630859375
,277.3866392,1.611328125
,277.4058319,1.591796875
,277.4228386,1.5771484375
,277.4591872,1.6162109375
,277.4817765,1.728515625
,277.4860955,1.8798828125
,277.5198182,2.01171875
,277.525396,2.12890625
,277.5676449,2.2119140625
,277.5680141,2.28515625
,277.5834502,2.3291015625
,277.6299092,2.36328125
,277.6302861,2.3828125
,277.6495929,2.3876953125
,277.6658806,2.3828125
,277.707694,2.36328125
,277.7080209,2.3291015625
,277.7263721,2.2900390625
,277.7686887,2.24609375
,277.7689883,2.2021484375
,277.785859,2.16796875
,277.8305662,2.1337890625
,277.8310027,2.1044921875
,277.8438121,2.080078125
,277.8771505,2.05078125
,277.8969081,2.0166015625
,277.906184,1.9873046875
,277.9421556,1.9580078125
,277.9428531,1.9287109375
,277.9845936,1.904296875
,277.9853146,1.8798828125
,278.0046495,1.85546875
,278.0399066,1.8310546875
,278.0604247,1.806640625
,278.0648433,1.7822265625
,278.1025813,1.7626953125
,278.1069812,1.7431640625
,278.1280466,1.71875
,278.1454359,1.6943359375
,278.1798167,1.689453125
,278.1842444,1.6845703125
,278.2186536,1.6796875
,278.238612,1.6748046875
,278.2464185,1.6748046875
,278.2802789,1.69921875
,278.3007487,1.806640625
,278.3039007,1.9287109375
,278.3397302,2.0556640625
,278.3443314,2.1533203125
,278.3813222,2.236328125
,278.3858222,2.2998046875
,278.4228428,2.3388671875
,278.4249089,2.3681640625
,278.4603425,2.3779296875
,278.4813059,2.3779296875
,278.4861091,2.3681640625
,278.5214139,2.3583984375
,278.5237474,2.32421875
,278.5571866,2.2802734375
,278.5769579,2.2314453125
,278.5853895,2.1875
,278.6224624,2.1533203125
,278.6518314,2.119140625
,278.6521892,2.08984375
,278.6656729,2.0654296875
,278.7011864,2.0361328125
,278.7031094,2.0068359375
,278.7410362,1.9775390625
,278.7457759,1.953125
,278.7805288,1.923828125
,278.8011676,1.8994140625
,278.8064484,1.875
,278.8406577,1.8505859375
,278.847809,1.8212890625
,278.8649628,1.796875
,278.9081875,1.787109375
,278.9084822,1.7724609375
,278.9285417,1.7578125
,278.9646276,1.7431640625
,278.9692348,1.728515625
,278.988902,1.7138671875
,279.0238216,1.708984375
,279.0457839,1.69921875
,279.0463642,1.6845703125
,279.0819702,1.689453125
,279.0862405,1.7333984375
,279.1207928,1.845703125
,279.1424632,1.9677734375
,279.1489319,2.08984375
,279.1681194,2.1826171875
,279.217444,2.265625
,279.2179886,2.32421875
,279.2260517,2.3681640625
,279.2668054,2.392578125
,279.2673452,2.412109375
,279.2878361,2.412109375
,279.3086414,2.3974609375
,279.3573772,2.3779296875
,279.3580232,2.34375
,279.369548,2.2998046875
,279.3850032,2.24609375
,279.4365653,2.20703125
,279.4368612,2.158203125
,279.4482246,2.119140625
,279.4982385,2.0849609375
,279.498816,2.0458984375
,279.5063457,2.0166015625
,279.5435586,1.9873046875
,279.5745222,1.953125
,279.5749726,1.9140625
,279.5872443,1.884765625
,279.6067156,1.865234375
,279.6261001,1.8408203125
,279.6690276,1.81640625
,279.6694909,1.7919921875
,279.6887306,1.767578125
,279.7224017,1.7431640625
,279.7448633,1.71875
,279.7496072,1.6943359375
,279.7678672,1.6796875
,279.7865639,1.6650390625
,279.8073518,1.6552734375
,279.8556219,1.650390625
,279.8561351,1.640625
,279.8865454,1.630859375
,279.889021,1.6259765625
,279.9252993,1.62109375
,279.9256581,1.6552734375
,279.963384,1.767578125
,279.9680005,1.9091796875
,279.9882026,2.03125
,280.0325311,2.1435546875
,280.0330252,2.2265625
,280.0466376,2.294921875
,280.082186,2.333984375
,280.1103468,2.3681640625
,280.1106835,2.3779296875
,280.1283781,2.3876953125
,280.1634632,2.3828125
,280.1659921,2.3681640625
,280.2013419,2.333984375
,280.2215138,2.2900390625
,280.22884,2.2412109375
,280.2490303,2.1923828125
,280.2704753,2.1484375
,280.2918703,2.1044921875
,280.3285397,2.060546875
,280.329123,2.03125
,280.3651852,2.0068359375
,280.3659031,1.9775390625
,280.4036396,1.9482421875
,280.4082564,1.9189453125
,280.4439801,1.89453125
,280.4667744,1.8701171875
,280.46877,1.845703125
,280.485923,1.8212890625
,280.5218954,1.796875
,280.5427122,1.7724609375
,280.54978,1.748046875
,280.5845938,1.728515625
,280.5900292,1.7041015625
,280.60995,1.689453125
,280.6442216,1.669921875
,280.6659148,1.66015625
,280.6664903,1.6455078125
,280.7044781,1.640625
,280.7062359,1.630859375
,280.7412776,1.630859375
,280.7615377,1.6259765625
,280.7691391,1.66015625
,280.8094282,1.7626953125
,280.8389161,1.904296875
,280.8392785,2.0263671875
,280.8472839,2.1337890625
,280.8840148,2.216796875
,280.8875924,2.28515625
,280.9314297,2.3291015625
,280.9318215,2.3583984375
,280.9499434,2.3779296875
,280.9846879,2.3779296875
,281.0045599,2.373046875
,281.0111497,2.353515625
,281.0453777,2.3095703125
,281.0661157,2.2705078125
,281.0681292,2.2314453125
,281.1024732,2.1923828125
,281.1231008,2.158203125
,281.1306682,2.1240234375
,281.1808207,2.0947265625
,281.1814732,2.060546875
,281.1923289,2.03125
,281.2093693,2.001953125
,281.2292148,1.9775390625
,281.2647842,1.953125
,281.2702301,1.9287109375
,281.3046517,1.904296875
,281.3086823,1.8798828125
,281.344965,1.85546875
,281.3654555,1.826171875
,281.3706062,1.8017578125
,281.387794,1.7822265625
,281.4077922,1.767578125
,281.4463789,1.7529296875
,281.4491033,1.7431640625
,281.484202,1.728515625
,281.5043613,1.7138671875
,281.5122732,1.7041015625
,281.531302,1.689453125
,281.547151,1.6796875
,281.5805997,1.6748046875
,281.6004791,1.7041015625
,281.6082453,1.796875
,281.6604911,1.923828125
,281.6608431,2.041015625
,281.6725006,2.1484375
,281.7081498,2.2265625
,281.7111835,2.2900390625
,281.7309791,2.3291015625
,281.7678012,2.353515625
,281.768182,2.3681640625
,281.8143681,2.3779296875
,281.8147291,2.373046875
,281.8355461,2.3583984375
,281.8516787,2.32421875
,281.8717197,2.28515625
,281.9098663,2.236328125
,281.910231,2.1923828125
,281.9558837,2.1484375
,281.9562379,2.1142578125
,281.9769259,2.0849609375
,281.989916,2.05078125
,282.0251812,2.021484375
,282.0308279,1.9873046875
,282.0669574,1.9580078125
,282.0883999,1.923828125
,282.0934976,1.89453125
,282.1091098,1.865234375
,282.1432832,1.8359375
,282.1642284,1.8115234375
,282.1691603,1.787109375
,282.1907124,1.767578125
,282.2109339,1.7431640625
,282.249301,1.7236328125
,282.2694256,1.7041015625
,282.2698731,1.6845703125
,282.2886408,1.669921875
,282.3271844,1.6650390625
,282.3579279,1.650390625
,282.358515,1.6455078125
,282.3711056,1.6357421875
,282.4088561,1.6259765625
,282.4117348,1.6162109375
,282.4479285,1.62109375
,282.4804891,1.669921875
,282.4810535,1.7919921875
,282.4900894,1.923828125
,282.5243184,2.0654296875
,282.5452031,2.177734375
,282.5505979,2.2607421875
,282.5712213,2.3291015625
,282.6074209,2.3681640625
,282.612353,2.392578125
,282.6479466,2.40234375
,282.6533266,2.40234375
,282.6713827,2.392578125
,282.7085104,2.373046875
,282.7088894,2.3388671875
,282.7432676,2.2998046875
,282.7641677,2.255859375
,282.7739068,2.20703125
,282.8106385,2.16796875
,282.8112212,2.1337890625
,282.8470034,2.099609375
,282.8497662,2.0703125
,282.8874366,2.041015625
,282.8927781,2.01171875
,282.91184,1.982421875
,282.9454744,1.953125
,282.9658518,1.923828125
,282.9718232,1.89453125
,283.0250693,1.8701171875
,283.0254301,1.845703125
,283.0309957,1.8212890625
,283.0660872,1.796875
,283.0718252,1.77734375
,283.117621,1.7529296875
,283.1179883,1.73828125
,283.1336832,1.7138671875
,283.1530877,1.69921875
,283.1895301,1.6796875
,283.1943852,1.6650390625
,283.243683,1.640625
,283.24409,1.630859375
,283.2528077,1.6259765625
,283.2895388,1.6162109375
,283.294203,1.611328125
,283.3365265,1.6162109375
,283.3371069,1.689453125
,283.3541642,1.81640625
,283.3901761,1.962890625
,283.3905391,2.0751953125
,283.4263323,2.1826171875
,283.4318385,2.255859375
,283.4672159,2.3095703125
,283.4717454,2.34375
,283.4930302,2.36328125
,283.5292182,2.373046875
,283.5346647,2.3681640625
,283.5731443,2.3486328125
,283.574042,2.3193359375
,283.5919893,2.2802734375
,283.6117513,2.2314453125
,283.6469001,2.1875
,283.6677647,2.1435546875
,283.6729721,2.1044921875
,283.7094775,2.0703125
,283.7145134,2.041015625
,283.7320558,2.01171875
,283.7671743,1.9873046875
,283.7735464,1.9580078125
,283.7916711,1.93359375
,283.8378723,1.904296875
,283.8383428,1.875
,283.8563952,1.8505859375
,283.8753763,1.8212890625
,283.8942609,1.796875
,283.9158232,1.767578125
,283.960638,1.7333984375
,283.96104,1.708984375
,283.9809327,1.6943359375
,283.9943326,1.6748046875
,284.031041,1.6650390625
,284.034124,1.650390625
,284.0694778,1.640625
,284.0759778,1.6259765625
,284.1108211,1.62109375
,284.1114056,1.611328125
,284.1496367,1.611328125
,284.1541846,1.62109375
,284.1910562,1.6796875
,284.1914639,1.81640625
,284.2263362,1.953125
,284.2481234,2.0751953125
,284.2563562,2.1728515625
,284.2755869,2.2509765625
,284.2924387,2.3046875
,284.3276884,2.34375
,284.3328863,2.36328125
,284.3689913,2.373046875
,284.3735047,2.3681640625
,284.4096798,2.3486328125
,284.4147488,2.3193359375
,284.4482893,2.275390625
,284.4690605,2.2265625
,284.4696927,2.1826171875
,284.5073629,2.1484375
,284.5378425,2.1142578125
,284.538206,2.08984375
,284.5553202,2.060546875
,284.5896652,2.03125
,284.6097302,2.0068359375
,284.6148584,1.9775390625
,284.6369486,1.9482421875
,284.6721999,1.9140625
,284.672802,1.8896484375
,284.7082128,1.865234375
,284.7290646,1.8408203125
,284.7341427,1.81640625
,284.7695616,1.796875
,284.7752317,1.77734375
,284.8105183,1.7578125
,284.8310936,1.7431640625
,284.8373662,1.728515625
,284.8538527,1.7138671875
,284.8887469,1.7041015625
,284.8932491,1.6943359375
,284.9304529,1.689453125
,284.9569844,1.6796875
,284.9576267,1.669921875
,284.9769068,1.6650390625
,285.0174,1.6845703125
,285.0177699,1.7724609375
,285.0323838,1.9140625
,285.0704053,2.0361328125
,285.0751782,2.1533203125
,285.0955314,2.24609375
,285.1146326,2.314453125
,285.1580645,2.36328125
,285.158453,2.3974609375
,285.1892123,2.4169921875
,285.191941,2.421875
,285.2135377,2.4169921875
,285.2498684,2.40234375
,285.2530288,2.373046875
,285.2896756,2.3291015625
,285.294647,2.28515625
,285.3311081,2.236328125
,285.3619083,2.1923828125
,285.3624766,2.1533203125
,285.3778524,2.1142578125
,285.3927473,2.080078125
,285.4294181,2.05078125
,285.4544716,2.021484375
,285.454887,1.9921875
,285.4906303,1.962890625
,285.5152613,1.93359375
,285.5156211,1.9091796875
,285.5500058,1.8798828125
,285.5786181,1.85546875
,285.5792208,1.8310546875
,285.5955792,1.8115234375
,285.6152632,1.7919921875
,285.6514615,1.7724609375
,285.6561043,1.7529296875
,285.693392,1.73828125
,285.6950731,1.7236328125
,285.7337199,1.708984375
,285.7381999,1.6943359375
,285.7535902,1.6845703125
,285.7954615,1.6748046875
,285.796038,1.6650390625
,285.8161069,1.6552734375
,285.8537083,1.650390625
,285.858339,1.669921875
,285.876718,1.7626953125
,285.9225774,1.8994140625
,285.9230056,2.0263671875
,285.9526543,2.1435546875
,285.953009,2.236328125
,285.998299,2.3095703125
,285.9987251,2.3583984375
,286.0286942,2.392578125
,286.0382436,2.4072265625
,286.076216,2.4072265625
,286.0768036,2.40234375
,286.0992433,2.3828125
,286.1361422,2.353515625
,286.1365011,2.314453125
,286.1734126,2.2705078125
,286.1739859,2.2265625
,286.209909,2.1875
,286.2311259,2.1484375
,286.2386317,2.1142578125
,286.2725327,2.080078125
,286.2774225,2.0458984375
,286.2946769,2.0166015625
,286.3275608,1.9873046875
,286.3492195,1.9580078125
,286.3566131,1.9287109375
,286.402534,1.89453125
,286.4029291,1.865234375
,286.4173848,1.8408203125
,286.4667037,1.81640625
,286.4672781,1.796875
,286.497905,1.77734375
,286.4985509,1.7578125
,286.5156097,1.7431640625
,286.5533077,1.728515625
,286.5579623,1.708984375
,286.576834,1.6943359375
,286.6218714,1.6796875
,286.6224562,1.6650390625
,286.6429685,1.6552734375
,286.6547583,1.640625
,286.6906021,1.630859375
,286.6959317,1.6259765625
,286.7312661,1.630859375
,286.7615001,1.689453125
,286.7618767,1.826171875
,286.7780861,1.962890625
,286.8244707,2.0849609375
,286.8250451,2.1826171875
,286.84555,2.2607421875
,286.8572399,2.314453125
,286.8935515,2.353515625
,286.8959871,2.373046875
,286.9307021,2.3828125
,286.9516965,2.3779296875
,286.9577171,2.36328125
,286.9948154,2.3388671875
,286.9983052,2.2998046875
,287.0343975,2.2509765625
,287.0348103,2.20703125
,287.0683726,2.1630859375
,287.0898274,2.1240234375
,287.0969807,2.08984375
,287.1344815,2.05078125
,287.1375432,2.0166015625
,287.1820033,1.9873046875
,287.1823592,1.953125
,287.1960915,1.923828125
,287.2311119,1.8994140625
,287.2580241,1.8701171875
,287.2584121,1.845703125
,287.2921987,1.81640625
,287.297773,1.7919921875
,287.3332196,1.7626953125
,287.3669777,1.73828125
,287.367599,1.71875
,287.3771009,1.6943359375
,287.4120169,1.6796875
,287.4166051,1.6650390625
,287.4373657,1.650390625
,287.4730529,1.640625
,287.4939519,1.630859375
,287.4996133,1.62109375
,287.5380184,1.6162109375
,287.5386181,1.611328125
,287.5736709,1.6064453125
,287.5947699,1.6162109375
,287.5952619,1.7041015625
,287.6315979,1.8408203125
,287.6612778,1.982421875
,287.6616393,2.1044921875
,287.6794718,2.1875
,287.7138193,2.2607421875
,287.7350468,2.3046875
,287.7399812,2.3388671875
,287.7570375,2.3486328125
,287.7996499,2.3583984375
,287.8002037,2.3486328125
,287.8200012,2.3291015625
,287.8549611,2.294921875
,287.8578913,2.255859375
,287.8941996,2.2119140625
,287.9162387,2.1728515625
,287.9168861,2.138671875
,287.9542388,2.1142578125
,287.9584078,2.0849609375
,287.9962386,2.060546875
,287.9967697,2.0361328125
,288.0351501,2.0068359375
,288.0392226,1.9775390625
,288.0778276,1.9482421875
,288.0989015,1.9189453125
,288.0995473,1.8896484375
,288.1188399,1.865234375
,288.1532671,1.8408203125
,288.1592365,1.8212890625
,288.2047111,1.8017578125
,288.2050731,1.7822265625
,288.2203361,1.7626953125
,288.2674449,1.748046875
,288.2680536,1.73828125
,288.2821575,1.728515625
,288.3178657,1.71875
,288.318213,1.7041015625
,288.3395181,1.6943359375
,288.3759078,1.6845703125
,288.3787063,1.6748046875
,288.4173475,1.6748046875
,288.4201481,1.7138671875
,288.4560638,1.8212890625
,288.4771465,1.9580078125
,288.477606,2.0751953125
,288.4984535,2.177734375
,288.5476435,2.255859375
,288.5480897,2.3193359375
,288.5613536,2.3583984375
,288.5816286,2.3876953125
,288.6018372,2.3974609375
,288.6372087,2.3974609375
,288.6430742,2.3876953125
,288.6575611,2.36328125
,288.6918211,2.333984375
,288.7141602,2.2900390625
,288.7207603,2.24609375
,288.7652267,2.2021484375
,288.7655895,2.1630859375
,288.7788244,2.1240234375
,288.8142995,2.08984375
,288.8345441,2.060546875
,288.8373839,2.03125
,288.872165,2.01171875
,288.8931303,1.982421875
,288.9009207,1.9580078125
,288.9206751,1.923828125
,288.9688442,1.89453125
,288.9693201,1.865234375
,288.9810563,1.8408203125
,289.0166623,1.8115234375
,289.0225044,1.7919921875
,289.0403733,1.767578125
,289.0750452,1.7529296875
,289.081586,1.73828125
,289.1228555,1.7236328125
,289.123224,1.708984375
,289.1409268,1.69921875
,289.175601,1.6845703125
,289.1963061,1.6748046875
,289.1980749,1.6650390625
,289.2341539,1.66015625
,289.2539271,1.650390625
,289.2595428,1.6748046875
,289.3065951,1.767578125
,289.3069578,1.89453125
,289.3211102,2.0263671875
,289.3582879,2.12890625
,289.3626269,2.2265625
,289.3803909,2.2900390625
,289.4163758,2.34375
,289.4215701,2.373046875
,289.4401755,2.392578125
,289.4746516,2.3974609375
,289.4946389,2.392578125
,289.5016041,2.3779296875
,289.5431855,2.353515625
,289.5436432,2.314453125
,289.5597451,2.275390625
,289.6047201,2.2314453125
,289.605294,2.1875
,289.6345901,2.1484375
,289.6423312,2.1142578125
,289.6621792,2.0849609375
,289.6999147,2.0556640625
,289.7005519,2.0263671875
,289.7366217,1.9921875
,289.7561156,1.962890625
,289.7591798,1.9287109375
,289.7944364,1.904296875
,289.8151165,1.875
,289.8209085,1.8505859375
,289.8549638,1.8212890625
,289.8761531,1.8017578125
,289.8815616,1.77734375
,289.9220117,1.7578125
,289.9224306,1.73828125
,289.9409033,1.7138671875
,289.9747531,1.6943359375
,289.9955358,1.6796875
,290.0007571,1.6650390625
,290.0363521,1.650390625
,290.0412263,1.640625
,290.0861725,1.630859375
,290.0866444,1.6259765625
,290.1169172,1.62109375
,290.1213888,1.6357421875
,290.1622671,1.708984375
,290.1626242,1.845703125
,290.1995098,1.97265625
,290.1999316,2.0947265625
,290.2413142,2.1923828125
,290.2615777,2.2607421875
,290.2645399,2.3095703125
,290.2819147,2.34375
,290.3004295,2.3681640625
,290.3359624,2.3779296875
,290.3652816,2.373046875
,290.3658678,2.3583984375
,290.3832718,2.3291015625
,290.42654,2.2900390625
,290.427127,2.24609375
,290.4423501,2.197265625
,290.478303,2.1533203125
,290.4997521,2.119140625
,290.5001149,2.0849609375
,290.5483855,2.0556640625
,290.5487057,2.021484375
,290.561158,1.9921875
,290.5982526,1.9580078125
,290.6274056,1.9287109375
,290.6277739,1.8994140625
,290.6439556,1.8701171875
,290.6614086,1.845703125
,290.7041832,1.8212890625
,290.7046932,1.796875
,290.7222779,1.77734375
,290.7567523,1.7529296875
,290.777031,1.7333984375
,290.7848272,1.708984375
,290.8184086,1.6943359375
,290.8189621,1.6796875
,290.8554058,1.669921875
,290.8897157,1.66015625
,290.890189,1.650390625
,290.9040726,1.6455078125
,290.9234224,1.6357421875
,290.9655971,1.630859375
,290.9660684,1.650390625
,291.0124565,1.748046875
,291.0128412,1.8798828125
,291.0230631,2.01171875
,291.0414892,2.1142578125
,291.076907,2.20703125
,291.0815881,2.2705078125
,291.117922,2.314453125
,291.1233376,2.3388671875
,291.1596283,2.353515625
,291.1819748,2.353515625
,291.1846493,2.3486328125
,291.228845,2.32421875
,291.2292066,2.2900390625
,291.2591301,2.2509765625
,291.263708,2.2119140625
,291.2993769,2.1728515625
,291.302354,2.138671875
,291.3509045,2.109375
,291.3514744,2.080078125
,291.3807058,2.05078125
,291.3814699,2.0263671875
,291.4272452,1.9970703125
,291.4276061,1.97265625
,291.4445177,1.9482421875
,291.4875899,1.9189453125
,291.4881851,1.8896484375
,291.5042186,1.8603515625
,291.5399976,1.8359375
,291.5444441,1.806640625
,291.5618357,1.787109375
,291.5969598,1.7724609375
,291.625129,1.7529296875
,291.6254969,1.7333984375
,291.6736938,1.7138671875
,291.6745807,1.7041015625
,291.6850441,1.689453125
,291.7200043,1.6796875
,291.7205938,1.669921875
,291.7559746,1.6650390625
,291.7767779,1.66015625
,291.7813018,1.689453125
,291.8160768,1.787109375
,291.8369991,1.923828125
,291.8446314,2.05078125
,291.8651728,2.158203125
,291.8860782,2.24609375
,291.9218908,2.3095703125
,291.9268611,2.3583984375
,291.9436306,2.3876953125
,291.9794719,2.412109375
,291.9822054,2.4169921875
,292.0172462,2.412109375
,292.037708,2.3974609375
,292.0462583,2.3681640625
,292.0901032,2.32421875
,292.0905495,2.2802734375
,292.1034583,2.236328125
,292.123102,2.1923828125
,292.1583788,2.158203125
,292.1627287,2.1240234375
,292.2122957,2.08984375
,292.2127492,2.0556640625
,292.2321302,2.0263671875
,292.2454369,1.9970703125
,292.2833572,1.9677734375
,292.2838483,1.9384765625
,292.3180568,1.9140625
,292.3244542,1.8896484375
,292.3684921,1.8701171875
,292.3688589,1.8408203125
,292.3850311,1.81640625
,292.4076125,1.7919921875
,292.4443189,1.767578125
,292.4446897,1.7431640625
,292.4803148,1.7236328125
,292.4819772,1.708984375
,292.5172731,1.689453125
,292.5382862,1.669921875
,292.5438054,1.66015625
,292.5822586,1.650390625
,292.5865896,1.6455078125
,292.6322779,1.640625
,292.633031,1.66015625
,292.6480935,1.748046875
,292.6646799,1.875
,292.6855535,2.0068359375
,292.7028894,2.1142578125
,292.7394486,2.20703125
,292.7603875,2.275390625
,292.7662345,2.32421875
,292.8030642,2.353515625
,292.8072173,2.3681640625
,292.859143,2.3779296875
,292.8595372,2.373046875
,292.8635393,2.36328125
,292.9049019,2.3388671875
,292.9052095,2.3046875
,292.9255266,2.2607421875
,292.9673756,2.216796875
,292.9678515,2.177734375
,292.9991067,2.138671875
,293.0048834,2.1044921875
,293.0256771,2.0751953125
,293.0451268,2.0458984375
,293.0674984,2.01171875
,293.0875692,1.9775390625
,293.1083037,1.953125
,293.1267111,1.923828125
,293.169292,1.8896484375
,293.1696211,1.865234375
,293.1826446,1.8359375
,293.2208834,1.81640625
,293.2233922,1.796875
,293.2627995,1.77734375
,293.2674466,1.7578125
,293.2878872,1.7431640625
,293.3082075,1.7236328125
,293.3275813,1.7041015625
,293.3709354,1.689453125
,293.3712454,1.6748046875
,293.383272,1.6552734375
,293.4195855,1.6455078125
,293.4398437,1.640625
,293.446759,1.6259765625
,293.4831649,1.62109375
,293.4885001,1.6455078125
,293.509159,1.748046875
,293.5298521,1.875
,293.5501904,2.001953125
,293.5655794,2.1044921875
,293.5860548,2.197265625
,293.6062572,2.2607421875
,293.6275283,2.3095703125
,293.6653811,2.3388671875
,293.6658082,2.3583984375
,293.6881957,2.36328125
,293.7283538,2.3583984375
,293.7286838,2.3388671875
,293.7441481,2.314453125
,293.7798776,2.275390625
,293.7846752,2.2314453125
,293.8212414,2.1875
,293.8428003,2.1484375
,293.8479114,2.109375
,293.8831598,2.0751953125
,293.8881976,2.041015625
,293.9036789,2.01171875
,293.9438652,1.9873046875
,293.9442528,1.9580078125
,293.9896239,1.9287109375
,293.9900371,1.904296875
,294.0105776,1.875
,294.0256228,1.845703125
,294.0623693,1.8212890625
,294.0834933,1.8017578125
,294.0882161,1.77734375
,294.1227722,1.7578125
,294.1463003,1.73828125
,294.1468895,1.7236328125
,294.1666885,1.7041015625
,294.2077618,1.689453125
,294.2084093,1.6796875
,294.2453011,1.6650390625
,294.2471613,1.650390625
,294.283718,1.640625
,294.3143536,1.62109375
,294.314858,1.6162109375
,294.3273133,1.640625
,294.3484253,1.7431640625
,294.3834981,1.8701171875
,294.3879224,2.001953125
,294.4235138,2.109375
,294.4282617,2.1875
,294.4625314,2.255859375
,294.4830633,2.2998046875
,294.4857529,2.3291015625
,294.5221867,2.34375
,294.5265342,2.34375
,294.5659969,2.333984375
,294.5967085,2.314453125
,294.5972901,2.2802734375
,294.6086739,2.236328125
,294.6230734,2.197265625
,294.6614252,2.1630859375
,294.6912141,2.12890625
,294.6918509,2.0947265625
,294.7067504,2.0654296875
,294.7412879,2.0361328125
,294.7612701,2.001953125
,294.7701822,1.97265625
,294.8146624,1.9482421875
,294.8150884,1.9189453125
,294.8312471,1.89453125
,294.8487645,1.8701171875
,294.8686149,1.8505859375
,294.9039762,1.826171875
,294.9069719,1.806640625
,294.9428933,1.7822265625
,294.9705398,1.767578125
,294.971052,1.748046875
,294.9897487,1.7333984375
,295.0071319,1.71875
,295.0470527,1.708984375
,295.0477053,1.69921875
,295.0683511,1.689453125
,295.1026572,1.6796875
,295.1101396,1.6650390625
,295.1570418,1.6650390625
,295.1574689,1.7138671875
,295.170214,1.8359375
,295.1864287,1.9580078125
,295.2232617,2.0751953125
,295.2276758,2.16796875
,295.2793349,2.24609375
,295.2796984,2.2998046875
,295.2889976,2.34375
,295.3265274,2.3681640625
,295.3282484,2.3779296875
,295.3661042,2.3779296875
,295.3666718,2.36328125
,295.4024444,2.3486328125
,295.4078385,2.3193359375
,295.4429985,2.2802734375
,295.4490882,2.236328125
,295.4975082,2.1923828125
,295.4979929,2.158203125
,295.5105636,2.1240234375
,295.5451634,2.08984375
,295.5657645,2.060546875
,295.5678783,2.03125
,295.6054626,2.0068359375
,295.6103111,1.9775390625
,295.6285499,1.9482421875
,295.664158,1.9189453125
,295.6845661,1.89453125
,295.6899558,1.8701171875
,295.7291628,1.8408203125
,295.7299255,1.8212890625
,295.7473833,1.796875
,295.7895339,1.77734375
,295.7898492,1.7578125
,295.8108701,1.7431640625
,295.8302596,1.728515625
,295.866305,1.71875
,295.8693592,1.7041015625
,295.9055432,1.689453125
,295.9059035,1.6748046875
,295.9263428,1.669921875
,295.9636081,1.66015625
,295.9933738,1.6650390625
,295.9939037,1.73828125
,296.0110987,1.85546875
,296.0463604,1.982421875
,296.0516552,2.0947265625
,296.087682,2.1923828125
,296.0881737,2.2607421875
,296.118415,2.3193359375
,296.1302615,2.3583984375
,296.1654273,2.3828125
,296.1708404,2.392578125
,296.1903959,2.392578125
,296.2406218,2.3779296875
,296.2412254,2.353515625
,296.2704939,2.32421875
,296.2710252,2.275390625
,296.2897623,2.2314453125
,296.3239974,2.1923828125
,296.3286699,2.158203125
,296.3635346,2.1240234375
,296.3829007,2.08984375
,296.392542,2.0556640625
,296.4274114,2.0263671875
,296.430102,1.9921875
,296.4711296,1.9580078125
,296.4716026,1.9287109375
,296.4889888,1.904296875
,296.5341063,1.875
,296.5345738,1.845703125
,296.5547043,1.81640625
,296.5712901,1.7919921875
,296.6057533,1.767578125
,296.6261427,1.748046875
,296.634463,1.728515625
,296.6494485,1.708984375
,296.6839525,1.689453125
,296.6895032,1.6748046875
,296.723905,1.66015625
,296.7448267,1.6455078125
,296.7503008,1.6357421875
,296.7959027,1.6259765625
,296.7962634,1.611328125
,296.8162662,1.6064453125
,296.8284548,1.66015625
,296.8636975,1.77734375
,296.884484,1.9189453125
,296.8894736,2.0361328125
,296.9261997,2.138671875
,296.9497293,2.216796875
,296.9500845,2.2802734375
,296.9859729,2.3193359375
,297.0069802,2.34375
,297.0120506,2.353515625
,297.0288343,2.3486328125
,297.0648876,2.34375
,297.086124,2.314453125
,297.0912809,2.2802734375
,297.1118749,2.236328125
,297.1479589,2.1923828125
,297.1523703,2.1484375
,297.1890938,2.109375
,297.1896767,2.0703125
,297.2256302,2.041015625
,297.2291979,2.0068359375
,297.266297,1.9775390625
,297.2860258,1.9482421875
,297.2918882,1.9189453125
,297.3273843,1.884765625
,297.3320178,1.8603515625
,297.3655391,1.8359375
,297.3877775,1.8115234375
,297.3881301,1.7919921875
,297.4255698,1.767578125
,297.430708,1.748046875
,297.4658656,1.728515625
,297.4879653,1.7138671875
,297.4935344,1.6943359375
,297.5387843,1.6796875
,297.5391562,1.6650390625
,297.5499052,1.66015625
,297.5842144,1.650390625
,297.6058467,1.6455078125
,297.6108874,1.6357421875
,297.6469075,1.640625
,297.6531331,1.69921875
,297.6722826,1.81640625
,297.707393,1.953125
,297.728986,2.0654296875
,297.733703,2.16796875
,297.7500485,2.2412109375
,297.7881527,2.2998046875
,297.7915428,2.333984375
,297.8123856,2.3583984375
,297.8473789,2.3681640625
,297.868206,2.3681640625
,297.8732761,2.353515625
,297.924835,2.32421875
,297.925204,2.28515625
,297.9302894,2.24609375
,297.973075,2.20703125
,297.9736509,2.1728515625
,297.9917326,2.1435546875
,298.0261846,2.109375
,298.0472318,2.080078125
,298.053244,2.0458984375
,298.0953416,2.0166015625
,298.0958734,1.9873046875
,298.11177,1.962890625
,298.1465527,1.93359375
,298.1526518,1.9091796875
,298.1720261,1.8798828125
,298.2083876,1.85546875
,298.2136884,1.826171875
,298.2480329,1.806640625
,298.2687583,1.787109375
,298.2706773,1.7626953125
,298.3138857,1.748046875
,298.3142469,1.7333984375
,298.3322111,1.71875
,298.3678846,1.7041015625
,298.3740003,1.689453125
,298.3936611,1.6796875
,298.4151677,1.669921875
,298.4525521,1.669921875
,298.4529748,1.7236328125
,298.4724312,1.8310546875
,298.5075708,1.9677734375
,298.5127434,2.080078125
,298.5462834,2.1826171875
,298.5673255,2.2607421875
,298.5729498,2.314453125
,298.5951617,2.353515625
,298.6308626,2.3779296875
,298.6360179,2.3876953125
,298.6514062,2.3876953125
,298.6875395,2.3828125
,298.6927794,2.36328125
,298.7294665,2.333984375
,298.7321907,2.2900390625
,298.7675265,2.24609375
,298.78752,2.2021484375
,298.7955107,2.1630859375
,298.8101261,2.1240234375
,298.8421669,2.0947265625
,298.8628854,2.0654296875
,298.8726984,2.0361328125
,298.9079308,2.001953125
,298.9374765,1.97265625
,298.9378362,1.943359375
,298.9559484,1.9140625
,298.9925982,1.884765625
,298.9931513,1.85546875
,299.0120056,1.8359375
,299.0465095,1.8115234375
,299.0672113,1.787109375
,299.074476,1.767578125
,299.1223366,1.7431640625
,299.1228814,1.728515625
,299.1354835,1.708984375
,299.18386,1.6943359375
,299.1842328,1.6796875
,299.1969381,1.6650390625
,299.2120095,1.650390625
,299.2477336,1.6455078125
,299.2771735,1.640625
,299.2775353,1.6943359375
,299.2945067,1.8017578125
,299.3312758,1.93359375
,299.3361088,2.0458984375
,299.3695315,2.1484375
,299.3903212,2.2265625
,299.3931352,2.2900390625
,299.4125573,2.3291015625
,299.4491137,2.3583984375
,299.4691295,2.373046875
,299.4746858,2.3779296875
,299.5118081,2.3681640625
,299.5173592,2.353515625
,299.5566312,2.32421875
,299.5572107,2.28515625
,299.5737678,2.24609375
,299.616509,2.2021484375
,299.6168641,2.1630859375
,299.633983,2.1240234375
,299.6774969,2.08984375
,299.6779937,2.060546875
,299.6980201,2.0263671875
,299.7119812,1.9970703125
,299.7472702,1.9677734375
,299.7679391,1.9384765625
,299.7727673,1.9140625
,299.8170687,1.884765625
,299.8174834,1.85546875
,299.8355058,1.8310546875
,299.8772589,1.806640625
,299.8776239,1.77734375
,299.91235,1.7529296875
,299.917475,1.7333984375
,299.9334344,1.708984375
,299.9686845,1.689453125
,299.9745171,1.6748046875
,300.0169721,1.6552734375
,300.0175387,1.640625
,300.0466181,1.630859375
,300.0548556,1.6162109375
,300.0910775,1.6064453125
,300.1229753,1.6259765625
,300.1233389,1.7236328125
,300.1354658,1.85546875
,300.1720092,1.9921875
,300.176485,2.1044921875
,300.2146803,2.1875
,300.2150701,2.255859375
,300.2514751,2.2998046875
,300.271975,2.3291015625
,300.2726636,2.34375
,300.3107858,2.3486328125
,300.3153838,2.34375
,300.3504742,2.3291015625
,300.3561953,2.2998046875
,300.3766428,2.255859375
,300.3956269,2.20703125
,300.4316832,2.1630859375
,300.4320353,2.119140625
,300.4527453,2.0849609375
,300.4900114,2.05078125
,300.4947172,2.0068359375
,300.5411864,1.982421875
,300.5416666,1.9580078125
,300.5619153,1.93359375
,300.5779912,1.904296875
,300.5968997,1.8798828125
,300.6172853,1.8505859375
,300.6518663,1.826171875
,300.6729477,1.8017578125
,300.6758628,1.77734375
,300.710589,1.7529296875
,300.7158454,1.7333984375
,300.7516209,1.7138671875
,300.7565785,1.6943359375
,300.7927726,1.6796875
,300.7980597,1.669921875
,300.8192604,1.66015625
,300.8360417,1.650390625
,300.8704665,1.6455078125
,300.8761318,1.640625
,300.9142435,1.6748046875
,300.9146023,1.767578125
,300.9616628,1.904296875
,300.9621436,2.021484375
,300.9923651,2.12890625
,300.9929572,2.20703125
,301.0394224,2.275390625
,301.0398022,2.314453125
,301.0601133,2.3486328125
,301.0761065,2.3583984375
,301.0986087,2.3583984375
,301.1336966,2.353515625
,301.1369514,2.3291015625
,301.1726429,2.294921875
,301.1730102,2.2509765625
,301.2108703,2.20703125
,301.2408577,2.16796875
,301.2412548,2.1337890625
,301.2578906,2.1044921875
,301.3021496,2.0751953125
,301.3025053,2.0458984375
,301.3191412,2.0166015625
,301.3528764,1.9921875
,301.3584174,1.9677734375
,301.3749961,1.943359375
,301.4252298,1.9189453125
,301.4255868,1.89453125
,301.4463875,1.8701171875
,301.4579788,1.845703125
,301.5044439,1.826171875
,301.5049478,1.806640625
,301.5184511,1.787109375
,301.567623,1.767578125
,301.5679886,1.7529296875
,301.5872029,1.7431640625
,301.5974589,1.728515625
,301.633111,1.71875
,301.6364713,1.708984375
,301.6733561,1.6943359375
,301.7085953,1.6943359375
,301.7090287,1.7578125
,301.7141437,1.8701171875
,301.7542838,1.9970703125
,301.7548455,2.1142578125
,301.7928884,2.2021484375
,301.7981329,2.275390625
,301.8322354,2.3291015625
,301.8521765,2.3681640625
,301.8574346,2.3876953125
,301.8956448,2.40234375
,301.8961833,2.40234375
,301.9136465,2.392578125
,301.957421,2.373046875
,301.9580124,2.3388671875
,301.9953628,2.294921875
,301.9959387,2.2509765625
,302.0326058,2.20703125
,302.0652245,2.1630859375
,302.0656029,2.1240234375
,302.0812043,2.0947265625
,302.1259402,2.060546875
,302.1264212,2.0263671875
,302.1363142,1.9970703125
,302.173821,1.962890625
,302.1793029,1.9287109375
,302.1991017,1.89453125
,302.2370443,1.865234375
,302.240401,1.8359375
,302.2766985,1.8115234375
,302.2770622,1.787109375
,302.3122054,1.767578125
,302.3168107,1.7529296875
,302.3530586,1.73828125
,302.3582927,1.7236328125
,302.395463,1.7138671875
,302.3999081,1.69921875
,302.4434593,1.689453125
,302.443923,1.6796875
,302.4577196,1.6650390625
,302.492932,1.66015625
,302.4981597,1.6943359375
,302.5334223,1.796875
,302.5384154,1.9189453125
,302.5732025,2.041015625
,302.5935064,2.138671875
,302.5988106,2.2216796875
,302.6166283,2.28515625
,302.6526135,2.333984375
,302.6562497,2.3583984375
,302.7073297,2.3779296875
,302.7078122,2.3828125
,302.7204184,2.3828125
,302.7698229,2.36328125
,302.7701377,2.3388671875
,302.780683,2.294921875
,302.7991471,2.255859375
,302.8351394,2.20703125
,302.8553129,2.16796875
,302.8592583,2.1337890625
,302.8957895,2.099609375
,302.9000764,2.0654296875
,302.9408465,2.0361328125
,302.9413062,2.001953125
,302.9617851,1.97265625
,302.981239,1.943359375
,302.9974219,1.9091796875
,303.0317515,1.884765625
,303.0523805,1.85546875
,303.0577518,1.826171875
,303.1109728,1.8017578125
,303.1115093,1.7724609375
,303.1189245,1.748046875
,303.1555232,1.7236328125
,303.1869785,1.69921875
,303.1876399,1.6796875
,303.1990119,1.6650390625
,303.2501148,1.650390625
,303.2504499,1.640625
,303.2585771,1.630859375
,303.2955098,1.62109375
,303.3280054,1.6162109375
,303.3283839,1.6357421875
,303.3370895,1.7138671875
,303.3727061,1.8603515625
,303.3816874,1.9921875
,303.4155614,2.08984375
,303.4178449,2.1826171875
,303.441127,2.2509765625
,303.4775418,2.2998046875
,303.4821647,2.3291015625
,303.5288104,2.3486328125
,303.5291328,2.3486328125
,303.5422971,2.34375
,303.5592953,2.3291015625
,303.5943337,2.294921875
,303.5992734,2.255859375
,303.6350352,2.2119140625
,303.6404361,2.16796875
,303.6768199,2.1240234375
,303.6820027,2.0849609375
,303.7016325,2.0458984375
,303.7369898,2.01171875
,303.7373534,1.9775390625
,303.7770902,1.953125
,303.7976675,1.923828125
,303.800797,1.89453125
,303.8380804,1.8701171875
,303.841798,1.8408203125
,303.8781304,1.8115234375
,303.8824229,1.787109375
,303.8995013,1.7578125
,303.9186553,1.73828125
,303.9549782,1.708984375
,303.9601142,1.689453125
,303.9948379,1.669921875
,304.0146122,1.650390625
,304.0212497,1.640625
,304.0720885,1.6259765625
,304.0727893,1.6162109375
,304.0802569,1.6064453125
,304.1038091,1.6015625
,304.1201202,1.611328125
,304.1654719,1.7138671875
,304.1658255,1.8505859375
,304.1867589,1.9873046875
,304.2019608,2.099609375
,304.2244929,2.1875
,304.2594748,2.2509765625
,304.262446,2.3046875
,304.2783306,2.3291015625
,304.314731,2.3486328125
,304.3209495,2.353515625
,304.3558161,2.34375
,304.361263,2.32421875
,304.3989036,2.294921875
,304.4039065,2.2509765625
,304.4383907,2.20703125
,304.4428777,2.1630859375
,304.458046,2.1240234375
,304.4945313,2.0947265625
,304.5017867,2.0654296875
,304.5220239,2.041015625
,304.5567661,2.01171875
,304.5610273,1.982421875
,304.5948887,1.953125
,304.6159394,1.923828125
,304.6193797,1.89453125
,304.6638227,1.8701171875
,304.6644086,1.8505859375
,304.6794905,1.826171875
,304.7172309,1.8017578125
,304.7216497,1.7822265625
,304.756188,1.7626953125
,304.7776948,1.7431640625
,304.7829137,1.728515625
,304.8005579,1.708984375
,304.848715,1.69921875
,304.8492975,1.6748046875
,304.8695427,1.6650390625
,304.881692,1.6552734375
,304.9190355,1.66015625
,304.9218774,1.71875
,304.9568701,1.8359375
,304.9772102,1.9677734375
,304.9829428,2.080078125
,305.0038512,2.177734375
,305.021758,2.2509765625
,305.0575215,2.3095703125
,305.0619078,2.3486328125
,305.0963705,2.373046875
,305.1007641,2.3828125
,305.1381338,2.3828125
,305.1441262,2.373046875
,305.1790342,2.3486328125
,305.1795324,2.314453125
,305.2147234,2.2705078125
,305.2353301,2.2265625
,305.2409829,2.1826171875
,305.281029,2.1435546875
,305.281396,2.1044921875
,305.3167938,2.0654296875
,305.3377148,2.03125
,305.3430972,1.9970703125
,305.3616238,1.962890625
,305.4069153,1.93359375
,305.4072886,1.904296875
,305.4215088,1.8798828125
,305.4579048,1.85546875
,305.4636166,1.8310546875
,305.4988634,1.8017578125
,305.5038447,1.7822265625
,305.5181788,1.7578125
,305.5520671,1.7431640625
,305.5728355,1.7236328125
,305.5823989,1.708984375
,305.6187982,1.6943359375
,305.6404397,1.6796875
,305.6410346,1.6650390625
,305.6760166,1.6552734375
,305.695541,1.6455078125
,305.7044985,1.6357421875
,305.7266927,1.6552734375
,305.7431597,1.7431640625
,305.7776991,1.884765625
,305.7807762,2.0068359375
,305.8215222,2.119140625
,305.8219199,2.2021484375
,305.8556624,2.2705078125
,305.8760671,2.314453125
,305.8843502,2.34375
,305.9013733,2.3583984375
,305.9215082,2.373046875
,305.9590029,2.3681640625
,305.9615493,2.353515625
,305.9970382,2.32421875
,306.0172981,2.28515625
,306.02298,2.236328125
,306.0585008,2.1923828125
,306.0798273,2.1484375
,306.0803264,2.109375
,306.1172786,2.0751953125
,306.1497636,2.041015625
,306.150322,2.0068359375
,306.1633681,1.97265625
,306.2009169,1.943359375
,306.2054833,1.9091796875
,306.2411092,1.875
,306.2459926,1.845703125
,306.2632276,1.81640625
,306.2858203,1.7919921875
,306.3039222,1.7578125
,306.3380949,1.73828125
,306.343384,1.71875
,306.3800613,1.69921875
,306.3829603,1.6845703125
,306.4217154,1.6650390625
,306.4266921,1.650390625
,306.4764345,1.6357421875
,306.4769082,1.6162109375
,306.4834213,1.6064453125
,306.52378,1.5966796875
,306.5242029,1.5869140625
,306.5625571,1.591796875
,306.5631298,1.669921875
,306.5983053,1.8115234375
,306.6220459,1.9482421875
,306.6268454,2.0751953125
,306.6440586,2.1728515625
,306.662799,2.255859375
,306.6983501,2.3095703125
,306.7228705,2.3486328125
,306.7234148,2.3681640625
,306.7688077,2.3779296875
,306.7691785,2.3681640625
,306.7838787,2.353515625
,306.8204306,2.32421875
,306.8208519,2.2802734375
,306.8566643,2.236328125
,306.8763879,2.1875
,306.8846092,2.1435546875
,306.9198379,2.1044921875
,306.9403807,2.0703125
,306.9471022,2.0361328125
,306.9864707,2.0068359375
,306.9868792,1.9775390625
,307.0060981,1.9384765625
,307.0229352,1.8994140625
,307.0657576,1.8798828125
,307.0663411,1.85546875
,307.0867339,1.8359375
,307.1065168,1.8115234375
,307.125124,1.787109375
,307.1613218,1.767578125
,307.1671992,1.748046875
,307.1834462,1.728515625
,307.2212643,1.7138671875
,307.2216323,1.69921875
,307.2590613,1.6796875
,307.2664058,1.6650390625
,307.2853751,1.650390625
,307.319534,1.6357421875
,307.3404379,1.6259765625
,307.3457254,1.6259765625
,307.36459,1.650390625
,307.4013368,1.7529296875
,307.4040773,1.884765625
,307.4545127,2.0166015625
,307.4548703,2.119140625
,307.4754359,2.2119140625
,307.486957,2.2705078125
,307.5070723,2.3095703125
,307.5503005,2.3388671875
,307.5508953,2.34375
,307.5639238,2.3486328125
,307.6001655,2.3388671875
,307.6056352,2.314453125
,307.6243398,2.275390625
,307.6622417,2.2265625
,307.6665214,2.1875
,307.7037121,2.1435546875
,307.7087061,2.109375
,307.7287632,2.0751953125
,307.7453973,2.041015625
,307.7799508,2.021484375
,307.7848233,1.9970703125
,307.8072734,1.97265625
,307.8256631,1.9482421875
,307.876499,1.9189453125
,307.8772178,1.89453125
,307.9075434,1.8701171875
,307.9079371,1.845703125
,307.924148,1.8212890625
,307.968792,1.8017578125
,307.9693763,1.7822265625
,307.988701,1.7626953125
,308.0308917,1.7431640625
,308.0314673,1.728515625
,308.0474892,1.708984375
,308.0685831,1.6943359375
,308.0860072,1.6796875
,308.1050113,1.6748046875
,308.1257372,1.6650390625
,308.1457366,1.6650390625
,308.1847224,1.71875
,308.185073,1.8310546875
,308.2312062,1.962890625
,308.2315612,2.080078125
,308.2479004,2.1826171875
,308.263462,2.255859375
,308.2992163,2.3193359375
,308.3073751,2.3583984375
,308.3255824,2.3828125
,308.3614766,2.392578125
,308.3815922,2.3974609375
,308.3874917,2.3828125
,308.4346444,2.36328125
,308.4350028,2.32421875
,308.4495562,2.28515625
,308.4648076,2.2265625
,308.4978523,2.1875
,308.5190102,2.1533203125
,308.52684,2.119140625
,308.5736267,2.0849609375
,308.5739891,2.05078125
,308.586751,2.021484375
,308.6218159,1.9873046875
,308.6428492,1.9580078125
,308.6453775,1.923828125
,308.6812071,1.8994140625
,308.6866055,1.8701171875
,308.7233729,1.845703125
,308.7276247,1.81640625
,308.7484012,1.796875
,308.769039,1.77734375
,308.7890466,1.7578125
,308.8242064,1.73828125
,308.8585408,1.71875
,308.8591197,1.69921875
,308.8666256,1.6796875
,308.9052781,1.6650390625
,308.9086348,1.650390625
,308.9283686,1.640625
,308.9640414,1.6259765625
,308.9696862,1.6259765625
,308.9854107,1.6552734375
,309.0282993,1.7724609375
,309.0286509,1.904296875
,309.0470734,2.0361328125
,309.0826178,2.138671875
,309.0876342,2.2314453125
,309.1239794,2.2900390625
,309.1525797,2.3388671875
,309.1529451,2.3681640625
,309.1681357,2.3828125
,309.1910507,2.3779296875
,309.208157,2.36328125
,309.228471,2.3486328125
,309.2643849,2.32421875
,309.2652509,2.2802734375
,309.30776,2.236328125
,309.3375321,2.1923828125
,309.3381719,2.1533203125
,309.3492312,2.1142578125
,309.3667173,2.080078125
,309.3877061,2.05078125
,309.4227647,2.0166015625
,309.4276784,1.982421875
,309.4778685,1.953125
,309.4785096,1.9189453125
,309.5087124,1.8896484375
,309.5090677,1.8603515625
,309.5553655,1.8310546875
,309.5557204,1.806640625
,309.5763149,1.787109375
,309.5867658,1.7626953125
,309.6349748,1.748046875
,309.6353288,1.7236328125
,309.665557,1.7041015625
,309.668746,1.6845703125
,309.691283,1.669921875
,309.7077427,1.6552734375
,309.7439234,1.640625
,309.7484383,1.630859375
,309.7872462,1.6259765625
,309.7878284,1.62109375
,309.8254584,1.6162109375
,309.8271844,1.6455078125
,309.8619985,1.7431640625
,309.8831431,1.884765625
,309.8910978,2.01171875
,309.9128476,2.1142578125
,309.9283058,2.1923828125
,309.9622784,2.2705078125
,309.9829196,2.3193359375
,309.989065,2.353515625
,310.0267415,2.373046875
,310.0313401,2.3779296875
,310.0665738,2.3681640625
,310.0690092,2.353515625
,310.1051133,2.3193359375
,310.1269315,2.2802734375
,310.1272853,2.236328125
,310.1659618,2.1923828125
,310.1706195,2.1484375
,310.20691,2.109375
,310.2092317,2.0751953125
,310.2438731,2.041015625
,310.2643659,2.0068359375
,310.2649727,1.97265625
,310.3147452,1.943359375
,310.3151049,1.9140625
,310.3354993,1.884765625
,310.3498108,1.85546875
,310.3696502,1.826171875
,310.3895129,1.796875
,310.4102212,1.7724609375
,310.4552128,1.748046875
,310.4555766,1.7236328125
,310.474036,1.708984375
,310.4882018,1.689453125
,310.509061,1.6748046875
,310.5486566,1.6552734375
,310.5489827,1.6455078125
,310.5838815,1.6259765625
,310.6049436,1.611328125
,310.6102277,1.5966796875
,310.632256,1.5771484375
,310.6467194,1.5625
,310.6810851,1.58203125
,310.7012063,1.6650390625
,310.7095407,1.8115234375
,310.7460605,1.9580078125
,310.7506775,2.0751953125
,310.7982087,2.177734375
,310.7985617,2.24609375
,310.812825,2.3046875
,310.8288234,2.333984375
,310.8645486,2.353515625
,310.8923152,2.3583984375
,310.8928894,2.3486328125
,310.9116136,2.32421875
,310.9541461,2.294921875
,310.954821,2.2509765625
,310.9736734,2.2021484375
,310.9899887,2.1630859375
,311.0252409,2.1240234375
,311.0282382,2.08984375
,311.0619449,2.060546875
,311.0837872,2.0361328125
,311.0909698,2.0068359375
,311.1394184,1.9775390625
,311.1397865,1.9482421875
,311.1511112,1.9140625
,311.1695826,1.8798828125
,311.204912,1.85546875
,311.2092618,1.8212890625
,311.247778,1.796875
,311.2683714,1.7724609375
,311.2699978,1.7529296875
,311.3105021,1.728515625
,311.3401515,1.708984375
,311.3405331,1.6943359375
,311.3521808,1.6748046875
,311.3872179,1.66015625
,311.4074203,1.6552734375
,311.4103271,1.6552734375
,311.4445662,1.650390625
,311.4652281,1.650390625
,311.4711333,1.6552734375
,311.5128251,1.7138671875
,311.5131876,1.826171875
,311.5477576,1.953125
,311.5775052,2.0654296875
,311.57789,2.16796875
,311.5917753,2.2412109375
,311.6108836,2.294921875
,311.6560251,2.333984375
,311.6566122,2.353515625
,311.6875027,2.3583984375
,311.6920193,2.353515625
,311.732758,2.3388671875
,311.7332772,2.3095703125
,311.750136,2.2705078125
,311.7952648,2.2314453125
,311.7958412,2.1875
,311.8114493,2.1533203125
,311.831509,2.119140625
,311.8718787,2.0849609375
,311.8724551,2.0556640625
,311.8920448,2.0263671875
,311.9109896,1.9970703125
,311.9500853,1.9677734375
,311.950664,1.943359375
,311.9875275,1.9140625
,311.9910228,1.8896484375
,312.0416999,1.8603515625
,312.0422757,1.8359375
,312.0725318,1.806640625
,312.0730492,1.7822265625
,312.0933169,1.7529296875
,312.1112519,1.7236328125
,312.1515363,1.71875
,312.1520141,1.7041015625
,312.174495,1.6943359375
,312.2136398,1.6796875
,312.2142801,1.669921875
,312.2494313,1.6552734375
,312.2525883,1.650390625
,312.2685094,1.640625
,312.3054001,1.6455078125
,312.3378931,1.69921875
,312.3382904,1.8310546875
,312.3521881,1.9677734375
,312.3876746,2.0849609375
,312.3938483,2.1875
,312.4144268,2.2607421875
,312.4503768,2.32421875
,312.4509505,2.3583984375
,312.4860591,2.3876953125
,312.4907651,2.40234375
,312.5269439,2.40234375
,312.5323087,2.392578125
,312.5828643,2.373046875
,312.5832165,2.3388671875
,312.5946147,2.2998046875
,312.6114009,2.2509765625
,312.6318598,2.2119140625
,312.6661067,2.1728515625
,312.6714248,2.1337890625
,312.7079013,2.099609375
,312.7106908,2.0703125
,312.7479382,2.0361328125
,312.754084,2.001953125
,312.7742114,1.97265625
,312.7942281,1.943359375
,312.8465978,1.904296875
,312.8471464,1.875
,312.8520334,1.8603515625
,312.8871606,1.8359375
,312.8932867,1.8115234375
,312.9414725,1.7919921875
,312.9421284,1.767578125
,312.9537167,1.748046875
,312.9900232,1.7333984375
,313.0206816,1.7138671875
,313.0212568,1.6943359375
,313.0310112,1.6845703125
,313.0647124,1.669921875
,313.0855035,1.66015625
,313.0941711,1.6455078125
,313.1309021,1.6357421875
,313.1351163,1.6357421875
,313.1763046,1.689453125
,313.1766674,1.806640625
,313.1927128,1.943359375
,313.2122456,2.060546875
,313.2556785,2.1630859375
,313.2562611,2.236328125
,313.2737613,2.2998046875
,313.3171954,2.34375
,313.3175552,2.3681640625
,313.3352789,2.3828125
,313.3519609,2.3828125
,313.3884467,2.3779296875
,313.3931916,2.3583984375
,313.4131463,2.3291015625
,313.4567297,2.28515625
,313.4572905,2.2412109375
,313.4872603,2.197265625
,313.4959794,2.1630859375
,313.5147102,2.1240234375
,313.5361093,2.080078125
,313.5516907,2.041015625
,313.5722413,2.0166015625
,313.6067882,1.9873046875
,313.6292821,1.9580078125
,313.6337353,1.9287109375
,313.6545467,1.8994140625
,313.6909107,1.875
,313.6949882,1.845703125
,313.7352585,1.8212890625
,313.73582,1.796875
,313.765608,1.77734375
,313.7727131,1.7578125
,313.8117982,1.7333984375
,313.8326143,1.7138671875
,313.8330401,1.689453125
,313.8742246,1.6748046875
,313.8745824,1.6650390625
,313.8943428,1.6552734375
,313.9303723,1.6455078125
,313.931039,1.6357421875
,313.9672963,1.62109375
,313.9880953,1.611328125
,313.9931278,1.6162109375
,314.0307489,1.689453125
,314.0623317,1.81640625
,314.0627482,1.953125
,314.0736012,2.0654296875
,314.1074742,2.16796875
,314.1137913,2.2412109375
,314.1551736,2.2998046875
,314.1556951,2.333984375
,314.1765031,2.3583984375
,314.1966354,2.36328125
,314.2321129,2.3583984375
,314.2369963,2.3388671875
,314.2565048,2.3046875
,314.290687,2.2705078125
,314.3112048,2.2265625
,314.3143534,2.1875
,314.3489551,2.1484375
,314.3700965,2.1142578125
,314.3753052,2.0751953125
,314.4116293,2.0458984375
,314.4159797,2.0166015625
,314.4675987,1.9873046875
,314.4681853,1.953125
,314.4733671,1.9287109375
,314.51325,1.8994140625
,314.5336373,1.8701171875
,314.5343349,1.845703125
,314.5700622,1.8212890625
,314.5773764,1.796875
,314.6146195,1.7724609375
,314.6151992,1.748046875
,314.6511844,1.728515625
,314.65173,1.7138671875
,314.6880156,1.69921875
,314.7094919,1.6845703125
,314.7167492,1.6748046875
,314.7664882,1.6650390625
,314.7669128,1.6552734375
,314.7765139,1.650390625
,314.7945319,1.6455078125
,314.8288793,1.6650390625
,314.8341687,1.748046875
,314.869928,1.875
,314.8752475,1.9921875
,314.8956511,2.1044921875
,314.9292969,2.197265625
,314.9506242,2.2607421875
,314.9588402,2.3046875
,314.9766826,2.333984375
,315.0143831,2.3486328125
,315.0149629,2.3486328125
,315.036469,2.3486328125
,315.0550756,2.3291015625
,315.0931356,2.294921875
,315.1138754,2.255859375
,315.118564,2.2119140625
,315.1368122,2.16796875
,315.1712795,2.1337890625
,315.1906653,2.1044921875
,315.1952773,2.0751953125
,315.2342005,2.05078125
,315.2346483,2.021484375
,315.2800165,1.9921875
,315.2804162,1.962890625
,315.3002525,1.93359375
,315.3164498,1.904296875
,315.357439,1.875
,315.3577954,1.845703125
,315.3746229,1.826171875
,315.4098768,1.806640625
,315.4150691,1.7919921875
,315.4539922,1.7724609375
,315.4546605,1.748046875
,315.4905363,1.728515625
,315.5119184,1.708984375
,315.5122818,1.689453125
,315.5483809,1.6748046875
,315.5552836,1.66015625
,315.5767272,1.6455078125
,315.6210438,1.6357421875
,315.6214664,1.630859375
,315.6373954,1.6748046875
,315.6741459,1.787109375
,315.6771386,1.923828125
,315.6968769,2.041015625
,315.7340557,2.138671875
,315.7635582,2.2216796875
,315.763952,2.2900390625
,315.776676,2.333984375
,315.8130324,2.36328125
,315.8159468,2.3779296875
,315.8509095,2.3828125
,315.8706053,2.373046875
,315.8779951,2.353515625
,315.913678,2.3193359375
,315.9140395,2.28515625
,315.9479723,2.24609375
,315.9687388,2.20703125
,315.9766692,2.16796875
,316.0117225,2.1337890625
,316.0180778,2.099609375
,316.0389771,2.0654296875
,316.0744035,2.0361328125
,316.0750085,2.001953125
,316.108927,1.97265625
,316.1300472,1.943359375
,316.1353258,1.9091796875
,316.1851384,1.884765625
,316.1856094,1.85546875
,316.2144936,1.8310546875
,316.2177189,1.806640625
,316.2604586,1.7822265625
,316.2608967,1.7626953125
,316.2754509,1.7431640625
,316.3236721,1.71875
,316.3240903,1.7041015625
,316.337599,1.689453125
,316.3739197,1.6748046875
,316.3767379,1.66015625
,316.4152466,1.650390625
,316.4468451,1.640625
,316.4472352,1.6259765625
,316.4561224,1.630859375
,316.4920327,1.6943359375
,316.4965754,1.8212890625
,316.5179085,1.9482421875
,316.5522117,2.0703125
,316.5725132,2.16796875
,316.5780164,2.24609375
,316.6134516,2.2998046875
,316.6339986,2.3388671875
,316.634361,2.36328125
,316.6813992,2.3779296875
,316.6819616,2.3779296875
,316.712708,2.3681640625
,316.719591,2.3486328125
,316.7392648,2.314453125
,316.7903341,2.2705078125
,316.7907959,2.2216796875
,316.7958853,2.177734375
,316.8146549,2.1435546875
,316.8500731,2.109375
,316.8711383,2.0751953125
,316.8785243,2.0458984375
,316.9148973,2.01171875
,316.9180226,1.982421875
,316.9556149,1.953125
,316.9606102,1.923828125
,316.9768171,1.89453125
,317.0114337,1.8701171875
,317.0158709,1.845703125
,317.0503442,1.8212890625
,317.070441,1.7919921875
,317.0778856,1.7724609375
,317.0982768,1.748046875
,317.1479518,1.7236328125
,317.1483118,1.7041015625
,317.1692134,1.6845703125
,317.1813299,1.6650390625
,317.1968084,1.6455078125
,317.2399796,1.640625
,317.240336,1.6259765625
,317.2606948,1.62109375
,317.2792972,1.611328125
,317.2995475,1.611328125
,317.3346244,1.6357421875
,317.3413602,1.7431640625
,317.3577703,1.875
,317.3781752,2.01171875
,317.4265134,2.1142578125
,317.4269994,2.20703125
,317.439698,2.2705078125
,317.4772449,2.314453125
,317.4778251,2.34375
,317.5147503,2.353515625
,317.5356104,2.353515625
,317.5359899,2.34375
,317.5719783,2.3291015625
,317.593174,2.294921875
,317.5988492,2.255859375
,317.6353074,2.20703125
,317.6397589,2.16796875
,317.659762,2.1240234375
,317.7055601,2.08984375
,317.7059288,2.0556640625
,317.7270713,2.0263671875
,317.739674,1.9970703125
,317.7593892,1.962890625
,317.7954938,1.9384765625
,317.8010275,1.9091796875
,317.8200897,1.8798828125
,317.8615332,1.8505859375
,317.8621557,1.8212890625
,317.8914186,1.796875
,317.9027631,1.7724609375
,317.9191616,1.7431640625
,317.9405781,1.7236328125
,317.959103,1.7041015625
,317.9792002,1.6943359375
,318.0147409,1.6796875
,318.0204874,1.6650390625
,318.0579562,1.6552734375
,318.0630906,1.6455078125
,318.0787714,1.6357421875
,318.1000471,1.6357421875
,318.1186516,1.630859375
,318.1700877,1.630859375
,318.1704178,1.669921875
,318.1806305,1.77734375
,318.219426,1.9140625
,318.2198104,2.0361328125
,318.2436811,2.1435546875
,318.2600176,2.2216796875
,318.2958013,2.28515625
,318.2998491,2.32421875
,318.3386406,2.3486328125
,318.3390279,2.3583984375
,318.3740031,2.353515625
,318.3949885,2.3388671875
,318.402077,2.3095703125
,318.4487844,2.2705078125
,318.4491981,2.2265625
,318.4596756,2.1826171875
,318.4960153,2.1435546875
,318.5005917,2.1142578125
,318.5198673,2.0849609375
,318.5534709,2.0556640625
,318.574531,2.03125
,318.5819993,2.001953125
,318.6166706,1.9775390625
,318.6225787,1.9482421875
,318.6378466,1.9189453125
,318.6743189,1.89453125
,318.6953304,1.865234375
,318.7009244,1.8408203125
,318.7210498,1.81640625
,318.7408931,1.796875
,318.7756077,1.7724609375
,318.7962869,1.7529296875
,318.8021659,1.73828125
,318.8191879,1.7236328125
,318.8410347,1.708984375
,318.8776683,1.6943359375
,318.8807489,1.6845703125
,318.9188547,1.6748046875
,318.9192171,1.669921875
,318.9602201,1.66015625
,318.9910648,1.66015625
,318.99164,1.708984375
,318.9999491,1.8359375
,319.0361327,1.962890625
,319.0389631,2.0849609375
,319.0747773,2.1875
,319.0961435,2.2607421875
,319.1012275,2.3193359375
,319.1453195,2.353515625
,319.1456756,2.3828125
,319.1655198,2.3876953125
,319.1796479,2.392578125
,319.2150986,2.3779296875
,319.2357937,2.353515625
,319.2417515,2.314453125
,319.278005,2.2705078125
,319.2807444,2.2265625
,319.3154739,2.1826171875
,319.3366419,2.1435546875
,319.3424573,2.109375
,319.3586075,2.0751953125
,319.3957732,2.05078125
,319.4234754,2.021484375
,319.4238372,1.9921875
,319.4437204,1.962890625
,319.4854574,1.93359375
,319.4859596,1.904296875
,319.5033727,1.875
,319.5470268,1.845703125
,319.5474941,1.8212890625
,319.5603575,1.8017578125
,319.5963526,1.77734375
,319.6022648,1.7578125
,319.6416711,1.73828125
,319.6422666,1.71875
,319.6777785,1.7041015625
,319.6836295,1.689453125
,319.7182306,1.6748046875
,319.7185969,1.6650390625
,319.7402419,1.6552734375
,319.7751833,1.6455078125
,319.7949333,1.6455078125
,319.8036018,1.640625
,319.843197,1.6845703125
,319.8436611,1.787109375
,319.8907992,1.923828125
,319.8913729,2.0458984375
,319.9215042,2.158203125
,319.9221294,2.236328125
,319.966322,2.2998046875
,319.9667539,2.3388671875
,319.9828737,2.36328125
,320.0182294,2.373046875
,320.0227831,2.3779296875
,320.0585162,2.3681640625
,320.0910378,2.3486328125
,320.0915365,2.314453125
,320.100844,2.275390625
,320.13661,2.2314453125
,320.1676584,2.1875
,320.1682054,2.1484375
,320.1838928,2.1142578125
,320.2045374,2.0751953125
,320.2246695,2.0458984375
,320.2596919,2.01171875
,320.2601584,1.982421875
,320.2971902,1.9580078125
,320.3245783,1.9287109375
,320.3249376,1.8994140625
,320.3607651,1.8701171875
,320.3639435,1.8408203125
,320.3993603,1.81640625
,320.4046096,1.7919921875
,320.4389702,1.767578125
,320.4424046,1.7431640625
,320.4619721,1.728515625
,320.4966925,1.708984375
,320.5168405,1.69921875
,320.5240445,1.6845703125
,320.5608058,1.669921875
,320.5652707,1.6552734375
,320.5844226,1.640625
,320.6006335,1.630859375
,320.6511838,1.6162109375
,320.6515668,1.6064453125
,320.6627457,1.6064453125
,320.6986705,1.650390625
,320.7048422,1.767578125
,320.7412391,1.9091796875
,320.7444224,2.03125
,320.7821466,2.1337890625
,320.7866134,2.2119140625
,320.807561,2.275390625
,320.8213788,2.314453125
,320.8562853,2.3388671875
,320.8854497,2.353515625
,320.8858104,2.3486328125
,320.9197113,2.333984375
,320.9232313,2.3095703125
,320.9633573,2.2705078125
,320.9638127,2.2265625
,321.0001514,2.177734375
,321.0194336,2.1337890625
,321.0223691,2.0947265625
,321.0610639,2.060546875
,321.0614173,2.03125
,321.0957519,1.9970703125
,321.1168544,1.9677734375
,321.1264953,1.9384765625
,321.1612429,1.9140625
,321.161612,1.884765625
,321.1817334,1.865234375
,321.2181906,1.8359375
,321.2227574,1.8115234375
,321.2578201,1.7919921875
,321.2788164,1.767578125
,321.2838133,1.7431640625
,321.3184275,1.7236328125
,321.3386111,1.69921875
,321.3433153,1.6796875
,321.3643777,1.6650390625
,321.3981414,1.650390625
,321.4045854,1.640625
,321.4439189,1.630859375
,321.444383,1.6259765625
,321.4776034,1.6162109375
,321.4994692,1.611328125
,321.5052958,1.611328125
,321.5418831,1.6552734375
,321.5424581,1.7724609375
,321.5774565,1.923828125
,321.598419,2.0458984375
,321.6039014,2.1533203125
,321.6376739,2.236328125
,321.659273,2.2900390625
,321.6653819,2.3291015625
,321.707891,2.353515625
,321.7083112,2.36328125
,321.7214457,2.353515625
,321.7575456,2.3388671875
,321.7782213,2.3046875
,321.7823617,2.265625
,321.8179423,2.2216796875
,321.8387693,2.177734375
,321.8461974,2.1435546875
,321.8823271,2.109375
,321.8829699,2.080078125
,321.9193597,2.0556640625
,321.9239912,2.0263671875
,321.9600743,1.9970703125
,321.9636055,1.9677734375
,322.0045841,1.93359375
,322.0049468,1.904296875
,322.041675,1.875
,322.0469788,1.8505859375
,322.0623963,1.826171875
,322.1122665,1.8115234375
,322.1128763,1.796875
,322.1337689,1.77734375
,322.1456719,1.7626953125
,322.1916817,1.748046875
,322.1920973,1.7333984375
,322.2084305,1.7236328125
,322.2260999,1.7138671875
,322.2633307,1.7041015625
,322.2824602,1.6943359375
,322.2828186,1.6796875
,322.3205146,1.6748046875
,322.3244587,1.6845703125
,322.3451408,1.767578125
,322.3811736,1.8896484375
,322.4053979,2.021484375
,322.4057989,2.1240234375
,322.4442393,2.216796875
,322.4448535,2.2802734375
,322.4657321,2.3291015625
,322.5028035,2.3583984375
,322.5033759,2.373046875
,322.54734,2.373046875
,322.5478039,2.36328125
,322.5687123,2.34375
,322.5880951,2.3193359375
,322.6237713,2.2802734375
,322.6244029,2.236328125
,322.6580438,2.1923828125
,322.6789819,2.158203125
,322.6862692,2.1240234375
,322.7332963,2.0947265625
,322.7339028,2.060546875
,322.747977,2.03125
,322.7955555,1.9921875
,322.795984,1.9580078125
,322.8054007,1.9287109375
,322.841043,1.904296875
,322.8443434,1.8798828125
,322.8797467,1.85546875
,322.9002975,1.8310546875
,322.9073624,1.8115234375
,322.9284242,1.787109375
,322.9471083,1.7724609375
,322.9964666,1.7529296875
,322.9968893,1.73828125
,323.0162604,1.7236328125
,323.0265162,1.7138671875
,323.0739574,1.69921875
,323.0743849,1.689453125
,323.0860418,1.6796875
,323.1206329,1.669921875
,323.1421625,1.66015625
,323.1489023,1.6552734375
,323.1660284,1.669921875
,323.2019487,1.767578125
,323.2205974,1.8994140625
,323.225634,2.0361328125
,323.2645143,2.158203125
,323.285202,2.24609375
