fs,t,y
51.17478769818127,0.7678736000000002,1.4453125
,0.8033814000000001,1.484375
,0.8057238999999998,1.46484375
,0.8401801,1.5380859375
,0.8607029000000002,1.5869140625
,0.8704717,1.650390625
,0.9052818999999999,1.69921875
,0.9104473,1.767578125
,0.9582000000000002,1.8310546875
,0.9585895999999998,1.875
,0.970968,1.9384765625
,0.9895721000000002,1.982421875
,1.0360299999999998,2.0361328125
,1.0366572,2.0703125
,1.0500696999999999,2.099609375
,1.1001821,2.099609375
,1.1004219000000002,2.0849609375
,1.110439,2.0703125
,1.1477844,2.05078125
,1.1771946999999998,2.0263671875
,1.1774367,2.0361328125
,1.1903381,2.021484375
,1.2081762999999999,2.001953125
,1.2460491,1.982421875
,1.2493431,1.943359375
,1.2706895,1.9091796875
,1.3169923,1.875
,1.3172323000000001,1.845703125
,1.3280273,1.806640625
,1.3639131999999998,1.787109375
,1.3687757999999999,1.7578125
,1.4111668000000002,1.7333984375
,1.4114068,1.7041015625
,1.4591433,1.6943359375
,1.4595875,1.66015625
,1.4730126000000001,1.6357421875
,1.4860096,1.6015625
,1.5210168,1.591796875
,1.5427304,1.5673828125
,1.5492854,1.5625
,1.5854494,1.54296875
,1.6045946999999998,1.5185546875
,1.6101828,1.494140625
,1.6488854000000002,1.474609375
,1.6492827,1.455078125
,1.6724869999999998,1.4404296875
,1.6922039,1.3818359375
,1.7098344,1.337890625
,1.7450283999999998,1.38671875
,1.7512756,1.4404296875
,1.7705256,1.4990234375
,1.8067240999999998,1.552734375
,1.8128199999999999,1.611328125
,1.8597315,1.6552734375
,1.8599733999999999,1.708984375
,1.8720662,1.7724609375
,1.9086252,1.81640625
,1.9089453,1.89453125
,1.9435806000000002,1.9482421875
,1.9632313,2.021484375
,1.9725913,2.0556640625
,2.0083187999999996,2.08984375
,2.0135084,2.0947265625
,2.0328011000000004,2.0947265625
,2.0509081,2.0751953125
,2.0956096000000004,2.080078125
,2.0959991000000002,2.060546875
,2.1114964,2.0458984375
,2.1306668,2.0166015625
,2.1748978,1.9873046875
,2.1752177,1.9482421875
,2.1938366,1.9384765625
,2.2380704,1.9091796875
,2.2384911,1.8701171875
,2.2495662000000003,1.85546875
,2.2842829,1.8212890625
,2.2920740000000004,1.7919921875
,2.3265329,1.7529296875
,2.3327793999999997,1.728515625
,2.3699296,1.689453125
,2.3701726,1.66015625
,2.4091519999999997,1.6259765625
,2.4095418000000004,1.611328125
,2.4557835,1.58203125
,2.4561373,1.5771484375
,2.4715977000000002,1.54296875
,2.5172739999999996,1.5234375
,2.5175352999999996,1.5087890625
,2.5319792000000003,1.484375
,2.5804516,1.4599609375
,2.5806891,1.435546875
,2.5943787,1.3818359375
,2.6107978000000003,1.3720703125
,2.6563327,1.3720703125
,2.6566817,1.3720703125
,2.6718124999999997,1.3720703125
,2.7072087,1.376953125
,2.7275047,1.4306640625
,2.7323836000000004,1.474609375
,2.7674684999999997,1.5234375
,2.7889257,1.5673828125
,2.7893228,1.6259765625
,2.825882,1.6796875
,2.8461206,1.748046875
,2.8506239000000004,1.8115234375
,2.8915062000000002,1.85546875
,2.8918225,1.9189453125
,2.9111535999999996,1.9580078125
,2.95425,1.9970703125
,2.9545779999999997,2.0166015625
,2.9846752,2.05078125
,2.9890153,2.05078125
,3.0251569,2.041015625
,3.0456915999999996,2.0263671875
,3.0531170999999997,2.0166015625
,3.0877307,1.9873046875
,3.0928785999999997,1.962890625
,3.1093248000000004,1.93359375
,3.1537245,1.9140625
,3.1540552999999996,1.8994140625
,3.1887391000000003,1.865234375
,3.1934576999999997,1.8310546875
,3.2323644,1.806640625
,3.2327187000000004,1.7919921875
,3.2796255,1.7578125
,3.2799341999999996,1.73828125
,3.2889633,1.7041015625
,3.3250219000000003,1.6943359375
,3.3454942,1.6650390625
,3.3495233000000004,1.6455078125
,3.3830098,1.6162109375
,3.4024412999999996,1.591796875
,3.4125615,1.5625
,3.4463005000000004,1.54296875
,3.481427,1.5087890625
,3.4816946,1.50390625
,3.4948999,1.4892578125
,3.5109502,1.46484375
,3.5596444,1.455078125
,3.5600156,1.4453125
,3.5731906,1.42578125
,3.5951436,1.4111328125
,3.6140790000000003,1.40625
,3.6358715999999998,1.40625
,3.6550383999999996,1.4306640625
,3.6722059,1.4697265625
,3.6914157000000003,1.533203125
,3.7138489000000003,1.58203125
,3.7330582999999997,1.6552734375
,3.7754618000000004,1.7041015625
,3.7758002,1.7626953125
,3.7950502999999998,1.8310546875
,3.8135348000000002,1.875
,3.8488346,1.93359375
,3.8690191,1.9677734375
,3.8710118,2.041015625
,3.9052586,2.0654296875
,3.9306332,2.0947265625
,3.9309607,2.08984375
,3.9752946,2.0849609375
,3.9756367,2.060546875
,4.008904,2.0556640625
,4.0287479,2.021484375
,4.0291101,2.0166015625
,4.0688685,1.9873046875
,4.0973544,1.9677734375
,4.0977004,1.9287109375
,4.1138812,1.9091796875
,4.1607185,1.875
,4.1610363,1.8408203125
,4.172741,1.8017578125
,4.2062728,1.7724609375
,4.2376741,1.748046875
,4.2379585,1.7236328125
,4.2525015,1.708984375
,4.3007801,1.6845703125
,4.301109,1.66015625
,4.3209383,1.6357421875
,4.333402,1.6064453125
,4.3674349,1.5771484375
,4.3927587,1.5625
,4.3929576,1.533203125
,4.4257884,1.5234375
,4.4456892,1.513671875
,4.4517184,1.494140625
,4.4844971,1.474609375
,4.504105,1.455078125
,4.5141338,1.4453125
,4.5481134,1.4208984375
,4.5685134,1.40625
,4.5729964,1.3916015625
,4.6092445,1.40625
,4.6109581,1.4306640625
,4.647134,1.484375
,4.6668848,1.5234375
,4.6738155,1.5771484375
,4.7081059,1.62109375
,4.7327846,1.6748046875
,4.7329874,1.71875
,4.7664602,1.806640625
,4.7862128,1.884765625
,4.7936285,1.943359375
,4.8424671,2.001953125
,4.8427463,2.0458984375
,4.8718641,2.0849609375
,4.8737325,2.099609375
,4.9068091,2.1142578125
,4.9270067,2.0947265625
,4.9310216,2.099609375
,4.9649635,2.0849609375
,4.9848735,2.0751953125
,4.9945022,2.0458984375
,5.0417441,2.03125
,5.0419453,2.001953125
,5.053738,1.97265625
,5.0858152,1.9482421875
,5.1079921,1.9091796875
,5.1167812,1.826171875
,5.1335625,1.7578125
,5.1683716,1.767578125
,5.1723326,1.7529296875
,5.2061715,1.73828125
,5.2290256,1.7138671875
,5.2348951,1.689453125
,5.2691357,1.6650390625
,5.2910851,1.6552734375
,5.2913739,1.6357421875
,5.3293306,1.630859375
,5.3336054,1.6064453125
,5.3838326,1.6015625
,5.3841895,1.5771484375
,5.3956933,1.5673828125
,5.4451882,1.552734375
,5.4455515,1.5283203125
,5.4577461,1.50390625
,5.4727937,1.474609375
,5.5226709,1.4697265625
,5.5230216,1.4599609375
,5.5331102,1.455078125
,5.5687722,1.4453125
,5.5891816,1.4501953125
,5.5967406,1.4697265625
,5.6322447,1.5087890625
,5.6324836,1.552734375
,5.6695577,1.6162109375
,5.6745869,1.6650390625
,5.7234063,1.728515625
,5.7237481,1.7919921875
,5.7349676,1.8408203125
,5.7711125,1.904296875
,5.7762952,1.9580078125
,5.7963279,2.03125
,5.8133177,2.0703125
,5.847302,2.1240234375
,5.8676007,2.138671875
,5.8748874,2.1484375
,5.9102647,2.1337890625
,5.9154932,2.12890625
,5.9516777,2.099609375
,5.9563289,2.080078125
,5.9778602,2.0458984375
,5.9982491,1.9677734375
,6.014075999999999,1.8994140625
,6.0490429,1.923828125
,6.0542654,1.9140625
,6.0900544,1.89453125
,6.1123461,1.8701171875
,6.117012600000001,1.8359375
,6.159758999999999,1.796875
,6.160010700000001,1.7626953125
,6.1793058,1.728515625
,6.1952465,1.6943359375
,6.235891199999999,1.669921875
,6.2361459,1.6455078125
,6.254335599999999,1.62109375
,6.2894524999999994,1.591796875
,6.3095131,1.5869140625
,6.316814300000001,1.5625
,6.3534424000000005,1.5380859375
,6.356734599999999,1.5185546875
,6.3755272000000005,1.484375
,6.422151599999999,1.484375
,6.422507100000001,1.4599609375
,6.435461999999999,1.4599609375
,6.471957400000001,1.4306640625
,6.4761547,1.4208984375
,6.5157831,1.3916015625
,6.5161348,1.38671875
,6.5365442,1.3720703125
,6.553963400000001,1.40625
,6.5905205,1.4404296875
,6.595326099999999,1.50390625
,6.640593600000001,1.5478515625
,6.6408477,1.6064453125
,6.6564514,1.650390625
,6.7025702,1.708984375
,6.7028985,1.767578125
,6.714858700000001,1.8212890625
,6.749087599999999,1.8896484375
,6.756205899999999,1.9482421875
,6.792699799999999,2.0068359375
,6.7953118,2.0556640625
,6.8329869,2.0947265625
,6.8382694,2.109375
,6.858048200000001,2.1142578125
,6.9058747,2.109375
,6.9062123,2.1044921875
,6.9152349,2.0849609375
,6.954928799999999,2.0849609375
,6.9552722,2.0654296875
,6.9889247,2.041015625
,7.009985,2.0166015625
,7.0172761999999995,1.97265625
,7.054068600000001,1.9384765625
,7.0594859,1.89453125
,7.078338799999999,1.865234375
,7.0970797999999995,1.8212890625
,7.1147957,1.8017578125
,7.157833200000001,1.767578125
,7.158126899999999,1.7431640625
,7.1771403,1.7138671875
,7.2148693999999995,1.689453125
,7.2194050999999995,1.6552734375
,7.237951000000001,1.630859375
,7.2562608,1.591796875
,7.299212000000001,1.58203125
,7.299458899999999,1.5625
,7.3155737,1.5673828125
,7.361419400000001,1.5625
,7.3616802,1.5478515625
,7.3785749,1.5283203125
,7.3973735000000005,1.50390625
,7.4391248999999995,1.484375
,7.43938,1.46484375
,7.4544607,1.46484375
,7.4924976,1.4501953125
,7.4979277,1.4501953125
,7.5172039999999996,1.4599609375
,7.564599100000001,1.4990234375
,7.5649613,1.533203125
,7.577728199999999,1.5966796875
,7.5961652,1.6455078125
,7.6155898,1.7138671875
,7.6555357,1.7822265625
,7.656151700000001,1.8359375
,7.703184,1.89453125
,7.703425599999999,1.943359375
,7.717136399999999,2.01171875
,7.765815,2.05078125
,7.766151300000001,2.099609375
,7.796365700000001,2.119140625
,7.801093399999999,2.138671875
,7.8169836,2.1240234375
,7.853131899999999,2.1435546875
,7.8581392,2.1337890625
,7.9049011,2.1240234375
,7.905181000000001,2.099609375
,7.9174948999999994,2.080078125
,7.9531495,2.041015625
,7.9593144,2.021484375
,7.9975149000000005,1.9873046875
,7.9979218,1.9482421875
,8.0448184,1.923828125
,8.0450741,1.89453125
,8.0573579,1.865234375
,8.0937897,1.826171875
,8.0974076,1.8017578125
,8.1192388,1.7724609375
,8.1533742,1.7333984375
,8.1739101,1.69921875
,8.1769759,1.6845703125
,8.2120565,1.6552734375
,8.2166876,1.6357421875
,8.2646523,1.6064453125
,8.2650091,1.58203125
,8.2800577,1.5673828125
,8.315913,1.5283203125
,8.3181959,1.50390625
,8.3362052,1.484375
,8.372067,1.4892578125
,8.3769806,1.474609375
,8.4130751,1.46484375
,8.4178259,1.4404296875
,8.4531434,1.4306640625
,8.4578014,1.416015625
,8.5004147,1.4404296875
,8.500739,1.46484375
,8.5291448,1.5234375
,8.535917,1.572265625
,8.5581626,1.630859375
,8.6083311,1.6748046875
,8.608656,1.748046875
,8.619841,1.806640625
,8.6568449,1.865234375
,8.657123,1.923828125
,8.7016178,1.9775390625
,8.7020087,2.03125
,8.7308103,2.0703125
,8.7367686,2.1142578125
,8.7704168,2.12890625
,8.793004,2.12890625
,8.799058,2.1142578125
,8.8342626,2.099609375
,8.8381428,2.0751953125
,8.8871615,2.0654296875
,8.887411,2.0361328125
,8.9166806,2.021484375
,8.9169452,2.001953125
,8.9518787,1.962890625
,8.9724596,1.9287109375
,8.9779601,1.8896484375
,9.0259772,1.85546875
,9.0262308,1.81640625
,9.0462955,1.7822265625
,9.0562282,1.73828125
,9.0920215,1.71875
,9.0969713,1.6943359375
,9.1335863,1.669921875
,9.1379379,1.640625
,9.1692747,1.611328125
,9.1907054,1.572265625
,9.2000114,1.54296875
,9.2162762,1.4990234375
,9.2376597,1.484375
,9.2824356,1.4697265625
,9.2826847,1.4404296875
,9.2989977,1.42578125
,9.3452233,1.396484375
,9.3455986,1.3818359375
,9.3605505,1.3671875
,9.4074901,1.3623046875
,9.4077465,1.357421875
,9.4212881,1.318359375
,9.4376834,1.298828125
,9.4842,1.3818359375
,9.4844456,1.4453125
,9.4976891,1.5283203125
,9.5486097,1.5869140625
,9.5488539,1.650390625
,9.5780293,1.7236328125
,9.5824613,1.7724609375
,9.6259286,1.8310546875
,9.6261949,1.8798828125
,9.6405221,1.9580078125
,9.6907205,2.01171875
,9.6909709,2.0556640625
,9.6994308,2.0751953125
,9.7365003,2.0849609375
,9.757281,2.080078125
,9.7603805,2.0703125
,9.7781763,2.0458984375
,9.8142224,2.041015625
,9.8200068,2.0166015625
,9.8392394,1.9921875
,9.8749719,1.9580078125
,9.8949467,1.9482421875
,9.899262,1.923828125
,9.9343456,1.884765625
,9.9549618,1.85546875
,9.9555029,1.81640625
,10.0035387,1.796875
,10.0037805,1.7626953125
,10.0329448,1.73828125
,10.0395963,1.7041015625
,10.0759274,1.669921875
,10.0820367,1.630859375
,10.1178612,1.5966796875
,10.1184121,1.5625
,10.1536076,1.5478515625
,10.1604594,1.5283203125
,10.1788411,1.5087890625
,10.2244701,1.4990234375
,10.2247179,1.474609375
,10.2542204,1.4599609375
,10.2605107,1.435546875
,10.3021773,1.4208984375
,10.3024308,1.4013671875
,10.323488,1.3427734375
,10.3382905,1.328125
,10.3807257,1.34765625
,10.380969,1.376953125
,10.424456,1.435546875
,10.4248188,1.484375
,10.4401675,1.54296875
,10.4866892,1.5869140625
,10.4869442,1.6357421875
,10.5079758,1.6845703125
,10.519522,1.7578125
,10.5667622,1.826171875
,10.5670137,1.875
,10.5816123,1.93359375
,10.6183342,1.97265625
,10.6250368,2.0166015625
,10.6424827,2.0263671875
,10.6892214,2.0263671875
,10.6896034,2.021484375
,10.701166,2.0263671875
,10.7196231,2.01171875
,10.7547218,1.9970703125
,10.7745983,1.982421875
,10.781953,1.9677734375
,10.8181346,1.9384765625
,10.8207928,1.9091796875
,10.8637422,1.884765625
,10.8640052,1.845703125
,10.8784293,1.826171875
,10.9125012,1.8017578125
,10.9337152,1.7919921875
,10.9400719,1.7626953125
,10.976047,1.7431640625
,10.9807669,1.7041015625
,11.0187092,1.689453125
,11.0190943,1.6552734375
,11.0666479,1.650390625
,11.0668966,1.62109375
,11.088772,1.611328125
,11.1010145,1.5869140625
,11.1473055,1.5673828125
,11.1476442,1.533203125
,11.1637348,1.5283203125
,11.18279,1.513671875
,11.2253017,1.484375
,11.2256229,1.4697265625
,11.245668,1.455078125
,11.2616257,1.4501953125
,11.3024895,1.4404296875
,11.3027401,1.4501953125
,11.3217457,1.4794921875
,11.3669998,1.5283203125
,11.3672738,1.5625
,11.3978293,1.611328125
,11.3981666,1.6552734375
,11.443578,1.7333984375
,11.4438385,1.796875
,11.4655649,1.8603515625
,11.4818403,1.923828125
,11.5172077,1.962890625
,11.5229574,2.0166015625
,11.5580809,2.0458984375
,11.5631185,2.0849609375
,11.5792217,2.080078125
,11.6153447,2.0947265625
,11.6485391,2.080078125
,11.6488288,2.0751953125
,11.6628645,2.0556640625
,11.6975664,2.0458984375
,11.7024292,2.0166015625
,11.7395596,1.9921875
,11.7399247,1.953125
,11.775325,1.93359375
,11.8045729,1.904296875
,11.8049928,1.884765625
,11.8209782,1.8505859375
,11.8560448,1.81640625
,11.8822255,1.7822265625
,11.882615,1.748046875
,11.9028872,1.71875
,11.9202536,1.689453125
,11.939673,1.6845703125
,11.9900513,1.6650390625
,11.9904009,1.650390625
,12.0015542,1.62109375
,12.0504622,1.5966796875
,12.0507061,1.572265625
,12.0622706,1.552734375
,12.0970331,1.5234375
,12.1170219,1.5087890625
,12.1239502,1.4892578125
,12.1418815,1.46484375
,12.1767896,1.4599609375
,12.1812682,1.4453125
,12.2164245,1.4453125
,12.2207351,1.4404296875
,12.2680137,1.4697265625
,12.2682569,1.4990234375
,12.283477,1.5576171875
,12.3002838,1.5869140625
,12.3355701,1.6552734375
,12.3407644,1.6943359375
,12.3772035,1.7529296875
,12.3821803,1.8017578125
,12.4185732,1.85546875
,12.4238593,1.8994140625
,12.4710138,1.962890625
,12.4713463,2.01171875
,12.4823854,2.0361328125
,12.5310991,2.060546875
,12.5314539,2.0654296875
,12.5410527,2.060546875
,12.5747971,2.0458984375
,12.5970652,2.03125
,12.6042194,2.0068359375
,12.6412909,1.9775390625
,12.6415328,1.943359375
,12.6765449,1.923828125
,12.7065106,1.89453125
,12.7068219,1.875
,12.7232211,1.8408203125
,12.7584078,1.806640625
,12.7652296,1.77734375
,12.7846395,1.73828125
,12.8036392,1.708984375
,12.8206955,1.669921875
,12.8551501,1.6650390625
,12.8753929,1.5771484375
,12.8825742,1.5771484375
,12.9232869,1.5625
,12.9237054,1.552734375
,12.9450572,1.5283203125
,12.982451,1.5234375
,12.985446,1.4990234375
,13.0048078,1.4892578125
,13.0220117,1.46484375
,13.0431338,1.46484375
,13.0783812,1.4453125
,13.0829009,1.4404296875
,13.1182332,1.4306640625
,13.1230257,1.416015625
,13.1577785,1.4013671875
,13.177418,1.4013671875
,13.1854591,1.42578125
,13.2037936,1.4599609375
,13.2466681,1.533203125
,13.246933,1.591796875
,13.2632079,1.650390625
,13.2983831,1.69921875
,13.3194341,1.7529296875
,13.3246001,1.8017578125
,13.36071,1.8603515625
,13.3887331,1.904296875
,13.3891309,1.9677734375
,13.4035881,2.021484375
,13.4494611,2.0361328125
,13.4496985,2.0556640625
,13.4652477,2.0654296875
,13.5110536,2.0849609375
,13.5113611,2.080078125
,13.5252846,2.080078125
,13.5425871,2.0556640625
,13.5630825,2.05078125
,13.5981625,2.0263671875
,13.6030623,2.01171875
,13.6386694,1.9775390625
,13.643739,1.9482421875
,13.6788545,1.9140625
,13.7023673,1.8798828125
,13.707035,1.8359375
,13.7264003,1.7724609375
,13.7468595,1.71875
,13.7631571,1.6650390625
,13.8074,1.689453125
,13.8076498,1.6845703125
,13.8257738,1.6796875
,13.8697378,1.66015625
,13.8699773,1.6455078125
,13.8864537,1.62109375
,13.9212941,1.6015625
,13.9215559,1.5771484375
,13.957069,1.5673828125
,13.9771137,1.5478515625
,13.983777,1.5478515625
,14.0188111,1.5234375
,14.0250932,1.513671875
,14.072594800000001,1.50390625
,14.0728333,1.4794921875
,14.0859572,1.46484375
,14.1044819,1.455078125
,14.1397252,1.494140625
,14.1443747,1.5283203125
,14.1806898,1.58203125
,14.1863785,1.630859375
,14.227737300000001,1.6845703125
,14.227977200000002,1.728515625
,14.275871200000001,1.7919921875
,14.276262,1.8359375
,14.281575199999999,1.9091796875
,14.3176998,1.9677734375
,14.338234100000001,2.0263671875
,14.3424948,2.0654296875
,14.378781799999999,2.1142578125
,14.397720799999998,2.138671875
,14.405016,2.12890625
,14.443563000000001,2.1240234375
,14.444093299999999,2.1044921875
,14.4809737,2.099609375
,14.481371,2.0849609375
,14.516235300000002,2.080078125
,14.5386241,2.0556640625
,14.5454729,2.0263671875
,14.5651769,1.9921875
,14.600439900000001,1.962890625
,14.620688300000001,1.9189453125
,14.6263167,1.8896484375
,14.642952900000001,1.8505859375
,14.6775561,1.8212890625
,14.6980756,1.806640625
,14.704647399999999,1.7724609375
,14.726230099999999,1.7431640625
,14.746989899999999,1.708984375
,14.7877844,1.6845703125
,14.788030599999999,1.6455078125
,14.822373599999999,1.62109375
,14.822762999999998,1.591796875
,14.864640099999999,1.5771484375
,14.8649086,1.5576171875
,14.884690500000001,1.5478515625
,14.905704700000001,1.5185546875
,14.943242699999999,1.4990234375
,14.946720800000001,1.474609375
,14.991035100000001,1.455078125
,14.991376899999999,1.4208984375
,15.011889,1.4404296875
,15.024476700000001,1.4306640625
,15.071447,1.4208984375
,15.071788399999999,1.435546875
,15.1004677,1.4599609375
,15.1059081,1.5087890625
,15.1429608,1.5576171875
,15.145373800000002,1.611328125
,15.162326,1.66015625
,15.2114258,1.728515625
,15.211886400000001,1.7919921875
,15.232700099999999,1.85546875
,15.245219800000001,1.9091796875
,15.280734800000001,1.97265625
,15.300572800000001,2.0263671875
,15.3082958,2.0703125
,15.352094099999999,2.1142578125
,15.352352799999998,2.119140625
,15.365475400000001,2.138671875
,15.4027259,2.1240234375
,15.403120600000001,2.1240234375
,15.4474275,2.099609375
,15.447662000000001,2.080078125
,15.479247099999998,2.0458984375
,15.4886384,2.0263671875
,15.523776900000001,1.9873046875
,15.528361199999999,1.97265625
,15.544260699999999,1.93359375
,15.5863965,1.9140625
,15.586634700000001,1.884765625
,15.6223754,1.8603515625
,15.6251179,1.81640625
,15.660556,1.7919921875
,15.680762699999999,1.7578125
,15.6872258,1.7138671875
,15.729070199999999,1.6796875
,15.729458600000001,1.6455078125
,15.7451993,1.6259765625
,15.790935900000001,1.6064453125
,15.791326999999999,1.5869140625
,15.8202924,1.5625
,15.825677299999999,1.533203125
,15.8678339,1.5087890625
,15.868241900000001,1.4892578125
,15.888539600000001,1.4599609375
,15.904830400000002,1.455078125
,15.940255400000002,1.435546875
,15.9622612,1.4208984375
,15.966930699999999,1.416015625
,16.0075753,1.396484375
,16.0078273,1.3916015625
,16.0426856,1.4013671875
,16.0626667,1.4501953125
,16.0651132,1.494140625
,16.1006608,1.5673828125
,16.1066179,1.6259765625
,16.1423757,1.6943359375
,16.1469516,1.7431640625
,16.1670949,1.8115234375
,16.2079309,1.8701171875
,16.2081711,1.93359375
,16.2252011,1.982421875
,16.2457422,2.0458984375
,16.2802154,2.0849609375
,16.2860935,2.1337890625
,16.3334883,2.1484375
,16.333804,2.1337890625
,16.3474121,2.1240234375
,16.3953279,2.109375
,16.3956465,2.0849609375
,16.4089621,2.05078125
,16.4572595,2.0263671875
,16.4576489,1.9873046875
,16.4660786,1.962890625
,16.5035919,1.93359375
,16.5079895,1.8994140625
,16.5492721,1.8603515625
,16.5495099,1.8408203125
,16.5688596,1.8017578125
,16.6036827,1.767578125
,16.6101018,1.7431640625
,16.6247588,1.69921875
,16.6584275,1.6796875
,16.6784409,1.650390625
,16.6859206,1.6259765625
,16.7220622,1.5966796875
,16.7533116,1.572265625
,16.7535528,1.54296875
,16.768614,1.5185546875
,16.787462,1.4892578125
,16.8211389,1.484375
,16.8265118,1.46484375
,16.862397,1.4501953125
,16.8843035,1.435546875
,16.8896969,1.416015625
,16.9261081,1.3916015625
,16.9265062,1.38671875
,16.9723587,1.3720703125
,16.9726662,1.3525390625
,16.9934484,1.3818359375
,17.0062689,1.42578125
,17.0510662,1.484375
,17.0513046,1.5478515625
,17.0716437,1.62109375
,17.0892772,1.6748046875
,17.1301141,1.73828125
,17.1306766,1.796875
,17.1497266,1.8212890625
,17.1674729,1.8408203125
,17.2058852,1.943359375
,17.2063533,2.01171875
,17.2530995,2.0703125
,17.2536157,2.109375
,17.2829131,2.119140625
,17.2890262,2.1142578125
,17.3236843,2.1044921875
,17.34532,2.099609375
,17.3456651,2.0703125
,17.3820855,2.0556640625
,17.3878938,2.03125
,17.409578,2.01171875
,17.4440228,1.97265625
,17.4486566,1.943359375
,17.483263,1.904296875
,17.5031593,1.8701171875
,17.504981,1.826171875
,17.5412446,1.806640625
,17.5617395,1.767578125
,17.566441,1.767578125
,17.6107628,1.748046875
,17.6110805,1.71875
,17.6405506,1.6943359375
,17.6487138,1.669921875
,17.6862994,1.6357421875
,17.6867767,1.6064453125
,17.7230864,1.5869140625
,17.7277386,1.5673828125
,17.7630856,1.5478515625
,17.7841477,1.5234375
,17.7892942,1.4990234375
,17.8231308,1.484375
,17.8442812,1.4697265625
,17.844523,1.4453125
,17.8792186,1.435546875
,17.9010675,1.4404296875
,17.9067554,1.4111328125
,17.9528781,1.40625
,17.9531393,1.3916015625
,17.968862,1.4111328125
,18.004557,1.4306640625
,18.0099491,1.4892578125
,18.0288869,1.5380859375
,18.0646433,1.552734375
,18.0936383,1.630859375
,18.0940327,1.7236328125
,18.1096533,1.796875
,18.1544539,1.884765625
,18.1548434,1.953125
,18.170783,2.021484375
,18.2061697,2.0751953125
,18.2098114,2.1337890625
,18.2468233,2.1728515625
,18.2471438,2.1875
,18.2682813,2.20703125
,18.2891995,2.2021484375
,18.3242901,2.1875
,18.3298421,2.1630859375
,18.366026,2.1484375
,18.369369,2.1142578125
,18.4059979,2.080078125
,18.406398,2.0361328125
,18.4427532,2.0068359375
,18.4654473,1.97265625
,18.4699356,1.9384765625
,18.5055939,1.8896484375
,18.5084205,1.8505859375
,18.5449417,1.8212890625
,18.5760837,1.7724609375
,18.5763975,1.7333984375
,18.5877376,1.6943359375
,18.6228672,1.6845703125
,18.628023,1.66015625
,18.6692571,1.6357421875
,18.6694959,1.6064453125
,18.7020959,1.58203125
,18.7104025,1.552734375
,18.7468901,1.533203125
,18.7472996,1.4990234375
,18.7684511,1.4892578125
,18.7891299,1.474609375
,18.8100074,1.4599609375
,18.8310939,1.435546875
,18.8504864,1.42578125
,18.8890013,1.416015625
,18.91858,1.3916015625
,18.9188294,1.376953125
,18.9306275,1.357421875
,18.9673485,1.3427734375
,18.9677982,1.337890625
,19.0038456,1.3818359375
,19.0092013,1.4404296875
,19.0302755,1.5185546875
,19.0652654,1.58203125
,19.0856232,1.66015625
,19.0914671,1.71875
,19.1133109,1.8017578125
,19.1278378,1.865234375
,19.1640278,1.953125
,19.1711756,2.041015625
,19.1893297,2.099609375
,19.2267194,2.1630859375
,19.2288587,2.1923828125
,19.2653162,2.216796875
,19.2858628,2.2119140625
,19.2927275,2.197265625
,19.3064783,2.16796875
,19.3416945,2.158203125
,19.3618292,2.1337890625
,19.3677008,2.1142578125
,19.4028173,2.0654296875
,19.4242073,2.03125
,19.4297807,1.9873046875
,19.4670255,1.9482421875
,19.4919347,1.89453125
,19.4923234,1.875
,19.5107194,1.8408203125
,19.5531682,1.8017578125
,19.5534862,1.7626953125
,19.5714743,1.7236328125
,19.6144742,1.6845703125
,19.6150336,1.66015625
,19.6309903,1.6357421875
,19.6480465,1.6064453125
,19.6828053,1.591796875
,19.7035977,1.572265625
,19.7082311,1.552734375
,19.744984,1.5283203125
,19.7692752,1.5087890625
,19.769547,1.474609375
,19.805007,1.4501953125
,19.8252292,1.4306640625
,19.8314118,1.396484375
,19.8677808,1.376953125
,19.8874382,1.357421875
,19.889702,1.3623046875
,19.9247138,1.34765625
,19.9448256,1.3427734375
,19.9514833,1.328125
,19.9879104,1.337890625
,19.9912024,1.3525390625
,20.0276581,1.40625
,20.0487502,1.46484375
,20.0490702,1.552734375
,20.0856104,1.6162109375
,20.0906455,1.69921875
,20.1288761,1.7529296875
,20.1292499,1.845703125
,20.1761204,1.9140625
,20.1763626,1.9775390625
,20.1959155,2.041015625
,20.2099494,2.0947265625
,20.229706,2.1484375
,20.2703365,2.1728515625
,20.2705801,2.1826171875
,20.3022085,2.1728515625
,20.3116817,2.1533203125
,20.3313905,2.12890625
,20.3664815,2.1044921875
,20.38696,2.0703125
,20.3897863,2.0556640625
,20.4094364,2.021484375
,20.4444814,1.9873046875
,20.4737516,1.9580078125
,20.4739881,1.9140625
,20.4928807,1.875
,20.5381724,1.8310546875
,20.5384882,1.796875
,20.549087,1.748046875
,20.5981994,1.7236328125
,20.5984505,1.640625
,20.612037,1.6357421875
,20.6471458,1.6162109375
,20.6520079,1.6162109375
,20.6723388,1.58203125
,20.7221185,1.5625
,20.7223625,1.5380859375
,20.7326681,1.5185546875
,20.7492105,1.484375
,20.7837785,1.484375
,20.8047593,1.474609375
,20.8126171,1.455078125
,20.8483523,1.4404296875
,20.8514634,1.416015625
,20.8731733,1.3916015625
,20.9093199,1.3720703125
,20.9134538,1.3623046875
,20.9299349,1.3427734375
,20.964493,1.3623046875
,20.9844281,1.396484375
,20.9931508,1.4599609375
,21.0140466,1.5185546875
,21.0322935,1.6015625
,21.0680842,1.66015625
,21.0968885,1.7333984375
,21.0971443,1.81640625
,21.109759,1.8798828125
,21.1456272,1.962890625
,21.174289,2.0458984375
,21.174527,2.12890625
,21.1929876,2.1875
,21.2360012,2.2412109375
,21.2362515,2.265625
,21.2522063,2.2705078125
,21.2864731,2.255859375
,21.2896992,2.2509765625
,21.3283026,2.2314453125
,21.3586424,2.2119140625
,21.3588896,2.1826171875
,21.3736105,2.1435546875
,21.4091471,2.0947265625
,21.4147083,2.060546875
,21.4349371,2.0166015625
,21.4546413,1.962890625
,21.4755399,1.8798828125
,21.4906079,1.8017578125
,21.5307121,1.8017578125
,21.5615715,1.7822265625
,21.5618468,1.7626953125
,21.5733592,1.7333984375
,21.6209769,1.7041015625
,21.6212773,1.6748046875
,21.6358583,1.6455078125
,21.6520382,1.6064453125
,21.6867129,1.611328125
,21.6911505,1.5966796875
,21.7292396,1.58203125
,21.7505683,1.572265625
,21.7535724,1.5478515625
,21.7740303,1.5234375
,21.8107668,1.494140625
,21.8152372,1.484375
,21.8315333,1.4501953125
,21.8675123,1.4453125
,21.8727305,1.4306640625
,21.9087879,1.4208984375
,21.9119025,1.4013671875
,21.95979,1.4208984375
,21.9600289,1.4501953125
,21.9807941,1.513671875
,21.9908468,1.5673828125
,22.0383166,1.6552734375
,22.038704,1.7236328125
,22.0692834,1.81640625
,22.0739336,1.89453125
,22.1143356,1.962890625
,22.1145854,2.041015625
,22.1501787,2.109375
,22.1558128,2.177734375
,22.1704902,2.2314453125
,22.2079645,2.2900390625
,22.2300323,2.3193359375
,22.2304264,2.3193359375
,22.2690362,2.3046875
,22.2735513,2.28515625
,22.3154079,2.2509765625
,22.3156461,2.2216796875
,22.3649308,2.177734375
,22.3658087,2.1337890625
,22.3748309,2.099609375
,22.3932587,2.041015625
,22.4279712,2.0068359375
,22.4487695,1.9677734375
,22.4547932,1.9384765625
,22.4921663,1.8896484375
,22.4925198,1.85546875
,22.5274463,1.8017578125
,22.5485645,1.7724609375
,22.5512086,1.7236328125
,22.5857794,1.69921875
,22.6073418,1.669921875
,22.6153546,1.650390625
,22.6348503,1.6162109375
,22.6729523,1.5869140625
,22.6732016,1.5478515625
,22.7104705,1.5380859375
,22.7379076,1.5185546875
,22.7381575,1.4892578125
,22.7528316,1.4892578125
,22.8005353,1.4697265625
,22.8009247,1.455078125
,22.8147982,1.435546875
,22.8622193,1.4111328125
,22.8626691,1.3916015625
,22.8754691,1.376953125
,22.8921563,1.3623046875
,22.9283088,1.38671875
,22.9325302,1.4306640625
,22.9697826,1.4990234375
,22.9730729,1.5673828125
,23.0095265,1.640625
,23.0144653,1.71875
,23.0495076,1.7822265625
,23.0801928,1.8505859375
,23.0805868,1.9140625
,23.0941319,1.9970703125
,23.1126826,2.0654296875
,23.1486335,2.12890625
,23.1692004,2.16796875
,23.1742082,2.2021484375
,23.2197583,2.2021484375
,23.2200893,2.2021484375
,23.2400553,2.1826171875
,23.2579056,2.16796875
,23.2734205,2.138671875
,23.311538,2.119140625
,23.31203,2.08984375
,23.3484619,2.060546875
,23.3687603,2.0263671875
,23.376779,1.9873046875
,23.3959845,1.9482421875
,23.4303319,1.8994140625
,23.4512046,1.865234375
,23.4514662,1.826171875
,23.4888958,1.806640625
,23.5089999,1.7724609375
,23.5151989,1.73828125
,23.5525346,1.7041015625
,23.5571231,1.6748046875
,23.5768894,1.6357421875
,23.5968892,1.611328125
,23.6127395,1.5771484375
,23.6478693,1.5625
,23.6692629,1.5478515625
,23.6740867,1.5234375
,23.7172535,1.4990234375
,23.71765,1.484375
,23.7370885,1.4794921875
,23.7724106,1.4599609375
,23.774954,1.4453125
,23.7946144,1.4208984375
,23.8404209,1.42578125
,23.8406612,1.4306640625
,23.8536035,1.4697265625
,23.8889342,1.5087890625
,23.9107491,1.5771484375
,23.9163386,1.6357421875
,23.9528931,1.69921875
,23.9532985,1.7578125
,23.9882094,1.8505859375
,24.0098928,1.9287109375
,24.0134266,1.9384765625
,24.0571021,2.03125
,24.0573407,2.099609375
,24.0776392,2.1630859375
,24.1132939,2.2021484375
,24.1161355,2.2216796875
,24.1524541,2.2216796875
,24.1568202,2.20703125
,24.1730066,2.1826171875
,24.2081048,2.1728515625
,24.2287708,2.1484375
,24.2343626,2.12890625
,24.2765088,2.099609375
,24.3062483,2.0703125
,24.3064946,2.041015625
,24.3167104,1.9921875
,24.353858,1.953125
,24.3541526,1.904296875
,24.3760921,1.884765625
,24.3965029,1.8505859375
,24.4313236,1.8212890625
,24.438071,1.7822265625
,24.4572138,1.7529296875
,24.4776671,1.7138671875
,24.5137422,1.689453125
,24.5141642,1.650390625
,24.5492641,1.630859375
,24.5549608,1.6064453125
,24.5765539,1.5869140625
,24.6125941,1.552734375
,24.6152807,1.54296875
,24.6520869,1.5185546875
,24.6567192,1.4892578125
,24.6957067,1.4697265625
,24.6960932,1.4453125
,24.7374482,1.435546875
,24.7378065,1.4306640625
,24.7574083,1.4306640625
,24.7775899,1.435546875
,24.8263003,1.4599609375
,24.8266152,1.5087890625
,24.8375621,1.5673828125
,24.8581179,1.62109375
,24.879181,1.6455078125
,24.8944387,1.6748046875
,24.9342865,1.7822265625
,24.9345762,1.8798828125
,24.9570567,1.9482421875
,24.992422,2.0263671875
,24.9975723,2.0947265625
,25.0330888,2.158203125
,25.0593439,2.197265625
,25.0597319,2.2314453125
,25.0761584,2.2314453125
,25.1108408,2.236328125
,25.1154557,2.2119140625
,25.1504793,2.197265625
,25.1709278,2.177734375
,25.1782828,2.1484375
,25.2282245,2.109375
,25.2284751,2.0703125
,25.2344979,2.0263671875
,25.2751107,2.0068359375
,25.2755055,1.97265625
,25.3104916,1.9287109375
,25.3155017,1.8994140625
,25.3534629,1.85546875
,25.3579943,1.81640625
,25.3988055,1.77734375
,25.399382,1.73828125
,25.4152314,1.69921875
,25.4502484,1.6748046875
,25.4784187,1.640625
,25.478832,1.6162109375
,25.4982994,1.58203125
,25.5166086,1.5625
,25.5530104,1.533203125
,25.5743395,1.5087890625
,25.5793054,1.4892578125
,25.5955014,1.4599609375
,25.6327205,1.4453125
,25.6374669,1.42578125
,25.6566584,1.40625
,25.6948068,1.38671875
,25.7145394,1.3720703125
,25.7192997,1.357421875
,25.7567811,1.3671875
,25.7570262,1.396484375
,25.8001591,1.4306640625
,25.8005218,1.5087890625
,25.8219364,1.611328125
,25.8358923,1.6845703125
,25.8703177,1.7626953125
,25.8906754,1.826171875
,25.8985179,1.904296875
,25.9350986,1.97265625
,25.9401585,2.03125
,25.9750595,2.08984375
,25.9753375,2.12890625
,26.011255,2.1728515625
,26.0327729,2.1875
,26.0381795,2.1826171875
,26.0753193,2.1630859375
,26.0799644,2.1435546875
,26.130562,2.1142578125
,26.130954,2.080078125
,26.1355202,2.041015625
,26.1724065,2.021484375
,26.1775128,1.9873046875
,26.1972859,1.9482421875
,26.2327689,1.9140625
,26.2517744,1.8701171875
,26.2589861,1.826171875
,26.295133,1.7822265625
,26.3200305,1.7529296875
,26.3204609,1.708984375
,26.3365503,1.689453125
,26.3824236,1.6552734375
,26.3828087,1.6357421875
,26.4123413,1.5966796875
,26.4169419,1.572265625
,26.4584075,1.533203125
,26.4586466,1.5087890625
,26.4797718,1.474609375
,26.4959244,1.46484375
,26.5318025,1.4404296875
,26.5622428,1.4306640625
,26.5624873,1.416015625
,26.5796709,1.396484375
,26.5984963,1.376953125
,26.6380842,1.3525390625
,26.6383324,1.337890625
,26.6731561,1.3232421875
,26.6940394,1.3330078125
,26.6968935,1.3671875
,26.7464987,1.4306640625
,26.7467833,1.4990234375
,26.7586287,1.5673828125
,26.793446,1.6357421875
,26.8127578,1.708984375
,26.818668,1.7724609375
,26.8535054,1.8408203125
,26.8743903,1.9140625
,26.8772414,1.962890625
,26.9189154,2.03125
,26.9191638,2.0751953125
,26.9559294,2.109375
,26.9582173,2.119140625
,26.9951071,2.109375
,26.9998344,2.08984375
,27.0357176,2.0751953125
,27.0361054,2.05078125
,27.0752521,2.041015625
,27.0954703,2.0166015625
,27.0999402,1.9921875
,27.1379251,1.9482421875
,27.1402301,1.9189453125
,27.1749676,1.8701171875
,27.180039,1.845703125
,27.230412,1.8017578125
,27.2306669,1.7578125
,27.2382601,1.7333984375
,27.2580876,1.7041015625
,27.2926748,1.6748046875
,27.3129138,1.650390625
,27.3214289,1.6259765625
,27.3567159,1.5966796875
,27.3614051,1.572265625
,27.3786003,1.5380859375
,27.4144237,1.5283203125
,27.4216746,1.50390625
,27.4395614,1.494140625
,27.4755337,1.46484375
,27.4784321,1.4501953125
,27.5194483,1.435546875
,27.5196838,1.40625
,27.541415,1.3916015625
,27.581188,1.3720703125
,27.5814411,1.3671875
,27.5971248,1.34765625
,27.6343926,1.3525390625
,27.639141,1.38671875
,27.6765145,1.4453125
,27.6974296,1.494140625
,27.7012853,1.5625
,27.7391837,1.611328125
,27.742592,1.6796875
,27.7577587,1.7333984375
,27.8014588,1.8115234375
,27.8016949,1.875
,27.8208571,1.9677734375
,27.8401737,2.0458984375
,27.8750617,2.0947265625
,27.8803233,2.1435546875
,27.9166273,2.158203125
,27.9216173,2.158203125
,27.9379154,2.1484375
,27.9894391,2.1435546875
,27.9898276,2.1240234375
,28.0004606,2.109375
,28.0512382,2.080078125
,28.0516266,2.0556640625
,28.0604243,2.0166015625
,28.1120307,1.9873046875
,28.112349,1.9482421875
,28.1191866,1.923828125
,28.1588515,1.8994140625
,28.1592418,1.865234375
,28.2048012,1.8310546875
,28.205124,1.796875
,28.2223185,1.767578125
,28.2417177,1.728515625
,28.2785008,1.6943359375
,28.2790609,1.6552734375
,28.3294554,1.640625
,28.3297391,1.5576171875
,28.3409357,1.5625
,28.376613,1.552734375
,28.3784026,1.5478515625
,28.4146497,1.5234375
,28.4361025,1.5087890625
,28.4421742,1.474609375
,28.4855283,1.46484375
,28.4857644,1.4453125
,28.4993905,1.42578125
,28.5347223,1.4208984375
,28.5425222,1.4111328125
,28.5611972,1.40625
,28.5984342,1.416015625
,28.6002027,1.455078125
,28.6347936,1.50390625
,28.6549624,1.5625
,28.6603102,1.611328125
,28.6793958,1.6845703125
,28.7183055,1.7529296875
,28.7185931,1.8212890625
,28.7534199,1.875
,28.7735706,1.93359375
,28.7822247,2.001953125
,28.8165766,2.05078125
,28.8370662,2.099609375
,28.8402116,2.1337890625
,28.8597343,2.1875
,28.9066615,2.1875
,28.9069357,2.1875
,28.9215556,2.1728515625
,28.9685339,2.158203125
,28.9689263,2.1240234375
,28.9826697,2.0947265625
,28.9990282,2.05078125
,29.0205231,2.03125
,29.0607527,1.9970703125
,29.0610617,1.9677734375
,29.1083296,1.923828125
,29.1087182,1.89453125
,29.1218586,1.8603515625
,29.1557792,1.8212890625
,29.1764593,1.7822265625
,29.1840418,1.7431640625
,29.2335461,1.6650390625
,29.2339487,1.640625
,29.2401235,1.6357421875
,29.2755816,1.6162109375
,29.2970238,1.5966796875
,29.3022315,1.5771484375
,29.3382654,1.552734375
,29.3440991,1.5283203125
,29.3632244,1.5185546875
,29.379313,1.494140625
,29.4143902,1.484375
,29.4363791,1.484375
,29.4429618,1.4599609375
,29.4617975,1.4453125
,29.5132038,1.4208984375
,29.5136183,1.416015625
,29.5244888,1.4013671875
,29.5598144,1.435546875
,29.5601056,1.4697265625
,29.5949998,1.5380859375
,29.6156731,1.591796875
,29.6219879,1.6650390625
,29.6578599,1.7236328125
,29.6631536,1.7919921875
,29.6979243,1.8505859375
,29.7036606,1.923828125
,29.7198479,1.9775390625
,29.7565986,2.0556640625
,29.7591302,2.119140625
,29.7932941,2.1484375
,29.8135806,2.1728515625
,29.8236003,2.1630859375
,29.8586029,2.1484375
,29.8637813,2.138671875
,29.883725,2.1337890625
,29.9004187,2.1142578125
,29.9363491,2.109375
,29.9421056,2.0751953125
,29.9810244,2.041015625
,29.9812626,2.0068359375
,30.028832700000002,1.97265625
,30.029211500000002,1.9287109375
,30.043152399999997,1.8896484375
,30.078508999999997,1.85546875
,30.0995938,1.806640625
,30.1046408,1.767578125
,30.121853799999997,1.728515625
,30.169300900000003,1.7138671875
,30.1696929,1.6845703125
,30.184218899999998,1.66015625
,30.230339899999997,1.62109375
,30.2305912,1.5966796875
,30.2451419,1.5625
,30.265051900000003,1.54296875
,30.2801968,1.50390625
,30.324272399999998,1.4990234375
,30.3245187,1.4794921875
,30.3449112,1.4599609375
,30.3621903,1.4306640625
,30.400615799999997,1.42578125
,30.4050833,1.416015625
,30.4256951,1.3916015625
,30.445362000000003,1.376953125
,30.461812199999997,1.3671875
,30.511951699999997,1.4013671875
,30.512342599999997,1.4453125
,30.5227481,1.513671875
,30.559114100000002,1.5673828125
,30.5638547,1.6357421875
,30.5992447,1.689453125
,30.605064900000002,1.7578125
,30.6220797,1.8212890625
,30.6660015,1.9140625
,30.666249899999997,1.982421875
,30.682692199999998,2.05078125
,30.716951,2.1142578125
,30.737247500000002,2.1435546875
,30.742710099999996,2.1630859375
,30.7778944,2.1533203125
,30.7977833,2.1484375
,30.801156400000004,2.1142578125
,30.8219802,2.1044921875
,30.870178099999997,2.080078125
,30.870415100000002,2.0556640625
,30.882556100000002,2.0166015625
,30.9191491,1.9921875
,30.925358699999997,1.953125
,30.9457394,1.9140625
,30.964858,1.875
,31.002423899999997,1.8310546875
,31.0028096,1.7822265625
,31.0382288,1.767578125
,31.043281899999997,1.7431640625
,31.0786667,1.7041015625
,31.084431600000002,1.669921875
,31.1196634,1.6357421875
,31.124003000000002,1.6015625
,31.160501699999998,1.5673828125
,31.165361500000003,1.54296875
,31.182496800000003,1.5087890625
,31.225040999999997,1.494140625
,31.225370599999998,1.474609375
,31.255895000000002,1.4501953125
,31.2652079,1.4208984375
,31.286063300000002,1.40625
,31.304147299999997,1.3818359375
,31.350000199999997,1.3623046875
,31.350312600000002,1.34765625
,31.3817319,1.328125
,31.3821248,1.328125
,31.4189747,1.3427734375
,31.424106199999997,1.4013671875
,31.4438081,1.4501953125
,31.490790500000003,1.5185546875
,31.491547500000003,1.572265625
,31.5052903,1.650390625
,31.522495399999997,1.69921875
,31.567431999999997,1.8017578125
,31.567821799999997,1.865234375
,31.587712500000002,1.9482421875
,31.602153800000004,2.01171875
,31.636680300000002,2.0751953125
,31.658494599999997,2.1044921875
,31.6662987,2.1435546875
,31.7085613,2.1484375
,31.708955600000003,2.1240234375
,31.726032699999998,2.119140625
,31.742808099999998,2.0458984375
,31.7848689,2.041015625
,31.785164899999998,2.0166015625
,31.805950799999998,1.9970703125
,31.824460799999997,1.9580078125
,31.863575599999997,1.923828125
,31.867035199999997,1.8798828125
,31.9106898,1.8359375
,31.910923699999998,1.787109375
,31.922196999999997,1.787109375
,31.9571275,1.7578125
,31.9774672,1.7236328125
,31.984822899999998,1.708984375
,32.0194889,1.66015625
,32.0395748,1.630859375
,32.0467527,1.591796875
,32.0850894,1.5576171875
,32.0854803,1.5234375
,32.1036592,1.50390625
,32.1429192,1.4794921875
,32.143169,1.4599609375
,32.1907764,1.42578125
,32.1911176,1.4111328125
,32.2221335,1.38671875
,32.2276869,1.3623046875
,32.2424691,1.3330078125
,32.2845345,1.3232421875
,32.2847796,1.298828125
,32.3194132,1.3037109375
,32.3262153,1.298828125
,32.3463478,1.3134765625
,32.3822951,1.3525390625
,32.3866993,1.40625
,32.4368287,1.4697265625
,32.4370742,1.5283203125
,32.4430489,1.6259765625
,32.4776855,1.689453125
,32.4994142,1.7724609375
,32.5064886,1.845703125
,32.5423306,1.9140625
,32.5455425,1.97265625
,32.5930767,2.041015625
,32.593396,2.080078125
,32.6081359,2.0654296875
,32.6279178,2.0458984375
,32.643825,2.0068359375
,32.6810831,2.03125
,32.6861283,2.03125
,32.7325582,2.0263671875
,32.732809,2.001953125
,32.7470135,1.9775390625
,32.7812431,1.9384765625
,32.8018043,1.8994140625
,32.8049983,1.8505859375
,32.8411826,1.826171875
,32.8439364,1.787109375
,32.888616,1.748046875
,32.8888618,1.708984375
,32.9108186,1.6748046875
,32.9273959,1.630859375
,32.9474122,1.611328125
,32.9823207,1.5869140625
,33.0019127,1.552734375
,33.0051785,1.5380859375
,33.0249095,1.50390625
,33.0604986,1.4892578125
,33.066523,1.46484375
,33.1016522,1.4453125
,33.1217787,1.416015625
,33.1264859,1.4013671875
,33.1607704,1.3671875
,33.1637994,1.357421875
,33.1997798,1.337890625
,33.2051036,1.3330078125
,33.2518146,1.30859375
,33.2521517,1.2939453125
,33.2673127,1.298828125
,33.2874456,1.3037109375
,33.3234021,1.3525390625
,33.3236445,1.396484375
,33.3606862,1.4794921875
,33.363821,1.54296875
,33.3994621,1.6162109375
,33.4197533,1.6796875
,33.4270298,1.7529296875
,33.4622109,1.806640625
,33.4675676,1.884765625
,33.4885817,1.9287109375
,33.5295749,1.943359375
,33.5301479,1.9873046875
,33.5450698,2.03125
,33.5795451,2.0361328125
,33.5997588,2.041015625
,33.6054246,2.03125
,33.6542899,2.001953125
,33.6547966,1.9775390625
,33.6828214,1.943359375
,33.6890598,1.8994140625
,33.7047738,1.8603515625
,33.7463608,1.8408203125
,33.7466748,1.806640625
,33.7783728,1.767578125
,33.7872174,1.728515625
,33.822373,1.689453125
,33.8431269,1.650390625
,33.8480825,1.6259765625
,33.8657813,1.5869140625
,33.9019289,1.5673828125
,33.906616,1.5576171875
,33.926605,1.5234375
,33.9598666,1.50390625
,33.9802914,1.474609375
,33.988151,1.474609375
,34.0223401,1.4501953125
,34.0427196,1.4404296875
,34.0473153,1.4111328125
,34.0664471,1.4111328125
,34.1168706,1.38671875
,34.1171134,1.38671875
,34.1275773,1.3623046875
,34.1620051,1.357421875
,34.1688455,1.337890625
,34.209847,1.337890625
,34.2101189,1.3330078125
,34.2243558,1.4013671875
,34.2616157,1.46484375
,34.266982,1.513671875
,34.2851453,1.58203125
,34.318529,1.6357421875
,34.3514652,1.6943359375
,34.3518582,1.7578125
,34.3677877,1.826171875
,34.4108769,1.884765625
,34.4111918,1.943359375
,34.4328655,1.9873046875
,34.4470153,2.041015625
,34.4676664,2.0654296875
,34.5037117,2.08984375
,34.508384,2.080078125
,34.55157,2.0654296875
,34.5522808,2.05078125
,34.5687212,2.021484375
,34.6044937,1.9873046875
,34.6048943,1.953125
,34.6385148,1.943359375
,34.6584738,1.9091796875
,34.6676994,1.8798828125
,34.7054679,1.8310546875
,34.7059357,1.796875
,34.753976,1.7529296875
,34.7543253,1.728515625
,34.7838655,1.6845703125
,34.7841531,1.669921875
,34.8182427,1.640625
,34.8401953,1.611328125
,34.8474653,1.5771484375
,34.8925333,1.5625
,34.8928872,1.54296875
,34.9080814,1.5087890625
,34.9430898,1.484375
,34.9642519,1.455078125
,34.9664742,1.4404296875
,35.004465,1.4306640625
,35.0075713,1.4306640625
,35.0503308,1.416015625
,35.0507101,1.4013671875
,35.0707548,1.3818359375
,35.1043222,1.3671875
,35.1046342,1.357421875
,35.1449935,1.396484375
,35.1736716,1.4453125
,35.1739182,1.5087890625
,35.1876811,1.5771484375
,35.2249593,1.6259765625
,35.2278064,1.6845703125
,35.2702656,1.7431640625
,35.2706651,1.8115234375
,35.2904909,1.8701171875
,35.3259093,1.93359375
,35.3262515,1.982421875
,35.3633926,2.05078125
,35.3684604,2.0849609375
,35.3890686,2.1142578125
,35.4253607,2.1044921875
,35.4305681,2.0947265625
,35.4509215,2.0703125
,35.4709221,2.0458984375
,35.4868219,2.0068359375
,35.5222741,2.0068359375
,35.5526137,1.9873046875
,35.5534887,1.9482421875
,35.5679265,1.9140625
,35.6033593,1.8701171875
,35.6238018,1.8310546875
,35.6294638,1.787109375
,35.6655623,1.7578125
,35.6658324,1.7138671875
,35.7003451,1.6943359375
,35.721327,1.66015625
,35.7301797,1.630859375
,35.7645168,1.5966796875
,35.7694452,1.5771484375
,35.8052516,1.5478515625
,35.8104336,1.5234375
,35.8485037,1.50390625
,35.8488935,1.4697265625
,35.8678594,1.46484375
,35.9134614,1.4453125
,35.9138741,1.435546875
,35.9302586,1.4111328125
,35.9747043,1.4013671875
,35.9751001,1.376953125
,35.9897612,1.3623046875
,36.0079904,1.3427734375
,36.0320023,1.3671875
,36.0483779,1.3134765625
,36.0840356,1.3720703125
,36.0873112,1.42578125
,36.1084534,1.4892578125
,36.1452104,1.54296875
,36.1655035,1.62109375
,36.1713346,1.689453125
,36.1920014,1.7431640625
,36.2115236,1.806640625
,36.2277686,1.8701171875
,36.2622856,1.9482421875
,36.2833351,2.0068359375
,36.2907437,2.0703125
,36.3101912,2.109375
,36.3488312,2.12890625
,36.3491342,2.12890625
,36.3952941,2.1142578125
,36.3955353,2.08984375
,36.4148601,2.0849609375
,36.4300504,2.0654296875
,36.4498056,2.0361328125
,36.4866982,2.01171875
,36.4892177,1.9677734375
,36.5233032,1.93359375
,36.5507295,1.89453125
,36.551121,1.8701171875
,36.5693774,1.8212890625
,36.5891749,1.796875
,36.6234558,1.7578125
,36.6295047,1.728515625
,36.6642376,1.6943359375
,36.6839803,1.6748046875
,36.6909373,1.640625
,36.7273601,1.611328125
,36.7277587,1.5771484375
,36.7634768,1.5576171875
,36.7687757,1.533203125
,36.8181176,1.5234375
,36.8183617,1.5087890625
,36.8288192,1.484375
,36.8667545,1.4599609375
,36.8710585,1.435546875
,36.9078311,1.4111328125
,36.913099,1.3916015625
,36.9478662,1.337890625
,36.9481163,1.3330078125
,36.9827804,1.3525390625
,37.0035954,1.3623046875
,37.0109313,1.4013671875
,37.0523939,1.4453125
,37.0526403,1.5185546875
,37.0883171,1.572265625
,37.0913805,1.6357421875
,37.1292,1.69921875
,37.1296365,1.7529296875
,37.1784129,1.8310546875
,37.1787976,1.89453125
,37.1900298,1.97265625
,37.22622,2.021484375
,37.2306062,2.0654296875
,37.2677084,2.0849609375
,37.27341,2.08984375
,37.2897869,2.0751953125
,37.3327172,2.080078125
,37.3330194,2.0654296875
,37.3506345,2.05078125
,37.3708491,2.021484375
,37.4054235,1.9921875
,37.4258725,1.953125
,37.4308996,1.9287109375
,37.4731786,1.8994140625
,37.4735689,1.85546875
,37.5031819,1.8408203125
,37.5098012,1.806640625
,37.5320624,1.7822265625
,37.5683663,1.7431640625
,37.5724781,1.7236328125
,37.5929377,1.6845703125
,37.6291417,1.6552734375
,37.6295302,1.62109375
,37.6729408,1.6015625
,37.673263,1.5771484375
,37.6905845,1.5576171875
,37.7258388,1.533203125
,37.7310109,1.5087890625
,37.7829187,1.494140625
,37.7833502,1.4599609375
,37.7936909,1.435546875
,37.8131686,1.4111328125
,37.8491384,1.396484375
,37.84938,1.3720703125
,37.8701723,1.3720703125
,37.9046652,1.3671875
,37.9259079,1.376953125
,37.9327574,1.40625
,37.9840397,1.4599609375
,37.9843524,1.50390625
,37.9935914,1.5673828125
,38.010805,1.611328125
,38.059321,1.689453125
,38.0597397,1.748046875
,38.0706538,1.845703125
,38.1066684,1.9189453125
,38.1266343,1.9873046875
,38.1327169,2.0458984375
,38.1687154,2.0849609375
,38.1896866,2.1142578125
,38.1900758,2.119140625
,38.2306638,2.1337890625
,38.2309022,2.1240234375
,38.2513892,2.109375
,38.2929605,2.08984375
,38.2932047,2.060546875
,38.3298153,2.03125
,38.3329348,2.0068359375
,38.3494765,1.962890625
,38.3872673,1.943359375
,38.3920879,1.9140625
,38.4268158,1.8701171875
,38.4317822,1.8408203125
,38.4799101,1.8017578125
,38.4801514,1.77734375
,38.4919143,1.73828125
,38.5272504,1.708984375
,38.5475965,1.6650390625
,38.5479861,1.650390625
,38.5886958,1.6259765625
,38.6084773,1.611328125
,38.6109551,1.5771484375
,38.6525367,1.5576171875
,38.6527802,1.5234375
,38.673512,1.50390625
,38.7166615,1.4697265625
,38.7170512,1.46484375
,38.7350116,1.4404296875
,38.7506875,1.4111328125
,38.792456,1.40625
,38.7926602,1.3916015625
,38.8274158,1.38671875
,38.8320015,1.376953125
,38.8662862,1.3818359375
,38.8858759,1.40625
,38.8950068,1.455078125
,38.9098378,1.4990234375
,38.9450497,1.5673828125
,38.9672308,1.6259765625
,38.9719717,1.7041015625
,39.0078084,1.7626953125
,39.0135733,1.8310546875
,39.0333785,1.904296875
,39.0760989,1.9580078125
,39.076497,2.0166015625
,39.0914143,2.0654296875
,39.1385102,2.12890625
,39.1387626,2.1533203125
,39.1531066,2.1630859375
,39.189045,2.1435546875
,39.1935062,2.1337890625
,39.2282851,2.109375
,39.2351751,2.0947265625
,39.2517323,2.0556640625
,39.2712466,2.041015625
,39.306158,2.01171875
,39.31159,1.982421875
,39.3487953,1.943359375
,39.3535036,1.9140625
,39.4049134,1.8798828125
,39.4051537,1.8408203125
,39.4141563,1.806640625
,39.4348554,1.7578125
,39.4555647,1.6796875
,39.4714249,1.611328125
,39.5137144,1.62109375
,39.51402,1.6064453125
,39.5338199,1.5966796875
,39.5775653,1.5673828125
,39.5779612,1.5478515625
,39.596894,1.5185546875
,39.6161237,1.4990234375
,39.6309123,1.474609375
,39.6654088,1.4697265625
,39.6852964,1.46484375
,39.6941348,1.4404296875
,39.7335064,1.4306640625
,39.7338977,1.4111328125
,39.779186,1.396484375
,39.7795094,1.376953125
,39.7946545,1.3671875
,39.8419055,1.3671875
,39.8421448,1.416015625
,39.8514526,1.46484375
,39.8886741,1.5283203125
,39.8930816,1.58203125
,39.9304792,1.6455078125
,39.9336591,1.69921875
,39.9713144,1.7578125
,39.9717016,1.8115234375
,40.0069631,1.8994140625
,40.0314538,1.9677734375
,40.0316916,2.021484375
,40.0670203,2.0654296875
,40.087354,2.0849609375
,40.0942225,2.08984375
,40.1303885,2.080078125
,40.1364148,2.0849609375
,40.1502337,2.0654296875
,40.1859544,2.0556640625
,40.2180682,2.041015625
,40.2184566,2.01171875
,40.2345096,1.9775390625
,40.2555646,1.9482421875
,40.2912059,1.9091796875
,40.2943186,1.8701171875
,40.3147049,1.8359375
,40.3493158,1.787109375
,40.3702346,1.748046875
,40.3732001,1.708984375
,40.4094249,1.6943359375
,40.4141718,1.66015625
,40.4491765,1.6357421875
,40.4540855,1.5966796875
,40.4904409,1.572265625
,40.5146686,1.533203125
,40.5150353,1.5185546875
,40.5323021,1.484375
,40.5688888,1.474609375
,40.5731622,1.4599609375
,40.6246451,1.4453125
,40.6257484,1.4208984375
,40.6351468,1.4208984375
,40.6692933,1.4111328125
,40.6902086,1.396484375
,40.697234,1.38671875
,40.7131088,1.3671875
,40.7639305,1.3671875
,40.7641761,1.3818359375
,40.7743121,1.4208984375
,40.8088542,1.46484375
,40.8294639,1.5185546875
,40.8346649,1.5771484375
,40.874823,1.6259765625
,40.8752135,1.6796875
,40.9053646,1.7578125
,40.9144824,1.8212890625
,40.9337225,1.8896484375
,40.9691451,1.962890625
,40.9981917,2.001953125
,40.9986184,2.0458984375
,41.0158275,2.0654296875
,41.0535856,2.08984375
,41.0539715,2.0703125
,41.089179,2.0751953125
,41.0941403,2.060546875
,41.1288783,2.0458984375
,41.1332076,2.021484375
,41.1846752,2.001953125
,41.1849958,1.97265625
,41.2152762,1.943359375
,41.2156442,1.904296875
,41.2519528,1.865234375
,41.2523421,1.8212890625
,41.2753826,1.806640625
,41.3260885,1.7822265625
,41.3264777,1.748046875
,41.3352061,1.71875
,41.3868401,1.6796875
,41.3872685,1.6552734375
,41.3979302,1.62109375
,41.4478997,1.5966796875
,41.4481691,1.5673828125
,41.4531033,1.552734375
,41.4934378,1.533203125
,41.4936788,1.513671875
,41.5139228,1.494140625
,41.5490749,1.4794921875
,41.5710531,1.4599609375
,41.5780378,1.4453125
,41.6185144,1.4306640625
,41.61885,1.40625
,41.634784,1.40625
,41.6564457,1.3916015625
,41.6956596,1.396484375
,41.6960641,1.4013671875
,41.7339966,1.4453125
,41.7369715,1.484375
,41.7744738,1.5478515625
,41.7748655,1.591796875
,41.8214719,1.6748046875
,41.8217181,1.73828125
,41.8355247,1.806640625
,41.8827875,1.865234375
,41.8831802,1.93359375
,41.9030299,1.9775390625
,41.9172937,2.0361328125
,41.9622375,2.080078125
,41.9624763,2.099609375
,41.9835464,2.119140625
,41.9955313,2.1142578125
,42.0412226,2.109375
,42.0414575,2.0849609375
,42.0579429,2.0703125
,42.0768521,2.041015625
,42.1117763,2.0166015625
,42.1321523,1.9775390625
,42.1379698,1.943359375
,42.1543701,1.89453125
,42.1741987,1.89453125
,42.2110593,1.8603515625
,42.2153215,1.8408203125
,42.2517579,1.806640625
,42.2570719,1.7724609375
,42.2925514,1.748046875
,42.297658,1.7138671875
,42.3333701,1.689453125
,42.3336251,1.6552734375
,42.3532875,1.640625
,42.391377,1.611328125
,42.3963425,1.591796875
,42.4172861,1.5625
,42.4518207,1.5478515625
,42.4571025,1.5185546875
,42.5067572,1.4990234375
,42.5070623,1.4794921875
,42.5136427,1.4697265625
,42.5499428,1.4501953125
,42.5701905,1.4501953125
,42.5758706,1.435546875
,42.6162628,1.4208984375
,42.6166748,1.416015625
,42.6496381,1.416015625
,42.6700419,1.4501953125
,42.6722287,1.4892578125
,42.7074718,1.5673828125
,42.7278492,1.630859375
,42.7351381,1.6943359375
,42.78577,1.748046875
,42.7860228,1.806640625
,42.7968923,1.8603515625
,42.8351569,1.923828125
,42.8354903,1.9775390625
,42.8795728,2.041015625
,42.8799604,2.041015625
,42.8959433,2.0166015625
,42.9419054,2.0654296875
,42.9423288,2.0703125
,42.9730158,2.080078125
,42.9774386,2.060546875
,43.0178428,2.041015625
,43.018084,2.01171875
,43.0386181,1.9873046875
,43.0556354,1.9482421875
,43.0902565,1.93359375
,43.1110275,1.8994140625
,43.1191846,1.8798828125
,43.1370606,1.8359375
,43.1738762,1.8017578125
,43.1769691,1.7578125
,43.2235104,1.73828125
,43.2239007,1.708984375
,43.2532843,1.6748046875
,43.2578876,1.66015625
,43.2764998,1.630859375
,43.3154938,1.6064453125
,43.3158839,1.5771484375
,43.3623982,1.5625
,43.3627938,1.533203125
,43.3928587,1.5087890625
,43.393247,1.4794921875
,43.4386301,1.46484375
,43.439038,1.4501953125
,43.459402,1.4404296875
,43.5024814,1.416015625
,43.5027195,1.40625
,43.5197814,1.396484375
,43.5555012,1.376953125
,43.5584658,1.3671875
,43.5749407,1.3671875
,43.6099676,1.42578125
,43.6305562,1.474609375
,43.636066,1.5380859375
,43.6709349,1.5869140625
,43.6907956,1.650390625
,43.6968601,1.6943359375
,43.7308379,1.7578125
,43.7510988,1.8115234375
,43.7590365,1.8310546875
,43.7757698,1.8505859375
,43.8261139,1.9384765625
,43.8263777,1.9921875
,43.8371301,2.041015625
,43.87236,2.060546875
,43.8923229,2.05078125
,43.8989066,2.041015625
,43.9499186,2.0166015625
,43.9501657,1.9970703125
,43.9554799,1.97265625
,43.9927075,1.953125
,43.9982011,1.9287109375
,44.0339571,1.9091796875
,44.0393646,1.8701171875
,44.0745021,1.8408203125
,44.0810715,1.806640625
,44.1205634,1.77734375
,44.1208765,1.7431640625
,44.1361655,1.7236328125
,44.1815738,1.708984375
,44.1818136,1.6796875
,44.2027865,1.6552734375
,44.2202024,1.630859375
,44.2588883,1.62109375
,44.2592391,1.5966796875
,44.3064495,1.5771484375
,44.3068405,1.5478515625
,44.3184418,1.54296875
,44.3595802,1.5234375
,44.3599697,1.5087890625
,44.4064931,1.484375
,44.4067729,1.4697265625
,44.4213977,1.455078125
,44.4411784,1.4306640625
,44.4559927,1.4111328125
,44.5000141,1.416015625
,44.5002495,1.42578125
,44.5298861,1.4404296875
,44.5382664,1.484375
,44.5771657,1.5234375
,44.5774058,1.58203125
,44.6243802,1.630859375
,44.6246351,1.689453125
,44.6407159,1.748046875
,44.6771561,1.806640625
,44.6780151,1.8603515625
,44.720276,1.9384765625
,44.7208364,1.9970703125
,44.7382813,2.060546875
,44.7832513,2.099609375
,44.7836555,2.1240234375
,44.8023413,2.138671875
,44.8368134,2.1142578125
,44.842583,2.0947265625
,44.8574806,2.0703125
,44.8907945,2.0703125
,44.9237836,2.041015625
,44.924171,2.021484375
,44.9412642,1.982421875
,44.9830956,1.953125
,44.9833415,1.9091796875
,45.0001427,1.8798828125
,45.0472806,1.8310546875
,45.047672,1.8115234375
,45.0583417,1.77734375
,45.0930288,1.7529296875
,45.0996635,1.7138671875
,45.1210572,1.6943359375
,45.1566555,1.66015625
,45.1600403,1.62109375
,45.1942661,1.591796875
,45.2163119,1.5625
,45.2165541,1.54296875
,45.251592,1.5234375
,45.272755,1.513671875
,45.2783783,1.494140625
,45.3162972,1.4794921875
,45.320751,1.455078125
,45.3715292,1.435546875
,45.3717698,1.416015625
,45.3792838,1.416015625
,45.399303,1.40625
,45.4470006,1.4013671875
,45.4474016,1.396484375
,45.4584924,1.3916015625
,45.4943043,1.4208984375
,45.5153296,1.4599609375
,45.5206008,1.5234375
,45.5579578,1.5673828125
,45.5627825,1.6357421875
,45.5781021,1.6845703125
,45.6186718,1.767578125
,45.6189271,1.8359375
,45.6535547,1.9189453125
,45.6738165,1.9775390625
,45.6819766,2.0458984375
,45.7023168,2.08984375
,45.7367284,2.1240234375
,45.7370761,2.12890625
,45.7716857,2.1533203125
,45.7927331,2.1484375
,45.7986762,2.12890625
,45.820307,2.109375
,45.865538,2.080078125
,45.8657865,2.0556640625
,45.8820741,2.0166015625
,45.9022104,1.982421875
,45.9189795,1.9384765625
,45.9535121,1.9091796875
,45.973902,1.875
,45.9796388,1.8359375
,46.0152203,1.7919921875
,46.0351348,1.7626953125
,46.0406675,1.7236328125
,46.0787265,1.6845703125
,46.0835598,1.6552734375
,46.1001519,1.6162109375
,46.1460283,1.591796875
,46.1462805,1.5673828125
,46.1610295,1.552734375
,46.1970103,1.5283203125
,46.2020579,1.50390625
,46.2403624,1.4794921875
,46.2406771,1.4599609375
,46.2593117,1.4453125
,46.2942571,1.4599609375
,46.2994448,1.4501953125
,46.319777,1.4501953125
,46.3569833,1.435546875
,46.3625506,1.4208984375
,46.3812769,1.396484375
,46.4269674,1.40625
,46.4273461,1.4208984375
,46.4577407,1.4501953125
,46.4626782,1.513671875
,46.4794547,1.5576171875
,46.5202401,1.6259765625
,46.5206939,1.6845703125
,46.5552636,1.7578125
,46.5608407,1.81640625
,46.5824364,1.8896484375
,46.6175001,1.9482421875
,46.6374626,2.0166015625
,46.6378171,2.060546875
,46.6735287,2.1240234375
,46.7052789,2.1435546875
,46.70574,2.1533203125
,46.7207139,2.1533203125
,46.7683612,2.12890625
,46.7686075,2.099609375
,46.7883089,2.0751953125
,46.8049005,2.0556640625
,46.8198177,2.0166015625
,46.8616947,1.9970703125
,46.8621013,1.9677734375
,46.8829756,1.93359375
,46.9024583,1.8896484375
,46.9413211,1.8603515625
,46.941559,1.81640625
,46.9865856,1.7822265625
,46.9868315,1.7431640625
,47.0003702,1.7138671875
,47.0479891,1.6748046875
,47.0484483,1.66015625
,47.0606888,1.630859375
,47.0966377,1.591796875
,47.1035446,1.5673828125
,47.1394273,1.5478515625
,47.1446588,1.5185546875
,47.163474,1.4892578125
,47.1849866,1.42578125
,47.2005915,1.3720703125
,47.2367115,1.3916015625
,47.2407092,1.4013671875
,47.2812701,1.396484375
,47.2816656,1.396484375
,47.3159596,1.396484375
,47.3370956,1.3916015625
,47.3425978,1.4013671875
,47.3906372,1.435546875
,47.3910355,1.4697265625
,47.4206836,1.54296875
,47.4210753,1.6015625
,47.4680201,1.669921875
,47.4683684,1.7236328125
,47.497732,1.796875
,47.5041478,1.85546875
,47.5449087,1.9287109375
,47.5451426,1.9873046875
,47.5615384,2.060546875
,47.605884,2.1044921875
,47.6061273,2.1533203125
,47.6224168,2.1728515625
,47.6578185,2.1728515625
,47.6627315,2.1484375
,47.6980116,2.138671875
,47.7028897,2.1142578125
,47.7374539,2.080078125
,47.7403588,2.060546875
,47.7762516,2.0361328125
,47.7974563,1.9970703125
,47.802128,1.962890625
,47.8406613,1.9287109375
,47.8710906,1.89453125
,47.8713758,1.8603515625
,47.8813912,1.8212890625
,47.9166067,1.796875
,47.9231437,1.767578125
,47.9411986,1.73828125
,47.9793626,1.7041015625
,47.9839861,1.669921875
,48.0258018,1.650390625
,48.0261995,1.611328125
,48.0428735,1.58203125
,48.0768836,1.5478515625
,48.0983863,1.5283203125
,48.0987815,1.4892578125
,48.1341091,1.4794921875
,48.1545914,1.46484375
,48.1621761,1.4501953125
,48.1991472,1.42578125
,48.2312069,1.416015625
,48.2315976,1.3916015625
,48.245115,1.3818359375
,48.2607294,1.3671875
,48.297061,1.376953125
,48.3024497,1.396484375
,48.3227743,1.4794921875
,48.3582919,1.552734375
,48.378687,1.611328125
,48.3842115,1.6845703125
,48.432799,1.748046875
,48.4331782,1.8212890625
,48.4415177,1.884765625
,48.4628291,1.97265625
,48.5100392,2.05078125
,48.5103815,2.1240234375
,48.5246391,2.1728515625
,48.5603224,2.216796875
,48.5646935,2.236328125
,48.6018985,2.2314453125
,48.6022916,2.2021484375
,48.6214764,2.1923828125
,48.6552285,2.177734375
,48.675102,2.138671875
,48.6843792,2.099609375
,48.7180824,2.0556640625
,48.7231414,2.021484375
,48.7578916,1.97265625
,48.7793605,1.9287109375
,48.7818571,1.884765625
,48.8224859,1.85546875
,48.8227659,1.81640625
,48.8588501,1.7919921875
,48.8637935,1.7529296875
,48.8998524,1.71875
,48.9042531,1.689453125
,48.9387358,1.66015625
,48.9591075,1.62109375
,48.9642431,1.5966796875
,49.0038584,1.5673828125
,49.0042486,1.533203125
,49.0414235,1.5234375
,49.0417893,1.50390625
,49.0783866,1.4794921875
,49.098413,1.455078125
,49.1060368,1.4404296875
,49.1523971,1.416015625
,49.1526354,1.396484375
,49.1632227,1.3671875
,49.2000609,1.3623046875
,49.2045057,1.34765625
,49.2468602,1.357421875
,49.2472521,1.3720703125
,49.2669371,1.4208984375
,49.2862356,1.4892578125
,49.3061121,1.5380859375
,49.3546164,1.6064453125
,49.3550052,1.669921875
,49.3638993,1.767578125
,49.3995465,1.8359375
,49.4023591,1.923828125
,49.4391112,1.9873046875
,49.4613652,2.060546875
,49.4643,2.109375
,49.5084736,2.158203125
,49.5087111,2.1728515625
,49.5279407,2.1875
,49.5438424,2.1728515625
,49.5648222,2.158203125
,49.6022245,2.1240234375
,49.6049387,2.1044921875
,49.6482686,2.060546875
,49.6485482,2.0166015625
,49.6656932,1.9775390625
,49.6997927,1.93359375
,49.7044359,1.8994140625
,49.7390586,1.8603515625
,49.7418796,1.8310546875
,49.7779683,1.787109375
,49.798889,1.7529296875
,49.8055968,1.708984375
,49.8530385,1.669921875
,49.8534684,1.6357421875
,49.8823363,1.6064453125
,49.8826928,1.572265625
,49.9186925,1.5576171875
,49.9393098,1.5478515625
,49.9440532,1.5185546875
,49.9829467,1.4990234375
,49.9851496,1.4697265625
,50.0214066,1.455078125
,50.0262371,1.4208984375
,50.0625363,1.40625
,50.0631216,1.376953125
,50.1009961,1.3818359375
,50.1044894,1.3623046875
,50.1484109,1.357421875
,50.1488827,1.3427734375
,50.1650351,1.3330078125
,50.2006671,1.337890625
,50.2069261,1.3720703125
,50.2216269,1.40625
,50.2733268,1.494140625
,50.2737074,1.5625
,50.3030276,1.6259765625
,50.3033399,1.6943359375
,50.350518,1.7578125
,50.3509076,1.826171875
,50.3705771,1.8896484375
,50.3854557,1.9677734375
,50.4042398,2.0263671875
,50.4242545,2.0947265625
,50.4583942,2.12890625
,50.4800613,2.1484375
,50.4847442,2.138671875
,50.5225624,2.1240234375
,50.5270717,2.099609375
,50.5687438,2.0751953125
,50.5689822,2.0556640625
,50.5884502,2.0166015625
,50.6091012,1.93359375
,50.6236113,1.8603515625
,50.659251,1.8701171875
,50.6802397,1.845703125
,50.6860056,1.826171875
,50.7210693,1.787109375
,50.7272025,1.7578125
,50.7621506,1.71875
,50.768249,1.6943359375
,50.7844496,1.650390625
,50.8040709,1.630859375
,50.8488261,1.6015625
,50.8490718,1.58203125
,50.8672072,1.5478515625
,50.9041387,1.533203125
,50.9086083,1.513671875
,50.9278582,1.484375
,50.971996,1.4599609375
,50.9722442,1.4306640625
,50.9838502,1.42578125
,51.0204462,1.40625
,51.0251594,1.4013671875
,51.0663228,1.3818359375
,51.066563,1.3671875
,51.1021113,1.3525390625
,51.1084178,1.337890625
,51.1256755,1.328125
,51.1455346,1.3525390625
,51.1895912,1.38671875
,51.189841,1.4453125
,51.208236,1.513671875
,51.2256905,1.5625
,51.2664286,1.6259765625
,51.2667264,1.6845703125
,51.2867285,1.7529296875
,51.3042843,1.8115234375
,51.3439287,1.89453125
,51.3441644,1.9580078125
,51.364634,2.03125
,51.3983198,2.0751953125
,51.4181898,2.1240234375
,51.4260385,2.1337890625
,51.4672292,2.1337890625
,51.4675386,2.1142578125
,51.4877259,2.05078125
,51.5048845,2.03125
,51.5411415,2.0361328125
,51.5610967,2.021484375
,51.5657542,1.982421875
,51.6009799,1.953125
,51.6225582,1.9140625
,51.6292153,1.8798828125
,51.6672515,1.8359375
,51.6674948,1.8017578125
,51.6835502,1.7578125
,51.7185996,1.7333984375
,51.7390201,1.7041015625
,51.746269,1.669921875
,51.7928544,1.6357421875
,51.7937234,1.611328125
,51.8078045,1.572265625
,51.8438644,1.5380859375
,51.848291,1.5185546875
,51.8656945,1.4892578125
,51.91641,1.4794921875
,51.9166532,1.46484375
,51.9258622,1.455078125
,51.963915,1.4306640625
,51.9846915,1.4208984375
,51.9867006,1.396484375
,52.0248885,1.3818359375
,52.0251482,1.3623046875
,52.0609719,1.3671875
,52.0659653,1.3525390625
,52.102403,1.357421875
,52.1069318,1.3623046875
,52.1448006,1.4013671875
,52.1494447,1.4404296875
,52.1684132,1.5087890625
,52.2127198,1.572265625
,52.2129684,1.62109375
,52.2260911,1.69921875
,52.2626735,1.7724609375
,52.2673221,1.845703125
,52.3072354,1.9091796875
,52.3076264,1.9873046875
,52.3534979,2.041015625
,52.3537969,2.0947265625
,52.3703792,2.1240234375
,52.4067934,2.1337890625
,52.4071856,2.1337890625
,52.4467082,2.1484375
,52.4469598,2.138671875
,52.4827231,2.119140625
,52.4885788,2.109375
,52.5092306,2.0703125
,52.5436051,2.0361328125
,52.5497072,1.9921875
,52.5701504,1.9677734375
,52.586948,1.9140625
,52.622827,1.89453125
,52.6272988,1.85546875
,52.6630496,1.826171875
,52.667471,1.7822265625
,52.703642,1.7529296875
,52.7092865,1.708984375
,52.7458192,1.6796875
,52.7462721,1.640625
,52.7745295,1.6259765625
,52.7881739,1.591796875
,52.8243752,1.58203125
,52.827448,1.5576171875
,52.8638449,1.5185546875
,52.8983944,1.50390625
,52.8986376,1.484375
,52.9094215,1.4599609375
,52.9265445,1.435546875
,52.9610196,1.4404296875
,52.9818157,1.4208984375
,52.9870693,1.416015625
,53.0255826,1.4013671875
,53.0579081,1.3916015625
,53.0583199,1.376953125
,53.0679888,1.376953125
,53.0850513,1.38671875
,53.1399656,1.435546875
,53.1403104,1.5087890625
,53.1588316,1.4990234375
,53.1681284,1.58203125
,53.205251,1.640625
,53.2071296,1.7236328125
,53.2433536,1.7822265625
,53.2638134,1.85546875
,53.2690376,1.9189453125
,53.2916247,1.982421875
,53.3081517,2.0263671875
,53.3433528,2.099609375
,53.3483967,2.12890625
,53.3919388,2.1435546875
,53.3923311,2.138671875
,53.4102141,2.12890625
,53.4527731,2.099609375
,53.4531081,2.099609375
,53.4700834,2.0703125
,53.4887264,2.03125
,53.5311125,2.0166015625
,53.5313536,1.982421875
,53.5500658,1.953125
,53.5866415,1.9091796875
,53.590855,1.8798828125
,53.6393634,1.8408203125
,53.6396066,1.806640625
,53.6474385,1.767578125
,53.6886469,1.748046875
,53.6890377,1.71875
,53.7179304,1.69921875
,53.7285005,1.66015625
,53.7634572,1.630859375
,53.7838778,1.611328125
,53.789445,1.5771484375
,53.8282362,1.552734375
,53.828816,1.5234375
,53.8469192,1.5234375
,53.880889,1.4990234375
,53.9017739,1.4892578125
,53.9093494,1.4697265625
,53.9518964,1.4599609375
,53.9521377,1.435546875
,53.9864724,1.4306640625
,53.9906129,1.4111328125
,54.0124616,1.3525390625
,54.0283539,1.298828125
,54.0635833,1.3525390625
,54.0837887,1.396484375
,54.0898494,1.474609375
,54.1400769,1.54296875
,54.1403278,1.5966796875
,54.1513191,1.66015625
,54.1866565,1.7138671875
,54.2185022,1.7822265625
,54.2188198,1.8408203125
,54.2292405,1.9189453125
,54.2657616,1.982421875
,54.2703351,2.0458984375
,54.2902857,2.0947265625
,54.3255818,2.1240234375
,54.3309924,2.138671875
,54.3671036,2.138671875
,54.3674936,2.119140625
,54.404283,2.1142578125
,54.4083685,2.109375
,54.444333,2.0849609375
,54.4654244,2.060546875
,54.4699099,2.0361328125
,54.5129473,2.0166015625
,54.5133437,1.9873046875
,54.5580186,1.9580078125
,54.5582621,1.9140625
,54.5680473,1.89453125
,54.6202407,1.8603515625
,54.6205202,1.8359375
,54.6300877,1.7919921875
,54.6657288,1.7626953125
,54.6856448,1.728515625
,54.6920397,1.69921875
,54.7080516,1.6552734375
,54.7435972,1.6552734375
,54.7495286,1.6357421875
,54.7871667,1.611328125
,54.7874647,1.5869140625
,54.8375293,1.5625
,54.838144,1.5380859375
,54.8587572,1.513671875
,54.8720337,1.4892578125
,54.8937039,1.474609375
,54.9142106,1.4013671875
,54.9285322,1.396484375
,54.978091,1.4013671875
,54.9783272,1.40625
,55.0100628,1.42578125
,55.0104274,1.455078125
,55.0467392,1.4990234375
,55.0516303,1.5673828125
,55.0862238,1.611328125
,55.1060237,1.6748046875
,55.1084777,1.7236328125
,55.1455284,1.806640625
,55.1505496,1.8701171875
,55.1877417,1.9482421875
,55.1923434,2.0068359375
,55.2283863,2.0703125
,55.232986,2.1142578125
,55.2747386,2.158203125
,55.2751296,2.1630859375
,55.2906368,2.177734375
,55.3367863,2.16796875
,55.3371753,2.158203125
,55.3506781,2.1337890625
,55.3984533,2.1142578125
,55.398712,2.08984375
,55.4118272,2.0458984375
,55.4603927,2.0068359375
,55.4606715,1.9677734375
,55.4906128,1.9384765625
,55.4909482,1.904296875
,55.536763,1.875
,55.5370065,1.8408203125
,55.5530242,1.806640625
,55.599418,1.7626953125
,55.599733,1.728515625
,55.6073064,1.6796875
,55.6443719,1.669921875
,55.6651752,1.640625
,55.6712063,1.6162109375
,55.6923233,1.5966796875
,55.7385919,1.5673828125
,55.7389106,1.5478515625
,55.7511875,1.513671875
,55.7873246,1.494140625
,55.8090536,1.474609375
,55.8134805,1.455078125
,55.8297718,1.42578125
,55.8785176,1.416015625
,55.8792569,1.40625
,55.8986858,1.4013671875
,55.9112456,1.376953125
,55.9478326,1.3671875
,55.9527927,1.3623046875
,55.9898522,1.38671875
,55.9902388,1.4208984375
,56.0245749,1.50390625
,56.0446701,1.5771484375
,56.0499861,1.630859375
,56.0870165,1.69921875
,56.1121208,1.7529296875
,56.1124912,1.826171875
,56.1485823,1.8798828125
,56.1536129,1.9482421875
,56.169642,1.9970703125
,56.2058528,2.0654296875
,56.2288153,2.099609375
,56.2291673,2.12890625
,56.2652904,2.12890625
,56.2873345,2.119140625
,56.2944385,2.0947265625
,56.3318818,2.0751953125
,56.3321201,2.05078125
,56.3512731,2.0166015625
,56.3924958,1.9970703125
,56.3927415,1.962890625
,56.4279086,1.93359375
,56.4321304,1.8896484375
,56.4675742,1.8505859375
,56.4725591,1.8115234375
,56.5095348,1.77734375
,56.5328541,1.7431640625
,56.5330993,1.73828125
,56.5508621,1.708984375
,56.5873028,1.689453125
,56.6125788,1.66015625
,56.6129112,1.630859375
,56.6581102,1.5966796875
,56.6583563,1.58203125
,56.6729736,1.5625
,56.7105405,1.5234375
,56.7134344,1.4990234375
,56.7308458,1.4697265625
,56.7662962,1.455078125
,56.7984422,1.4404296875
,56.7986826,1.42578125
,56.8136219,1.40625
,56.8477042,1.38671875
,56.8531036,1.3671875
,56.8885752,1.34765625
,56.8893002,1.328125
,56.9393413,1.328125
,56.9396236,1.3427734375
,56.9604572,1.3720703125
,56.9729086,1.435546875
,57.0169493,1.4697265625
,57.0173587,1.533203125
,57.0377916,1.5771484375
,57.0552821,1.6455078125
,57.0714707,1.6845703125
,57.091724,1.7626953125
,57.1261377,1.81640625
,57.1459132,1.8798828125
,57.1527143,1.9189453125
,57.1882436,1.9677734375
,57.2086785,1.982421875
,57.2139909,1.9970703125
,57.2293582,1.9775390625
,57.2638334,1.9873046875
,57.2842431,1.9677734375
,57.2919449,1.962890625
,57.3273315,1.943359375
,57.3324873,1.9091796875
,57.3668025,1.8798828125
,57.388161,1.8505859375
,57.3954498,1.8212890625
,57.4153969,1.7822265625
,57.4366493,1.7041015625
,57.4528399,1.640625
,57.4886971,1.6455078125
,57.513964,1.640625
,57.5142803,1.6259765625
,57.559282,1.6064453125
,57.5595333,1.5966796875
,57.5739401,1.572265625
,57.6096662,1.5576171875
,57.6290116,1.54296875
,57.6323932,1.5087890625
,57.6686064,1.4990234375
,57.6720538,1.484375
,57.7148457,1.4697265625
,57.7151891,1.4501953125
,57.7346252,1.435546875
,57.7545885,1.4111328125
,57.7895133,1.396484375
,57.809895,1.3720703125
,57.8127789,1.376953125
,57.8506907,1.3671875
,57.8510912,1.357421875
,57.8874101,1.3525390625
,57.9178859,1.3671875
,57.918339,1.396484375
,57.9352971,1.4599609375
,57.9698893,1.5087890625
,57.9902559,1.5478515625
,57.9925424,1.611328125
,58.0295556,1.66015625
,58.0324374,1.71875
,58.0672317,1.7626953125
,58.0878244,1.826171875
,58.097287,1.8701171875
,58.1148485,1.9189453125
,58.1331335,1.943359375
,58.1823591,1.982421875
,58.1826114,1.9921875
,58.1928258,1.9921875
,58.2298903,1.9775390625
,58.2342087,1.9677734375
,58.2707463,1.9580078125
,58.2733886,1.93359375
,58.3096344,1.904296875
,58.3300597,1.875
,58.3371987,1.806640625
,58.3542373,1.787109375
,58.3933556,1.7822265625
,58.3938187,1.7626953125
,58.4287085,1.7431640625
,58.4489575,1.71875
,58.4537536,1.69921875
,58.4898168,1.6650390625
,58.5100105,1.6357421875
,58.512421,1.611328125
,58.5620264,1.6015625
,58.5622789,1.5771484375
,58.5732316,1.5869140625
,58.6074212,1.5771484375
,58.6284201,1.552734375
,58.6357474,1.533203125
,58.6572525,1.513671875
,58.7034182,1.4990234375
,58.7036594,1.474609375
,58.7150144,1.4697265625
,58.7361721,1.46484375
,58.7544404,1.4501953125
,58.7963341,1.435546875
,58.7966974,1.4208984375
,58.8326431,1.4111328125
,58.8347729,1.4013671875
,58.8519723,1.396484375
,58.8889724,1.435546875
,58.9094355,1.494140625
,58.9148543,1.5380859375
,58.9524169,1.591796875
,58.9531262,1.630859375
,58.9901783,1.6845703125
,58.9941954,1.71875
,59.0302249,1.77734375
,59.0500386,1.8212890625
,59.0524346,1.8896484375
,59.0917898,1.9384765625
,59.1229828,2.001953125
,59.1233782,2.0263671875
,59.1350915,2.0556640625
,59.1689309,2.0556640625
,59.1890273,2.05078125
,59.1974832,2.03125
,59.2485382,2.0263671875
,59.2488618,2.001953125
,59.2552902,1.9775390625
,59.2898387,1.962890625
,59.2961478,1.943359375
,59.3406715,1.9140625
,59.3409121,1.8798828125
,59.3567587,1.8505859375
,59.4027959,1.81640625
,59.40304,1.787109375
,59.4238345,1.7529296875
,59.436172,1.7333984375
,59.4551298,1.708984375
,59.4974444,1.6845703125
,59.4978375,1.66015625
,59.5438742,1.6357421875
,59.5441894,1.62109375
,59.5571926,1.5869140625
,59.5903751,1.572265625
,59.6117121,1.5478515625
,59.6141659,1.552734375
,59.6483212,1.533203125
,59.667857,1.5283203125
,59.6760924,1.50390625
,59.7107019,1.494140625
,59.7307385,1.474609375
,59.7362851,1.4697265625
,59.7538304,1.4453125
,59.7914038,1.4453125
,59.7959729,1.435546875
,59.8379601,1.4453125
,59.8382187,1.4599609375
,59.8571363,1.513671875
,59.8783683,1.5673828125
,59.8975731,1.6015625
,59.9183347,1.650390625
,59.9337105,1.6943359375
,59.9771141,1.7578125
,59.9777586,1.81640625
,60.0075012,1.8798828125
,60.0150141,1.9287109375
,60.0504816,1.982421875
,60.0557194,2.021484375
,60.0915584,2.05078125
,60.0972146,2.060546875
,60.1333004,2.060546875
,60.1335529,2.0458984375
,60.1532092,2.041015625
,60.1882472,2.0361328125
,60.2087881,2.0166015625
,60.2163818,2.001953125
,60.2375006,1.9677734375
,60.2895199,1.943359375
,60.289905,1.9091796875
,60.2985063,1.8798828125
,60.3143199,1.8408203125
,60.3517844,1.826171875
,60.3564273,1.796875
,60.3772587,1.7724609375
,60.413925,1.73828125
,60.4159719,1.7138671875
,60.4527498,1.6845703125
,60.4762329,1.66015625
,60.476622,1.6259765625
,60.5228069,1.6162109375
,60.5232139,1.6015625
,60.5352776,1.572265625
,60.5859021,1.5576171875
,60.5862941,1.533203125
,60.5976062,1.5234375
,60.6471691,1.513671875
,60.6475594,1.5087890625
,60.6768178,1.494140625
,60.6771346,1.494140625
,60.7135266,1.484375
,60.7139239,1.474609375
,60.7481278,1.46484375
,60.7693937,1.46484375
,60.7782033,1.4453125
,60.8177793,1.4404296875
,60.8180301,1.46484375
,60.8527409,1.4892578125
,60.8590241,1.4892578125
,60.8755931,1.494140625
,60.9116253,1.591796875
,60.9332366,1.66015625
,60.9389477,1.7333984375
,60.9750906,1.787109375
,60.9783721,1.8603515625
,60.9985428,1.904296875
,61.0508699,1.9677734375
,61.0512683,2.0068359375
,61.0557782,2.0654296875
,61.093282,2.08984375
,61.0959868,2.1044921875
,61.1317616,2.0947265625
,61.1595788,2.099609375
,61.1598194,2.08984375
,61.2053687,2.060546875
,61.2056627,2.0458984375
,61.2158979,2.01171875
,61.2506483,1.9921875
,61.2568304,1.9677734375
,61.2982085,1.943359375
,61.2985986,1.9091796875
,61.31858,1.875
,61.3403294,1.8359375
,61.3902663,1.796875
,61.390518,1.767578125
,61.3974593,1.748046875
,61.4361033,1.7236328125
,61.4363537,1.69921875
,61.4833283,1.6796875
,61.4835765,1.640625
,61.4973995,1.62109375
,61.531875,1.591796875
,61.551333,1.572265625
,61.5567012,1.5380859375
,61.5915647,1.533203125
,61.5969976,1.513671875
,61.6322563,1.513671875
,61.6555526,1.4892578125
,61.6603482,1.484375
,61.6783513,1.4599609375
,61.7187835,1.4501953125
,61.7190201,1.435546875
,61.7556381,1.38671875
,61.7559897,1.376953125
,61.7909962,1.4013671875
,61.8118888,1.435546875
,61.8171394,1.474609375
,61.8524489,1.533203125
,61.8731647,1.58203125
,61.8783087,1.640625
,61.9213962,1.689453125
,61.9216342,1.7431640625
,61.9438593,1.796875
,61.9577043,1.8701171875
,62.000462299999995,1.93359375
,62.001009800000006,1.9873046875
,62.018200699999994,2.0263671875
,62.053839100000005,2.0654296875
,62.0739957,2.0849609375
,62.07911850000001,2.0947265625
,62.11570450000001,2.0947265625
,62.140952999999996,2.0751953125
,62.141474,2.0751953125
,62.1587074,2.0654296875
,62.202487500000004,2.0458984375
,62.202730200000005,2.0166015625
,62.2194691,1.9921875
,62.256391699999995,1.953125
,62.259265400000004,1.923828125
,62.278053299999996,1.884765625
,62.29813059999999,1.8701171875
,62.334464600000004,1.8408203125
,62.339794100000006,1.8115234375
,62.374848799999995,1.7822265625
,62.3780934,1.748046875
,62.421251100000006,1.708984375
,62.421689799999996,1.6796875
,62.452592300000006,1.6552734375
,62.455951999999996,1.62109375
,62.491657700000005,1.6064453125
,62.4981126,1.5869140625
,62.5441414,1.5673828125
,62.5444189,1.54296875
,62.5578785,1.5283203125
,62.5950498,1.50390625
,62.615595,1.4892578125
,62.6207491,1.474609375
,62.658668000000006,1.4599609375
,62.659157199999996,1.4453125
,62.679064499999996,1.474609375
,62.715658700000006,1.474609375
,62.7203968,1.4794921875
,62.75567650000001,1.4990234375
,62.7612975,1.5087890625
,62.780840600000005,1.552734375
,62.8268236,1.5869140625
,62.827082000000004,1.6455078125
,62.8382141,1.689453125
,62.873148099999995,1.7578125
,62.8935348,1.81640625
,62.898962600000004,1.884765625
,62.9339231,1.9384765625
,62.9540363,2.0166015625
,62.9590374,2.0654296875
,62.997846499999994,2.1142578125
,62.998167499999994,2.1435546875
,63.027057400000004,2.1728515625
,63.0390297,2.16796875
,63.072130900000005,2.16796875
,63.0929957,2.1533203125
,63.101179099999996,2.1240234375
,63.135298000000006,2.099609375
,63.1402837,2.0654296875
,63.175183399999995,2.03125
,63.1955791,1.9921875
,63.1984039,1.9775390625
,63.2200883,1.943359375
,63.2555043,1.9091796875
,63.260348199999996,1.8701171875
,63.2957193,1.8310546875
,63.3007956,1.796875
,63.340250499999996,1.767578125
,63.340488199999996,1.7333984375
,63.358705400000005,1.708984375
,63.401160399999995,1.6943359375
,63.401406800000004,1.66015625
,63.419522400000005,1.630859375
,63.45495459999999,1.6015625
,63.459615799999995,1.5869140625
,63.495800700000004,1.552734375
,63.5009601,1.5380859375
,63.5417152,1.50390625
,63.542103999999995,1.4892578125
,63.5616886,1.4599609375
,63.578407600000006,1.4599609375
,63.620136200000005,1.435546875
,63.6204475,1.4208984375
,63.651203800000005,1.40625
,63.660721699999996,1.3916015625
,63.6970094,1.3671875
,63.7021946,1.38671875
,63.7420654,1.40625
,63.742305,1.435546875
,63.76271319999999,1.4990234375
,63.778654200000005,1.552734375
,63.815594399999995,1.611328125
,63.838397799999996,1.669921875
,63.8430367,1.73828125
,63.88343020000001,1.7919921875
,63.883674,1.8505859375
,63.898366100000004,1.904296875
,63.932899500000005,1.97265625
,63.953799399999994,2.0263671875
,63.9591899,2.08984375
,64.0082278,2.1142578125
,64.008808,2.12890625
,64.0229857,2.138671875
,64.0589861,2.1142578125
,64.0644585,2.099609375
,64.0782227,2.0703125
,64.0988539,2.0654296875
,64.1487887,2.041015625
,64.1490261,2.01171875
,64.180218,1.9775390625
,64.1805,1.943359375
,64.2264194,1.904296875
,64.2266964,1.8798828125
,64.2424582,1.8359375
,64.2644026,1.7578125
,64.2810421,1.689453125
,64.3193556,1.69921875
,64.3195946,1.6796875
,64.3565082,1.669921875
,64.3613944,1.6552734375
,64.412427,1.62109375
,64.4126817,1.6015625
,64.425116,1.572265625
,64.4434751,1.5478515625
,64.4598482,1.5185546875
,64.5046435,1.513671875
,64.5048799,1.50390625
,64.522608,1.484375
,64.54203,1.4697265625
,64.5832758,1.4501953125
,64.5836074,1.4306640625
,64.6201356,1.42578125
,64.6208342,1.40625
,64.6566532,1.4013671875
,64.661231,1.40625
,64.7010533,1.38671875
,64.7014064,1.3916015625
,64.7482461,1.4208984375
,64.7485242,1.484375
,64.777884,1.5380859375
,64.7826804,1.6015625
,64.8001993,1.650390625
,64.8427562,1.7236328125
,64.8431592,1.787109375
,64.8588274,1.8603515625
,64.9058525,1.9140625
,64.9062984,1.9775390625
,64.9366376,2.03125
,64.9437113,2.080078125
,64.9598613,2.099609375
,64.9948764,2.1484375
,65.0154562,2.16796875
,65.0211522,2.158203125
,65.0412431,2.1484375
,65.0623761,2.119140625
,65.0821876,2.0947265625
,65.1203203,2.060546875
,65.1238198,2.0361328125
,65.1427284,2.001953125
,65.1802391,1.923828125
,65.1806251,1.8994140625
,65.2143266,1.884765625
,65.2219464,1.85546875
,65.2620886,1.8408203125
,65.2624572,1.8115234375
,65.3096175,1.7822265625
,65.3099352,1.7529296875
,65.3398969,1.7138671875
,65.3431081,1.6845703125
,65.3608285,1.650390625
,65.4040904,1.640625
,65.4044817,1.6162109375
,65.4232425,1.5966796875
,65.4588765,1.5673828125
,65.4615486,1.5478515625
,65.4976708,1.5234375
,65.518353,1.513671875
,65.5216935,1.4892578125
,65.5578606,1.484375
,65.5630693,1.474609375
,65.5817665,1.4599609375
,65.6205504,1.4404296875
,65.650458,1.4404296875
,65.650708,1.4306640625
,65.6640554,1.40625
,65.6830848,1.4013671875
,65.6997789,1.4013671875
,65.7389928,1.4404296875
,65.7393898,1.4892578125
,65.7754045,1.5673828125
,65.7957286,1.6259765625
,65.8019828,1.689453125
,65.854295,1.7431640625
,65.8545605,1.806640625
,65.8600906,1.8701171875
,65.8952719,1.9482421875
,65.9156063,2.01171875
,65.9212078,2.0703125
,65.9627724,2.1240234375
,65.9630116,2.1484375
,65.9982523,2.16796875
,66.0030036,2.16796875
,66.0399135,2.1630859375
,66.0607282,2.1337890625
,66.0651154,2.1142578125
,66.0811039,2.080078125
,66.1206056,2.0654296875
,66.1208603,2.03125
,66.1664549,2.01171875
,66.1667008,1.97265625
,66.1880779,1.9384765625
,66.2044309,1.89453125
,66.2399533,1.8603515625
,66.2430118,1.8115234375
,66.2909359,1.796875
,66.2911812,1.77734375
,66.3035606,1.748046875
,66.3387027,1.71875
,66.3435872,1.689453125
,66.3790417,1.6552734375
,66.3844485,1.62109375
,66.4056138,1.5966796875
,66.4214316,1.5673828125
,66.456836,1.5576171875
,66.4629149,1.5380859375
,66.4864228,1.5185546875
,66.5065097,1.4990234375
,66.5249967,1.4892578125
,66.5459752,1.474609375
,66.5880237,1.455078125
,66.5882595,1.4501953125
,66.6017659,1.4208984375
,66.6515998,1.42578125
,66.6520079,1.40625
,66.6636853,1.40625
,66.6981192,1.3916015625
,66.7293478,1.4111328125
,66.7296621,1.4453125
,66.7456896,1.4990234375
,66.7609949,1.54296875
,66.7950559,1.6259765625
,66.8167264,1.6845703125
,66.8231976,1.7578125
,66.8599139,1.8212890625
,66.8643065,1.8896484375
,66.8989022,1.9482421875
,66.9196458,2.0166015625
,66.9250427,2.0751953125
,66.9608601,2.109375
,66.9677082,2.138671875
,66.9817912,2.1435546875
,67.0263033,2.1533203125
,67.0267021,2.1435546875
,67.056711,2.1337890625
,67.0661949,2.109375
,67.0843919,2.0849609375
,67.1325627,2.05078125
,67.1329588,2.0166015625
,67.1537242,1.97265625
,67.1629288,1.953125
,67.1979446,1.9189453125
,67.2182175,1.884765625
,67.2236945,1.8505859375
,67.2461824,1.806640625
,67.2805258,1.7724609375
,67.2848296,1.73828125
,67.3340533,1.71875
,67.3342928,1.6796875
,67.3555834,1.66015625
,67.3631398,1.630859375
,67.3987691,1.611328125
,67.4291845,1.58203125
,67.4295733,1.5673828125
,67.4465802,1.5380859375
,67.4814617,1.5185546875
,67.481771,1.494140625
,67.5221385,1.484375
,67.5515928,1.4599609375
,67.5518414,1.4599609375
,67.5649011,1.4501953125
,67.6014178,1.42578125
,67.6041049,1.4111328125
,67.6466406,1.3916015625
,67.6470331,1.376953125
,67.6680486,1.3525390625
,67.6885105,1.3037109375
,67.7046636,1.2646484375
,67.7403049,1.337890625
,67.7436918,1.40625
,67.7866425,1.484375
,67.7870421,1.5478515625
,67.8185449,1.630859375
,67.8276737,1.6943359375
,67.8627067,1.7626953125
,67.869077,1.8310546875
,67.8850473,1.884765625
,67.9200446,1.962890625
,67.9249604,2.0166015625
,67.9605366,2.0751953125
,67.9652891,2.099609375
,68.0016473,2.1142578125
,68.00606,2.1044921875
,68.0411581,2.099609375
,68.0664406,2.080078125
,68.0669641,2.08984375
,68.0835624,2.0654296875
,68.1219804,2.0458984375
,68.1226447,2.01171875
,68.159314,1.982421875
,68.1798526,1.943359375
,68.1870459,1.9140625
,68.2213525,1.8798828125
,68.2427681,1.8359375
,68.2431419,1.8115234375
,68.2789552,1.77734375
,68.2993729,1.7431640625
,68.3044095,1.7138671875
,68.3451227,1.689453125
,68.3454371,1.6650390625
,68.3778624,1.6357421875
,68.4009791,1.6015625
,68.4058798,1.5869140625
,68.4243208,1.5576171875
,68.4588145,1.5478515625
,68.4792441,1.5234375
,68.4863126,1.50390625
,68.5223864,1.494140625
,68.5269303,1.46484375
,68.562121,1.4453125
,68.5694525,1.42578125
,68.588277,1.3720703125
,68.6046199,1.3671875
,68.6385456,1.376953125
,68.6589493,1.376953125
,68.666931,1.3916015625
,68.6884252,1.40625
,68.7317638,1.455078125
,68.7320102,1.494140625
,68.746419,1.5576171875
,68.7636606,1.5966796875
,68.8002011,1.6748046875
,68.8240846,1.728515625
,68.8264916,1.826171875
,68.8707174,1.904296875
,68.8711122,1.97265625
,68.8904712,2.041015625
,68.9239609,2.0947265625
,68.9271936,2.1337890625
,68.9445252,2.1533203125
,68.9943838,2.177734375
,68.9946586,2.177734375
,69.0062322,2.1630859375
,69.0414687,2.138671875
,69.0463312,2.1142578125
,69.0673906,2.0849609375
,69.105243,2.0654296875
,69.1054846,2.03125
,69.1254342,2.01171875
,69.1686738,1.9921875
,69.1690006,1.9482421875
,69.1991959,1.9140625
,69.2084394,1.875
,69.2437339,1.8408203125
,69.2480241,1.8017578125
,69.2918037,1.7626953125
,69.2921683,1.728515625
,69.3061025,1.7041015625
,69.3418658,1.6748046875
,69.3478986,1.66015625
,69.3664225,1.630859375
,69.4027286,1.611328125
,69.4071252,1.5869140625
,69.4461072,1.5625
,69.4464619,1.533203125
,69.4927394,1.5234375
,69.4929869,1.50390625
,69.5140098,1.474609375
,69.526401,1.474609375
,69.5705264,1.4599609375
,69.5707655,1.4453125
,69.588719,1.4306640625
,69.6347714,1.4306640625
,69.6351095,1.42578125
,69.6496109,1.4501953125
,69.6651125,1.484375
,69.7131895,1.552734375
,69.7135849,1.6064453125
,69.7279615,1.6796875
,69.7644543,1.7333984375
,69.768971,1.8017578125
,69.7893766,1.875
,69.8281508,1.93359375
,69.8284564,1.9970703125
,69.8625497,2.060546875
,69.8644687,2.1435546875
,69.8980356,2.1923828125
,69.9188969,2.2314453125
,69.9275613,2.236328125
,69.9631121,2.216796875
,69.9678491,2.197265625
,70.0151607,2.1826171875
,70.0154087,2.1484375
,70.0466783,2.12890625
,70.0469132,2.0947265625
,70.0922396,2.060546875
,70.0927471,2.021484375
,70.108434,1.9873046875
,70.143846,1.953125
,70.1488754,1.904296875
,70.1856522,1.8701171875
,70.185966,1.826171875
,70.232653,1.8017578125
,70.2329472,1.7724609375
,70.2480302,1.7431640625
,70.2817183,1.708984375
,70.2865712,1.6748046875
,70.3251386,1.640625
,70.3470428,1.6064453125
,70.3473227,1.572265625
,70.3884229,1.5576171875
,70.3886235,1.5283203125
,70.4199857,1.5185546875
,70.42766,1.5087890625
,70.4670523,1.4892578125
,70.4673577,1.4697265625
,70.5149677,1.4501953125
,70.5153239,1.4404296875
,70.5339272,1.4111328125
,70.5484344,1.396484375
,70.5669314,1.3720703125
,70.5886991,1.3818359375
,70.6358279,1.38671875
,70.6361011,1.42578125
,70.6470025,1.46484375
,70.6834938,1.5234375
,70.7125797,1.5673828125
,70.7127805,1.630859375
,70.7260898,1.6796875
,70.7654431,1.767578125
,70.7705883,1.845703125
,70.788589,1.904296875
,70.8092325,1.982421875
,70.8291871,2.0361328125
,70.8777473,2.0947265625
,70.8781303,2.1435546875
,70.8911985,2.1875
,70.9072322,2.2021484375
,70.9286555,2.20703125
,70.9493085,2.2021484375
,70.9998505,2.1826171875
,71.0001778,2.1533203125
,71.0097425,2.12890625
,71.0454927,2.0947265625
,71.0481289,2.05078125
,71.0863016,2.0263671875
,71.0910995,1.9775390625
,71.1094265,1.89453125
,71.1282997,1.81640625
,71.1647594,1.826171875
,71.1674508,1.8017578125
,71.2186039,1.7822265625
,71.2188581,1.7529296875
,71.2307207,1.728515625
,71.2511656,1.6845703125
,71.2716272,1.66015625
,71.2873802,1.6162109375
,71.3263802,1.6064453125
,71.3267269,1.58203125
,71.3498784,1.5625
,71.388973,1.5234375
,71.3891731,1.513671875
,71.4256556,1.494140625
,71.4295726,1.4697265625
,71.4637075,1.4453125
,71.4841446,1.4208984375
,71.4866764,1.416015625
,71.5067579,1.396484375
,71.5412002,1.38671875
,71.5621996,1.3671875
,71.5709772,1.3623046875
,71.622844,1.3525390625
,71.6230447,1.3720703125
,71.6269927,1.4013671875
,71.66909,1.4794921875
,71.6693772,1.533203125
,71.7002878,1.5966796875
,71.7097269,1.6748046875
,71.7612512,1.728515625
,71.7615316,1.7919921875
,71.7714736,1.8505859375
,71.8072675,1.923828125
,71.807468,1.97265625
,71.8469064,2.0361328125
,71.867826,2.0703125
,71.8681859,2.1044921875
,71.904133,2.1044921875
,71.9324787,2.109375
,71.9327999,2.0849609375
,71.9507659,2.0654296875
,71.9719528,2.0361328125
,72.0088617,1.962890625
,72.0090588,1.943359375
,72.0297138,1.9384765625
,72.0718978,1.9189453125
,72.0722234,1.884765625
,72.0902343,1.85546875
,72.1320025,1.81640625
,72.1327055,1.7822265625
,72.1509369,1.7431640625
,72.184321,1.7138671875
,72.2049781,1.6796875
,72.2077474,1.66015625
,72.2467069,1.630859375
,72.2509083,1.6064453125
,72.2865996,1.5771484375
,72.2919596,1.5576171875
,72.3340344,1.5283203125
,72.3342542,1.50390625
,72.3517197,1.4794921875
,72.3706108,1.4501953125
,72.3891656,1.4404296875
,72.4272063,1.4306640625
,72.4306665,1.42578125
,72.4746676,1.4111328125
,72.4750139,1.396484375
,72.4909627,1.376953125
,72.5257456,1.3623046875
,72.5463198,1.337890625
,72.5494184,1.3427734375
,72.5861549,1.34765625
,72.6156361,1.38671875
,72.6158426,1.42578125
,72.6309527,1.4794921875
,72.6682614,1.5283203125
,72.6709268,1.6015625
,72.7080815,1.66015625
,72.708412,1.7138671875
,72.742689,1.7919921875
,72.7503611,1.85546875
,72.7693122,1.923828125
,72.8190462,1.97265625
,72.8192695,2.03125
,72.8405736,2.060546875
,72.8522936,2.080078125
,72.8978345,2.0751953125
,72.8981498,2.060546875
,72.9101207,2.041015625
,72.945738,2.0556640625
,72.9506808,2.041015625
,72.972301,2.0263671875
,73.021984,2.01171875
,73.0222312,1.97265625
,73.0315726,1.943359375
,73.0675832,1.8994140625
,73.0729965,1.8701171875
,73.0896786,1.826171875
,73.129295,1.8017578125
,73.1295416,1.7724609375
,73.1500694,1.748046875
,73.1885655,1.708984375
,73.1910071,1.6796875
,73.2274846,1.6455078125
,73.2344765,1.6162109375
,73.2503624,1.5869140625
,73.2866623,1.5771484375
,73.2911777,1.5478515625
,73.3280123,1.5380859375
,73.3318191,1.5185546875
,73.3685918,1.4990234375
,73.3709505,1.474609375
,73.4120162,1.455078125
,73.4123071,1.4306640625
,73.4308815,1.4111328125
,73.4502898,1.4208984375
,73.4852441,1.4111328125
,73.506214,1.4013671875
,73.5120051,1.38671875
,73.5471919,1.376953125
,73.5523967,1.3916015625
,73.5731822,1.4306640625
,73.5890999,1.4697265625
,73.6277976,1.5380859375
,73.6312173,1.611328125
,73.6514966,1.6552734375
,73.6722001,1.7236328125
,73.6914688,1.7822265625
,73.727646,1.8505859375
,73.7471205,1.904296875
,73.7540202,1.9677734375
,73.7744331,2.0068359375
,73.8160973,2.0556640625
,73.8163486,2.080078125
,73.829453,2.109375
,73.8688696,2.099609375
,73.8729431,2.0947265625
,73.9071736,2.0751953125
,73.9122334,2.060546875
,73.9330669,2.0263671875
,73.9670338,2.0166015625
,73.987824,1.9873046875
,73.9907279,1.953125
,74.0259101,1.9287109375
,74.0308204,1.8994140625
,74.0764826,1.865234375
,74.0767263,1.8310546875
,74.0942458,1.8017578125
,74.1394649,1.7626953125
,74.1399622,1.7333984375
,74.1520418,1.689453125
,74.1709955,1.669921875
,74.206366,1.640625
,74.2270285,1.6259765625
,74.2335954,1.5966796875
,74.2539276,1.5673828125
,74.2737526,1.5478515625
,74.3112559,1.5185546875
,74.3115773,1.494140625
,74.3571379,1.4697265625
,74.3573771,1.4697265625
,74.3726138,1.4501953125
,74.4181979,1.4404296875
,74.4184351,1.416015625
,74.433342,1.40625
,74.4675697,1.38671875
,74.4875845,1.38671875
,74.4955739,1.3720703125
,74.5153381,1.3330078125
,74.530891,1.3134765625
,74.5657438,1.3916015625
,74.5872304,1.46484375
,74.5941826,1.54296875
,74.6288711,1.6162109375
,74.6327444,1.6748046875
,74.668768,1.7431640625
,74.6884754,1.796875
,74.6940759,1.8701171875
,74.7122272,1.9189453125
,74.7312437,2.0068359375
,74.7701904,2.060546875
,74.7706013,2.1142578125
,74.8090187,2.12890625
,74.8305709,2.1337890625
,74.8358148,2.119140625
,74.8542453,2.109375
,74.8718104,2.0849609375
,74.892446,2.080078125
,74.9339368,2.0654296875
,74.9342537,2.03125
,74.9810074,2.001953125
,74.9812578,1.97265625
,74.9945833,1.953125
,75.0451305,1.9189453125
,75.0453803,1.8896484375
,75.0523097,1.845703125
,75.08636,1.826171875
,75.0938074,1.7919921875
,75.128887,1.7724609375
,75.1315588,1.73828125
,75.1711606,1.708984375
,75.201665,1.669921875
,75.2020581,1.640625
,75.2110912,1.5966796875
,75.2475111,1.5966796875
,75.2517493,1.5869140625
,75.2873289,1.5625
,75.2928022,1.54296875
,75.3396756,1.5185546875
,75.3400144,1.4990234375
,75.3555851,1.4794921875
,75.4030968,1.4599609375
,75.4033403,1.4404296875
,75.4164802,1.376953125
,75.4316476,1.376953125
,75.4671844,1.38671875
,75.4878995,1.3916015625
,75.4933638,1.42578125
,75.529725,1.4599609375
,75.5343719,1.513671875
,75.5770261,1.572265625
,75.5774216,1.6162109375
,75.5962065,1.669921875
,75.6110514,1.71875
,75.6479741,1.796875
,75.6690704,1.8603515625
,75.6760343,1.93359375
,75.6952828,1.9873046875
,75.7152757,2.041015625
,75.7351321,2.0703125
,75.7724011,2.109375
,75.7726874,2.1044921875
,75.794397,2.1142578125
,75.813565,2.099609375
,75.8339696,2.0849609375
,75.8712556,2.05078125
,75.8734916,2.0361328125
,75.909205,2.001953125
,75.9298999,1.9677734375
,75.9355741,1.93359375
,75.9524377,1.89453125
,75.997402,1.8701171875
,75.9976406,1.8408203125
,76.018109,1.8212890625
,76.0342535,1.7919921875
,76.0542463,1.7626953125
,76.0903662,1.7236328125
,76.1114384,1.6943359375
,76.1118335,1.6650390625
,76.1473255,1.6455078125
,76.1531249,1.62109375
,76.1994961,1.6015625
,76.2003857,1.5869140625
,76.2140496,1.5625
,76.2475626,1.533203125
,76.2691201,1.513671875
,76.2765807,1.4990234375
,76.2968649,1.474609375
,76.3404553,1.4599609375
,76.3407565,1.4404296875
,76.3542899,1.435546875
,76.4010953,1.4208984375
,76.4013398,1.4111328125
,76.4130094,1.396484375
,76.4644936,1.3916015625
,76.4648822,1.3916015625
,76.4951248,1.416015625
,76.4957112,1.4453125
,76.5131437,1.5283203125
,76.5492018,1.591796875
,76.5538038,1.650390625
,76.5899832,1.7138671875
,76.5948476,1.7724609375
,76.6361183,1.8359375
,76.6364487,1.89453125
,76.6828404,1.962890625
,76.6830787,2.01171875
,76.6936836,2.080078125
,76.7304603,2.1142578125
,76.735665,2.1337890625
,76.754772,2.1240234375
,76.7895901,2.119140625
,76.8097994,2.0947265625
,76.818301,2.080078125
,76.8368622,2.060546875
,76.8539455,2.03125
,76.8893171,2.01171875
,76.8943478,1.9775390625
,76.9297203,1.953125
,76.9370878,1.9140625
,76.9557112,1.8798828125
,76.9922816,1.8408203125
,76.9962186,1.8017578125
,77.0138715,1.767578125
,77.0355703,1.7578125
,77.0715468,1.7333984375
,77.0744483,1.71875
,77.1112258,1.689453125
,77.1137811,1.66015625
,77.1611416,1.6259765625
,77.1614071,1.611328125
,77.190355,1.5869140625
,77.1971129,1.5576171875
,77.2372732,1.5283203125
,77.2377767,1.4990234375
,77.2674913,1.4892578125
,77.2750436,1.4697265625
,77.3114221,1.46484375
,77.3164617,1.4501953125
,77.361184,1.435546875
,77.3615715,1.4111328125
,77.3788853,1.4013671875
,77.3945727,1.38671875
,77.4383995,1.40625
,77.4386476,1.4404296875
,77.4558924,1.4892578125
,77.5024418,1.552734375
,77.502832,1.591796875
,77.5331353,1.66015625
,77.5375821,1.71875
,77.5581659,1.796875
,77.5754558,1.8603515625
,77.6105968,1.9482421875
,77.6150257,2.0068359375
,77.6560499,2.0751953125
,77.6562896,2.1142578125
,77.6768884,2.158203125
,77.7138407,2.16796875
,77.7189001,2.1728515625
,77.7353988,2.1484375
,77.7705781,2.1435546875
,77.7731087,2.119140625
,77.8080924,2.1044921875
,77.8417748,2.080078125
,77.842031,2.0458984375
,77.8564413,2.0068359375
,77.9043957,1.9677734375
,77.9046452,1.923828125
,77.9189309,1.8798828125
,77.9397689,1.796875
,77.9560499,1.7236328125
,77.9996355,1.71875
,77.9998944,1.7041015625
,78.0165507,1.6845703125
,78.0511932,1.6552734375
,78.0732383,1.650390625
,78.0779645,1.62109375
,78.1245798,1.5966796875
,78.1250956,1.5771484375
,78.1365064,1.54296875
,78.1718925,1.533203125
,78.1753778,1.5087890625
,78.2112442,1.4990234375
,78.2164157,1.4697265625
,78.2502269,1.4599609375
,78.2704482,1.4306640625
,78.2774115,1.4111328125
,78.2954323,1.3818359375
,78.3312294,1.3916015625
,78.3360811,1.376953125
,78.373551,1.376953125
,78.3945264,1.3623046875
,78.3979104,1.357421875
,78.4372793,1.3525390625
,78.4376612,1.396484375
,78.4835759,1.4501953125
,78.48387,1.4990234375
,78.51372,1.572265625
,78.5139872,1.640625
,78.5493396,1.7138671875
,78.5692016,1.77734375
,78.5767818,1.8603515625
,78.6120713,1.923828125
,78.6326692,1.9921875
,78.6357545,2.041015625
,78.6710273,2.109375
,78.6765997,2.1435546875
,78.7133631,2.1728515625
,78.7154762,2.16796875
,78.7526884,2.1533203125
,78.7774798,2.1337890625
,78.777687,2.099609375
,78.8138452,2.060546875
,78.8391582,2.0263671875
,78.8394611,1.9921875
,78.8574896,1.943359375
,78.9004292,1.9140625
,78.9006733,1.8798828125
,78.9186146,1.845703125
,78.9631911,1.8017578125
,78.963445,1.767578125
,78.9792078,1.7236328125
,79.013454,1.6943359375
,79.0339879,1.6552734375
,79.0344484,1.630859375
,79.0723608,1.6015625
,79.077754,1.611328125
,79.0985234,1.6015625
,79.1342816,1.572265625
,79.1547113,1.552734375
,79.1600815,1.5283203125
,79.1966423,1.5087890625
,79.196889,1.4794921875
,79.2164488,1.474609375
,79.2378517,1.4599609375
,79.2728615,1.4453125
,79.2772048,1.42578125
,79.312317,1.4111328125
,79.3334677,1.38671875
,79.3403637,1.38671875
,79.3562647,1.3671875
,79.4027297,1.3720703125
,79.403122,1.38671875
,79.4175748,1.4013671875
,79.4635081,1.435546875
,79.4638172,1.484375
,79.4784644,1.5478515625
,79.5270045,1.591796875
,79.5273959,1.6552734375
,79.5363454,1.7138671875
,79.5726293,1.7919921875
,79.5759539,1.85546875
,79.6108981,1.9384765625
,79.6310362,1.9921875
,79.6380055,2.05078125
,79.6813435,2.08984375
,79.6815802,2.119140625
,79.6990201,2.1142578125
,79.7342384,2.1142578125
,79.7598398,2.08984375
,79.7602252,2.0556640625
,79.7780218,2.0458984375
,79.8123713,2.0263671875
,79.8340288,1.9873046875
,79.8395818,1.953125
,79.8599825,1.9189453125
,79.89694,1.8798828125
,79.9024802,1.8408203125
,79.9184159,1.796875
,79.9601409,1.7724609375
,79.9603806,1.73828125
,79.9799122,1.7138671875
,80.0228915,1.6748046875
,80.0232857,1.6455078125
,80.0413873,1.62109375
,80.083098,1.58203125
,80.0833536,1.5576171875
,80.0963463,1.5283203125
,80.1331454,1.5234375
,80.1384136,1.5087890625
,80.1788581,1.4892578125
,80.1791111,1.4697265625
,80.2134075,1.4599609375
,80.2341841,1.4306640625
,80.2420669,1.4208984375
,80.2592101,1.3916015625
,80.3038019,1.3916015625
,80.3044026,1.376953125
,80.3197026,1.376953125
,80.3554873,1.34765625
,80.3605197,1.357421875
,80.410266,1.3671875
,80.4105137,1.38671875
,80.4195312,1.435546875
,80.4377769,1.484375
,80.4576001,1.5625
,80.4924138,1.6259765625
,80.5125959,1.6943359375
,80.5179831,1.7578125
,80.5551025,1.8212890625
,80.5599878,1.89453125
,80.5943316,1.962890625
,80.6146327,2.021484375
,80.6210434,2.080078125
,80.638852,2.1142578125
,80.6757978,2.1435546875
,80.682305,2.1630859375
,80.6999631,2.1435546875
,80.7358607,2.12890625
,80.7406844,2.099609375
,80.7604578,2.080078125
,80.7952031,2.041015625
,80.8153832,2.01171875
,80.8177683,1.962890625
,80.8620747,1.9384765625
,80.8623149,1.904296875
,80.878794,1.8701171875
,80.9152939,1.826171875
,80.9212458,1.7919921875
,80.971996,1.7529296875
,80.9723915,1.71875
,80.9794602,1.6748046875
,80.998051,1.6552734375
,81.0331616,1.6357421875
,81.0388941,1.5966796875
,81.0803842,1.572265625
,81.0806226,1.54296875
,81.1149082,1.5185546875
,81.1211098,1.494140625
,81.1604596,1.484375
,81.1608502,1.4697265625
,81.190059,1.46484375
,81.1996394,1.455078125
,81.2354931,1.4453125
,81.2382167,1.4208984375
,81.2739024,1.4111328125
,81.3023513,1.3916015625
,81.3025892,1.3720703125
,81.3503027,1.3720703125
,81.3508703,1.3525390625
,81.362114,1.30859375
,81.3805631,1.2890625
,81.4268185,1.3818359375
,81.4272169,1.4501953125
,81.4417804,1.533203125
,81.4889128,1.5966796875
,81.4891649,1.6748046875
,81.5036566,1.73828125
,81.522764,1.81640625
,81.5398776,1.875
,81.5823985,1.953125
,81.5828009,2.021484375
,81.6006318,2.0751953125
,81.6423392,2.109375
,81.6427343,2.1484375
,81.6618354,2.1484375
,81.7025942,2.12890625
,81.7029983,2.109375
,81.7192946,2.080078125
,81.756336,2.060546875
,81.7589569,2.03125
,81.7931563,2.001953125
,81.8238957,1.9580078125
,81.8242874,1.9189453125
,81.8432316,1.875
,81.8622647,1.8310546875
,81.879644,1.787109375
,81.9173921,1.767578125
,81.93777,1.728515625
,81.9401324,1.69921875
,81.9726946,1.6845703125
,81.9939904,1.6455078125
,82.0010697,1.6162109375
,82.0413866,1.58203125
,82.0416319,1.5576171875
,82.061779,1.5234375
,82.0802434,1.513671875
,82.0992755,1.4892578125
,82.1339423,1.4794921875
,82.1547382,1.455078125
,82.1603597,1.4599609375
,82.1971881,1.435546875
,82.2177017,1.42578125
,82.2246129,1.4111328125
,82.2608524,1.3525390625
,82.2612441,1.3427734375
,82.3052599,1.357421875
,82.3055049,1.3623046875
,82.3219907,1.3525390625
,82.3680138,1.357421875
,82.3685826,1.3720703125
,82.3840909,1.4208984375
,82.4204785,1.46484375
,82.4228375,1.5234375
,82.4395497,1.5771484375
,82.4777045,1.6455078125
,82.4825778,1.7138671875
,82.5007278,1.7822265625
,82.5365842,1.845703125
,82.5571914,1.9091796875
,82.5623494,1.962890625
,82.5990038,2.01171875
,82.6026677,2.060546875
,82.6196673,2.0751953125
,82.6543255,2.099609375
,82.6751213,2.0947265625
,82.6818787,2.0947265625
,82.7222541,2.0703125
,82.7225048,2.0556640625
,82.757057,2.021484375
,82.777442,1.9921875
,82.7807169,1.9482421875
,82.8173153,1.9287109375
,82.8223073,1.8896484375
,82.8626679,1.8603515625
,82.8629072,1.826171875
,82.8990348,1.7919921875
,82.9019535,1.748046875
,82.9405875,1.7236328125
,82.9711499,1.689453125
,82.9713861,1.6552734375
,82.9811851,1.640625
,83.0155803,1.6162109375
,83.0499338,1.591796875
,83.0501735,1.5625
,83.063181,1.5380859375
,83.0827998,1.513671875
,83.1216461,1.4892578125
,83.1220412,1.4599609375
,83.159389,1.4404296875
,83.1597898,1.416015625
,83.1961769,1.42578125
,83.2021451,1.4208984375
,83.2218523,1.4111328125
,83.2674699,1.4111328125
,83.267864,1.3916015625
,83.2831923,1.38671875
,83.3181796,1.3671875
,83.3397382,1.3671875
,83.3401631,1.3720703125
,83.3769422,1.4208984375
,83.3977671,1.4599609375
,83.4025764,1.5185546875
,83.453917,1.5673828125
,83.4542965,1.640625
,83.4650948,1.6796875
,83.4993238,1.7431640625
,83.4995653,1.796875
,83.5315798,1.865234375
,83.5521195,1.9140625
,83.5625211,1.9775390625
,83.5823218,2.0166015625
,83.6167834,2.0361328125
,83.6376485,2.0458984375
,83.6448943,2.0361328125
,83.6856522,2.021484375
,83.6860438,2.0068359375
,83.7028202,2.0068359375
,83.723676,1.9873046875
,83.7587342,1.9677734375
,83.7644471,1.943359375
,83.8010414,1.9091796875
,83.804053,1.875
,83.841631,1.8408203125
,83.8418758,1.8017578125
,83.8618601,1.787109375
,83.8864064,1.7724609375
,83.9032903,1.6796875
,83.9225673,1.669921875
,83.9573354,1.6455078125
,83.9788754,1.6357421875
,83.9861819,1.6064453125
,84.0043708,1.5869140625
,84.0397059,1.5576171875
,84.0447785,1.5380859375
,84.0622099,1.50390625
,84.0951277,1.4990234375
,84.118382,1.474609375
,84.1228989,1.4697265625
,84.1597157,1.4501953125
,84.164964,1.4306640625
,84.2132203,1.4111328125
,84.2135469,1.4111328125
,84.2256208,1.396484375
,84.2417085,1.3720703125
,84.2760509,1.3818359375
,84.2968157,1.3818359375
,84.3039313,1.40625
,84.3422379,1.4404296875
,84.3439394,1.494140625
,84.3818858,1.533203125
,84.3878401,1.5869140625
,84.4021972,1.6357421875
,84.4463618,1.6943359375
,84.4467542,1.7529296875
,84.4636354,1.8212890625
,84.5072979,1.8701171875
,84.5077013,1.923828125
,84.5241946,1.982421875
,84.5449795,2.0068359375
,84.5790223,2.0263671875
,84.5994968,2.0263671875
,84.6025366,2.041015625
,84.6456869,2.0263671875
,84.6458881,2.0263671875
,84.6644628,2.001953125
,84.7073169,1.982421875
,84.7076923,1.9580078125
,84.7268839,1.943359375
,84.7455423,1.904296875
,84.7661009,1.8408203125
,84.7847469,1.7724609375
,84.8199579,1.7822265625
,84.8231486,1.767578125
,84.8637838,1.7626953125
,84.8943192,1.7431640625
,84.8947084,1.7138671875
,84.9053961,1.69921875
,84.9422542,1.6650390625
,84.9470925,1.640625
,84.9635338,1.6064453125
,85.0022601,1.6015625
,85.0026523,1.58203125
,85.0504482,1.5576171875
,85.0508299,1.5380859375
,85.0666428,1.5185546875
,85.1117948,1.494140625
,85.1122043,1.474609375
,85.1215442,1.455078125
,85.1602357,1.4404296875
,85.1894234,1.4404296875
,85.1897233,1.4208984375
,85.2033676,1.4111328125
,85.2400259,1.4013671875
,85.2608941,1.42578125
,85.2655846,1.4404296875
,85.2999227,1.4892578125
,85.3200253,1.5283203125
,85.3229375,1.5966796875
,85.3634844,1.650390625
,85.3928442,1.7138671875
,85.3935576,1.7529296875
,85.4058024,1.8115234375
,85.4433562,1.85546875
,85.4478326,1.9091796875
,85.4621795,1.9482421875
,85.4967226,2.021484375
,85.5173576,2.0654296875
,85.5254141,2.0849609375
,85.5459946,2.0947265625
,85.5800056,2.0849609375
,85.5860254,2.0703125
,85.6235228,2.0458984375
,85.6278526,2.03125
,85.6463057,2.001953125
,85.6801546,1.9287109375
,85.6998926,1.9091796875
,85.7020818,1.904296875
,85.753016,1.8798828125
,85.7534088,1.8701171875
,85.7828658,1.8408203125
,85.7877632,1.81640625
,85.8068071,1.787109375
,85.8283728,1.7529296875
,85.8759263,1.7236328125
,85.8761639,1.689453125
,85.8834419,1.6796875
,85.919072,1.6455078125
,85.9389302,1.6259765625
,85.9476461,1.5966796875
,85.9667597,1.5673828125
,86.0023549,1.54296875
,86.0069867,1.5283203125
,86.0222851,1.50390625
,86.0573854,1.4990234375
,86.0770601,1.484375
,86.0869414,1.46484375
,86.1049926,1.4404296875
,86.1421459,1.4306640625
,86.1453185,1.416015625
,86.1887823,1.396484375
,86.1891731,1.396484375
,86.2193495,1.4013671875
,86.2247493,1.4501953125
,86.2641097,1.494140625
,86.2643644,1.5625
,86.3009476,1.611328125
,86.3266988,1.6650390625
,86.3269602,1.7138671875
,86.3631105,1.7724609375
,86.3633568,1.8115234375
,86.3981985,1.884765625
,86.41988,1.9287109375
,86.424638,1.97265625
,86.4662511,2.0166015625
,86.4664946,2.03125
,86.4888128,2.03125
,86.5301372,2.021484375
,86.5303903,2.0166015625
,86.5643219,1.9921875
,86.5669691,1.9873046875
,86.6018076,1.953125
,86.6035144,1.943359375
,86.640209,1.9140625
,86.66068,1.8994140625
,86.6655843,1.865234375
,86.7031179,1.8408203125
,86.7339763,1.806640625
,86.7342182,1.77734375
,86.7455878,1.7431640625
,86.7652478,1.73828125
,86.8104459,1.7236328125
,86.8106975,1.6943359375
,86.8279107,1.6748046875
,86.8462911,1.6455078125
,86.8822728,1.62109375
,86.8881864,1.5966796875
,86.923379,1.572265625
,86.923621,1.5478515625
,86.9590363,1.5380859375
,86.9804542,1.5234375
,86.9872728,1.5087890625
,87.0236238,1.4892578125
,87.0266333,1.474609375
,87.0772505,1.4599609375
,87.0774885,1.4453125
,87.0980548,1.4453125
,87.1044426,1.4208984375
,87.1423053,1.4208984375
,87.1453705,1.4208984375
,87.186939,1.4453125
,87.1873496,1.474609375
,87.2325786,1.5234375
,87.2328148,1.5673828125
,87.248638,1.6162109375
,87.2631576,1.6650390625
,87.3097147,1.7529296875
,87.3100169,1.8115234375
,87.3314063,1.8896484375
,87.3471491,1.9384765625
,87.3896093,2.0068359375
,87.3898542,2.041015625
,87.408547,2.08984375
,87.4290433,2.109375
,87.4658184,2.099609375
,87.4689861,2.0947265625
,87.4858874,2.080078125
,87.52274,2.0751953125
,87.5277451,2.0654296875
,87.5629891,2.05078125
,87.5691801,2.03125
,87.6044,2.001953125
,87.609108,1.97265625
,87.6452255,1.9384765625
,87.6455569,1.9091796875
,87.6819507,1.884765625
,87.7157075,1.85546875
,87.7159532,1.826171875
,87.726515,1.806640625
,87.7653251,1.7724609375
,87.7945739,1.73828125
,87.7948255,1.7041015625
,87.8101514,1.6845703125
,87.826868,1.650390625
,87.8717222,1.640625
,87.8719768,1.611328125
,87.885854,1.5966796875
,87.9205309,1.5673828125
,87.9414325,1.5478515625
,87.9496979,1.513671875
,87.9974846,1.494140625
,87.9977243,1.4697265625
,88.0063686,1.4599609375
,88.043678,1.4404296875
,88.0467143,1.4404296875
,88.0820571,1.4306640625
,88.089331,1.4111328125
,88.1238812,1.40625
,88.1434328,1.416015625
,88.1478718,1.455078125
,88.1689789,1.4892578125
,88.19016,1.4892578125
,88.2065908,1.4990234375
,88.2435203,1.591796875
,88.2490639,1.669921875
,88.2951257,1.748046875
,88.2955195,1.8115234375
,88.3095933,1.89453125
,88.3468321,1.953125
,88.3501853,2.01171875
,88.4020629,2.0654296875
,88.4023815,2.0849609375
,88.4078009,2.1044921875
,88.4448813,2.099609375
,88.4650328,2.08984375
,88.4706983,2.0654296875
,88.5107955,2.0458984375
,88.5111858,2.0166015625
,88.546135,1.9921875
,88.5463729,1.9580078125
,88.5835175,1.943359375
,88.5859508,1.9140625
,88.6241331,1.884765625
,88.6442922,1.85546875
,88.6492605,1.8212890625
,88.6975624,1.77734375
,88.6978044,1.7431640625
,88.7105894,1.708984375
,88.7265916,1.669921875
,88.7621734,1.66015625
,88.782505,1.630859375
,88.7896074,1.611328125
,88.8238843,1.58203125
,88.8288611,1.5625
,88.8660357,1.5283203125
,88.8685808,1.50390625
,88.8891604,1.474609375
,88.9082837,1.46484375
,88.9279302,1.4501953125
,88.9650528,1.4453125
,88.9694746,1.4306640625
,89.0102966,1.416015625
,89.0105479,1.40625
,89.0581943,1.376953125
,89.0585856,1.3671875
,89.0789116,1.357421875
,89.091392,1.3720703125
,89.1097085,1.396484375
,89.1287476,1.4599609375
,89.1642432,1.5087890625
,89.1696257,1.5771484375
,89.2158292,1.62109375
,89.2160693,1.6845703125
,89.2319497,1.7333984375
,89.2785538,1.796875
,89.2788065,1.8505859375
,89.2898967,1.923828125
,89.3261086,1.9775390625
,89.3307715,2.05078125
,89.367551,2.0947265625
,89.3678124,2.1044921875
,89.4177514,2.1044921875
,89.41799,2.0849609375
,89.4493812,2.0654296875
,89.4499501,2.041015625
,89.4685881,2.03125
,89.5031501,2.001953125
,89.5231247,1.97265625
,89.5288681,1.9384765625
,89.5652024,1.9091796875
,89.5703703,1.8701171875
,89.6040443,1.8408203125
,89.6249294,1.8017578125
,89.6278398,1.77734375
,89.6642697,1.7578125
,89.6690435,1.728515625
,89.7063015,1.69921875
,89.7117225,1.6650390625
,89.7307263,1.640625
,89.7737494,1.6015625
,89.7739958,1.5771484375
,89.7883947,1.54296875
,89.8366984,1.533203125
,89.8372803,1.5087890625
,89.8501942,1.50390625
,89.8695645,1.474609375
,89.9151338,1.46484375
,89.9155321,1.4453125
,89.9446824,1.4306640625
,89.9504446,1.396484375
,89.9921641,1.3916015625
,89.9924017,1.3720703125
,90.0224602,1.357421875
,90.0276792,1.3525390625
,90.051032,1.3671875
,90.0707786,1.40625
,90.114855,1.4501953125
,90.1151058,1.513671875
,90.135798,1.5625
,90.1527972,1.62109375
,90.1680704,1.669921875
,90.2044586,1.7431640625
,90.2095794,1.806640625
,90.2546981,1.8701171875
,90.2549418,1.923828125
,90.2712617,1.982421875
,90.3176704,2.03125
,90.3179499,2.05078125
,90.3316383,2.0654296875
,90.3504557,2.060546875
,90.3843766,2.0751953125
,90.3899718,2.0654296875
,90.4252821,2.0556640625
,90.4296311,2.0361328125
,90.4630499,2.0166015625
,90.4838011,1.982421875
,90.492152,1.953125
,90.5079146,1.9140625
,90.5438555,1.89453125
,90.5665229,1.865234375
,90.5712581,1.8359375
,90.6061479,1.796875
,90.6113917,1.7724609375
,90.6589866,1.73828125
,90.6593768,1.6943359375
,90.6728751,1.6650390625
,90.6890042,1.630859375
,90.7351476,1.611328125
,90.735393,1.5283203125
,90.7558981,1.533203125
,90.7720918,1.513671875
,90.8094681,1.4990234375
,90.8098616,1.4697265625
,90.8471402,1.4453125
,90.8667912,1.416015625
,90.8744673,1.4013671875
,90.8907406,1.3720703125
,90.9259689,1.357421875
,90.9286956,1.357421875
,90.9689982,1.3330078125
,90.9911611,1.328125
,90.9915535,1.337890625
,91.0268044,1.3818359375
,91.0326914,1.416015625
,91.053657,1.4697265625
,91.0700843,1.513671875
,91.1043914,1.5771484375
,91.1249429,1.630859375
,91.1303331,1.6943359375
,91.1705896,1.7431640625
,91.1708476,1.796875
,91.2174173,1.8408203125
,91.2177301,1.875
,91.2380697,1.8896484375
,91.2510738,1.9189453125
,91.2868027,1.9189453125
,91.2918544,1.904296875
,91.3414298,1.8994140625
,91.3418166,1.8798828125
,91.3522965,1.8603515625
,91.388058,1.8359375
,91.3931079,1.8310546875
,91.4106526,1.8115234375
,91.4491549,1.806640625
,91.4494047,1.787109375
,91.482741,1.767578125
,91.5027183,1.73828125
,91.5119916,1.7138671875
,91.5464094,1.6845703125
,91.5749154,1.66015625
,91.5752717,1.650390625
,91.5951993,1.6162109375
,91.630583,1.5625
,91.6309661,1.5576171875
,91.6635456,1.5771484375
,91.6842347,1.5625
,91.694175,1.552734375
,91.7137002,1.5283203125
,91.7483588,1.5185546875
,91.7540403,1.4892578125
,91.7956576,1.474609375
,91.7959073,1.4453125
,91.8121654,1.4501953125
,91.8467006,1.4306640625
,91.8512083,1.42578125
,91.8876426,1.4111328125
,91.8930403,1.4306640625
,91.9302524,1.4697265625
,91.9358616,1.5087890625
,91.9556198,1.552734375
,91.9707111,1.6015625
,92.0062952,1.669921875
,92.0264282,1.728515625
,92.0313339,1.796875
,92.0770649,1.85546875
,92.0773033,1.9189453125
,92.1085554,1.9775390625
,92.1151698,2.03125
,92.1320174,2.060546875
,92.1519836,2.0849609375
,92.2011077,2.08984375
,92.2013655,2.080078125
,92.2118385,2.0654296875
,92.2476369,2.021484375
,92.2683354,1.9873046875
,92.2738126,1.9384765625
,92.3154326,1.904296875
,92.315826,1.8505859375
,92.3326235,1.8310546875
,92.3777413,1.7919921875
,92.3781525,1.7724609375
,92.3945229,1.7333984375
,92.4389216,1.708984375
,92.4391619,1.6748046875
,92.4543883,1.6455078125
,92.4859904,1.611328125
,92.508316,1.58203125
,92.5110828,1.5478515625
,92.5487448,1.54296875
,92.5705582,1.533203125
,92.5708619,1.5087890625
,92.6072322,1.494140625
,92.6128599,1.4697265625
,92.6492735,1.4501953125
,92.6542139,1.4306640625
,92.6899056,1.416015625
,92.7096771,1.396484375
,92.7120419,1.4013671875
,92.7501043,1.3916015625
,92.75539,1.3916015625
,92.7963368,1.3916015625
,92.7967623,1.4208984375
,92.8147706,1.4501953125
,92.8498812,1.4990234375
,92.856203,1.552734375
,92.87267,1.5771484375
,92.8928396,1.6357421875
,92.9295268,1.6748046875
,92.9351319,1.728515625
,92.9529627,1.767578125
,92.9967832,1.8115234375
,92.9970214,1.8408203125
,93.0166061,1.875
,93.032141,1.884765625
,93.0697071,1.904296875
,93.0741254,1.8994140625
,93.1223113,1.89453125
,93.1226293,1.8896484375
,93.133729,1.884765625
,93.15479,1.865234375
,93.1989666,1.85546875
,93.1993556,1.8408203125
,93.2128345,1.81640625
,93.233355,1.806640625
,93.2530931,1.7919921875
,93.2904311,1.77734375
,93.295465,1.748046875
,93.3407396,1.728515625
,93.3409767,1.69921875
,93.3546327,1.6796875
,93.4022771,1.650390625
,93.4025195,1.630859375
,93.4232114,1.6064453125
,93.4325922,1.611328125
,93.468574,1.5966796875
,93.4734884,1.591796875
,93.5092525,1.58203125
,93.5301682,1.552734375
,93.5352433,1.5380859375
,93.574679,1.5185546875
,93.5749169,1.4990234375
,93.5952728,1.474609375
,93.6109347,1.4697265625
,93.6474968,1.4501953125
,93.6677238,1.4501953125
,93.6752462,1.4453125
,93.714069,1.4697265625
,93.714462,1.50390625
,93.7481415,1.5478515625
,93.7683546,1.572265625
,93.7736882,1.6162109375
,93.8080289,1.640625
,93.8141547,1.6845703125
,93.8565054,1.71875
,93.8567558,1.73828125
,93.8746143,1.767578125
,93.9201648,1.7822265625
,93.9204069,1.8017578125
,93.9509728,1.81640625
,93.9512164,1.8310546875
,93.9853454,1.8310546875
,94.0052129,1.826171875
,94.0156228,1.806640625
,94.0511038,1.796875
,94.053879,1.7822265625
,94.0918284,1.767578125
,94.1220361,1.7431640625
,94.122278,1.73828125
,94.1370304,1.6796875
,94.1544374,1.6162109375
,94.1742319,1.630859375
,94.2140298,1.6259765625
,94.2143962,1.630859375
,94.2349879,1.6162109375
,94.2761587,1.6064453125
,94.2764008,1.591796875
,94.2958791,1.58203125
,94.3147642,1.552734375
,94.3349082,1.552734375
,94.3683998,1.5380859375
,94.3904344,1.533203125
,94.3953793,1.513671875
,94.4467936,1.50390625
,94.4471883,1.4794921875
,94.4568697,1.4794921875
,94.4928615,1.474609375
,94.4931028,1.4599609375
,94.5286173,1.4599609375
,94.5354177,1.455078125
,94.5873222,1.4453125
,94.5876682,1.4501953125
,94.5967035,1.484375
,94.6323015,1.5185546875
,94.6363776,1.552734375
,94.6706157,1.5771484375
,94.6743202,1.62109375
,94.7260326,1.650390625
,94.7264422,1.6796875
,94.7340528,1.7041015625
,94.7706637,1.7236328125
,94.8051989,1.7529296875
,94.8056166,1.7626953125
,94.8176448,1.7724609375
,94.8331637,1.77734375
,94.868535,1.7919921875
,94.8883243,1.7822265625
,94.8954416,1.7822265625
,94.9460985,1.7626953125
,94.9463479,1.7626953125
,94.9572447,1.748046875
,94.9782038,1.748046875
,94.9977374,1.7333984375
,95.0197618,1.6845703125
,95.0356245,1.6357421875
,95.0724453,1.6650390625
,95.0771376,1.6650390625
,95.1130428,1.6748046875
,95.1175672,1.6748046875
,95.153608,1.66015625
,95.1560826,1.650390625
,95.1909333,1.630859375
,95.2118543,1.62109375
,95.2148156,1.5966796875
,95.2509389,1.5966796875
,95.2560024,1.5869140625
,95.2748972,1.5771484375
,95.3105974,1.5673828125
,95.3329894,1.5576171875
,95.3374553,1.54296875
,95.3742098,1.533203125
,95.3744495,1.513671875
,95.4109739,1.50390625
,95.4158156,1.50390625
,95.458636,1.484375
,95.4589166,1.474609375
,95.4942156,1.4990234375
,95.4971031,1.5478515625
,95.5351076,1.58203125
,95.5420127,1.6162109375
,95.5556228,1.640625
,95.5901171,1.6748046875
,95.6105315,1.6943359375
,95.6158163,1.7236328125
,95.6527433,1.7333984375
,95.6557484,1.7529296875
,95.6925668,1.7626953125
,95.6982585,1.7724609375
,95.7150474,1.7626953125
,95.7493323,1.7919921875
,95.7704105,1.796875
,95.775558,1.7822265625
,95.811339,1.767578125
,95.8172042,1.748046875
,95.8627062,1.73828125
,95.8630579,1.7236328125
,95.8823408,1.7236328125
,95.8979613,1.708984375
,95.9405083,1.6943359375
,95.9408285,1.6748046875
,95.9621228,1.6748046875
,95.9766161,1.669921875
,96.0196276,1.669921875
,96.0200612,1.66015625
,96.0512474,1.6455078125
,96.0579745,1.6455078125
,96.0792015,1.62109375
,96.1143942,1.6162109375
,96.1423918,1.5966796875
,96.1426981,1.6064453125
,96.1571728,1.591796875
,96.2034889,1.5869140625
,96.2038811,1.5771484375
,96.2196557,1.572265625
,96.2641654,1.5576171875
,96.2644184,1.552734375
,96.2747712,1.533203125
,96.3107904,1.533203125
,96.3162301,1.5234375
,96.3575377,1.5185546875
,96.3578563,1.4990234375
,96.4049733,1.50390625
,96.4052829,1.5087890625
,96.4194178,1.5234375
,96.4664296,1.5576171875
,96.4668381,1.5869140625
,96.475807,1.6259765625
,96.5120214,1.6552734375
,96.5170196,1.69921875
,96.5622402,1.71875
,96.5631322,1.73828125
,96.5790531,1.7529296875
,96.6141207,1.7578125
,96.6145076,1.7626953125
,96.6539161,1.7919921875
,96.6740812,1.8017578125
,96.6785999,1.796875
,96.6986208,1.7919921875
,96.7335881,1.7724609375
,96.7377188,1.7626953125
,96.7789297,1.7431640625
,96.7793589,1.73828125
,96.8244643,1.71875
,96.8247078,1.708984375
,96.8354414,1.689453125
,96.8742512,1.689453125
,96.8796282,1.6748046875
,96.9199323,1.6748046875
,96.9202756,1.6552734375
,96.9401192,1.6455078125
,96.9831852,1.6259765625
,96.9836287,1.6162109375
,96.996984,1.591796875
,97.0451372,1.6064453125
,97.0454129,1.6015625
,97.0573753,1.5869140625
,97.0919186,1.58203125
,97.1132537,1.5673828125
,97.1203599,1.552734375
,97.1706906,1.54296875
,97.1710106,1.5380859375
,97.1774846,1.533203125
,97.1968741,1.5283203125
,97.2485098,1.5234375
,97.2487756,1.5185546875
,97.2583184,1.513671875
,97.3088337,1.5185546875
,97.3092743,1.5087890625
,97.3208955,1.513671875
,97.3550996,1.5478515625
,97.3553634,1.5673828125
,97.3895205,1.6162109375
,97.4106126,1.6455078125
,97.4187374,1.6796875
,97.4547647,1.69921875
,97.4578743,1.7236328125
,97.4798339,1.7333984375
,97.4997259,1.7529296875
,97.5173027,1.7626953125
,97.5654506,1.806640625
,97.5663403,1.7626953125
,97.5783121,1.796875
,97.6157849,1.796875
,97.6206513,1.8017578125
,97.6401641,1.7822265625
,97.6904375,1.787109375
,97.6908274,1.7822265625
,97.7018906,1.7626953125
,97.7531918,1.7529296875
,97.7537674,1.7333984375
,97.7585879,1.7333984375
,97.7782464,1.7236328125
,97.8178589,1.7236328125
,97.8182444,1.708984375
,97.8655183,1.6943359375
,97.8658954,1.6748046875
,97.8813669,1.6650390625
,97.8972173,1.650390625
,97.9326974,1.66015625
,97.9388922,1.650390625
,97.9586164,1.6455078125
,97.9966584,1.650390625
,97.9986608,1.6357421875
,98.0348893,1.6259765625
,98.0553037,1.6162109375
,98.062232,1.611328125
,98.0761742,1.6015625
,98.1112401,1.6064453125
,98.132209,1.5966796875
,98.1400447,1.591796875
,98.1595524,1.5771484375
,98.1938889,1.58203125
,98.2156638,1.5673828125
,98.2225748,1.5673828125
,98.2367875,1.5673828125
,98.2736019,1.591796875
,98.2780815,1.6259765625
,98.3146131,1.6748046875
,98.3179336,1.708984375
,98.3532888,1.7236328125
,98.3749046,1.7529296875
,98.3817449,1.7724609375
,98.4230399,1.787109375
,98.4234341,1.8017578125
,98.4694482,1.7822265625
,98.4698352,1.806640625
,98.4786543,1.845703125
,98.5128885,1.865234375
,98.5328149,1.8701171875
,98.5401973,1.865234375
,98.5748632,1.865234375
,98.5958407,1.8603515625
,98.6019272,1.845703125
,98.6405554,1.845703125
,98.6407925,1.826171875
,98.6619983,1.8359375
,98.6796914,1.826171875
,98.7215735,1.8310546875
,98.7219593,1.81640625
,98.7580308,1.8115234375
,98.7633251,1.796875
,98.7836594,1.7822265625
,98.79854,1.7578125
,98.8189802,1.767578125
,98.8398852,1.7529296875
,98.8918622,1.748046875
,98.8922096,1.7333984375
,98.9022509,1.728515625
,98.9210852,1.708984375
,98.9571902,1.708984375
,98.9781065,1.6943359375
,98.9786551,1.6748046875
,99.0175543,1.669921875
,99.017805,1.6650390625
,99.0511864,1.650390625
,99.071893,1.640625
,99.0818142,1.6357421875
,99.1240647,1.6259765625
,99.1243925,1.6162109375
,99.1378863,1.6015625
,99.1736485,1.6015625
,99.2020204,1.611328125
,99.2022663,1.6455078125
,99.217786,1.6748046875
,99.2556732,1.7041015625
,99.2617992,1.73828125
,99.2967387,1.7578125
,99.3172723,1.787109375
,99.3227836,1.8017578125
,99.3709773,1.8359375
,99.3712953,1.8505859375
,99.3807824,1.8896484375
,99.4195754,1.9091796875
,99.4198562,1.9384765625
,99.465295,1.943359375
,99.4655319,1.962890625
,99.4819688,1.953125
,99.5204267,1.9482421875
,99.5208151,1.93359375
,99.5562316,1.9384765625
