fs,t,y
50.44753633851009,0.6567843999999998,0.810546875
,0.7080478000000001,0.8349609375
,0.708412,0.9326171875
,0.7180393999999999,1.1328125
,0.7363216000000001,1.3623046875
,0.7732177999999998,1.6357421875
,0.7778379000000002,1.8798828125
,0.8125477999999999,2.109375
,0.8183490999999998,2.314453125
,0.8371628000000002,2.4951171875
,0.8770996000000002,2.6611328125
,0.9071954999999998,2.7978515625
,0.9075837999999998,2.9052734375
,0.9168671000000002,2.9541015625
,0.9516287000000001,2.96875
,0.9569817,2.9345703125
,0.9913919999999998,2.8662109375
,0.9967104999999998,2.79296875
,1.0339386,2.705078125
,1.0395444,2.6171875
,1.0766209999999998,2.5244140625
,1.0775703,2.431640625
,1.1132374,2.333984375
,1.1167873,2.24609375
,1.1534825999999998,2.1484375
,1.1583226999999998,2.05078125
,1.2038479,1.9580078125
,1.2042587999999999,1.8701171875
,1.2181487999999998,1.7724609375
,1.2650936000000002,1.6845703125
,1.2654656000000002,1.591796875
,1.2873363000000002,1.484375
,1.2968172999999998,1.40625
,1.3443629000000001,1.3037109375
,1.3449510999999998,1.23046875
,1.3567382000000001,1.142578125
,1.4052790000000002,1.07421875
,1.4056798000000001,1.0107421875
,1.4259559999999998,0.947265625
,1.4392103,0.9033203125
,1.4603081000000002,0.83984375
,1.4773310999999998,0.78125
,1.4972275000000002,0.6689453125
,1.5336249999999998,0.6396484375
,1.560638,0.673828125
,1.5610129000000001,0.80078125
,1.5789353,1.0302734375
,1.6154213999999998,1.30859375
,1.6182973999999999,1.5966796875
,1.6535047999999999,1.85546875
,1.655535,2.0751953125
,1.6895256,2.255859375
,1.7102498000000002,2.431640625
,1.7172383999999998,2.578125
,1.7641969,2.7001953125
,1.7645771,2.7880859375
,1.7942300000000002,2.8173828125
,1.7992276,2.802734375
,1.8173542999999999,2.7490234375
,1.8531076,2.685546875
,1.8566004999999999,2.6025390625
,1.8926922,2.5146484375
,1.9132354999999999,2.4267578125
,1.9190424,2.333984375
,1.9656535000000002,2.2412109375
,1.9660227,2.1533203125
,1.9803193000000001,2.0751953125
,2.0270558000000003,1.97265625
,2.027627,1.8896484375
,2.0476851,1.8115234375
,2.0577389000000004,1.71875
,2.0953114,1.6357421875
,2.1005503,1.54296875
,2.1202579999999998,1.4501953125
,2.1568208,1.3525390625
,2.1613524,1.2646484375
,2.1806481,1.1865234375
,2.1985270000000003,1.103515625
,2.2334069999999997,1.0302734375
,2.239146,0.9765625
,2.2599007999999996,0.9130859375
,2.2952028999999996,0.859375
,2.3002247999999996,0.7958984375
,2.3373004,0.7470703125
,2.3397924000000003,0.7080078125
,2.3580500000000004,0.6787109375
,2.4012712,0.7080078125
,2.4016314000000003,0.849609375
,2.4187003999999996,1.064453125
,2.4551688,1.3427734375
,2.4581703,1.6455078125
,2.4925767,1.9580078125
,2.5132239,2.177734375
,2.5209437,2.353515625
,2.5365773999999996,2.4560546875
,2.5733502,2.5830078125
,2.5781428,2.666015625
,2.6138179,2.7001953125
,2.6357407000000004,2.666015625
,2.6399165,2.6025390625
,2.6758670999999996,2.51953125
,2.6801497999999997,2.44140625
,2.7014816,2.36328125
,2.7358883,2.2802734375
,2.7410534,2.216796875
,2.7587111999999996,2.1533203125
,2.7934639,2.099609375
,2.799182,2.0458984375
,2.837204,1.982421875
,2.8414910000000004,1.9091796875
,2.8780576,1.8408203125
,2.882613,1.7626953125
,2.9252824000000004,1.6845703125
,2.9256528,1.6064453125
,2.93776,1.533203125
,2.9715740000000004,1.455078125
,2.9921913,1.38671875
,3.0000134999999997,1.318359375
,3.0507451000000003,1.2109375
,3.0513025999999996,1.1279296875
,3.0614124,1.064453125
,3.0970940999999996,0.986328125
,3.1168028999999997,0.8837890625
,3.1191601999999996,0.810546875
,3.1556572000000003,0.7666015625
,3.1601939999999997,0.7470703125
,3.1958631000000004,0.7861328125
,3.2006029,0.91796875
,3.2363885999999997,1.1279296875
,3.2564263,1.4013671875
,3.2567936,1.66015625
,3.2933408,1.923828125
,3.3150054000000004,2.12890625
,3.3205203,2.3095703125
,3.3554253999999997,2.4560546875
,3.3605105,2.5927734375
,3.3965954,2.705078125
,3.4013318999999997,2.7587890625
,3.4369630000000004,2.783203125
,3.4574296999999996,2.763671875
,3.4629866,2.7001953125
,3.4804978999999996,2.6513671875
,3.5161547000000004,2.6123046875
,3.5206267999999996,2.5537109375
,3.5619215000000004,2.4951171875
,3.5625003,2.421875
,3.5818519999999996,2.34375
,3.6154081,2.2607421875
,3.6366479,2.1728515625
,3.6397661,2.08984375
,3.6867742999999997,2.01171875
,3.6873661,1.93359375
,3.7006189000000003,1.845703125
,3.7204293,1.767578125
,3.7559892,1.6845703125
,3.7762367,1.611328125
,3.7808539999999997,1.5380859375
,3.8280358000000003,1.4599609375
,3.8286287999999997,1.3916015625
,3.8582802999999997,1.3232421875
,3.8586508999999998,1.240234375
,3.8947278,1.1474609375
,3.9147735,1.0888671875
,3.9209464,1.0400390625
,3.9572849000000003,0.986328125
,3.978116,0.95703125
,3.9785728000000002,0.9521484375
,4.0151709,1.0986328125
,4.0199038,1.3330078125
,4.0547276,1.58203125
,4.0606417,1.85546875
,4.1075741,2.099609375
,4.1079665,2.32421875
,4.1221367,2.5146484375
,4.1577696,2.734375
,4.162942,2.9248046875
,4.2056654,3.0859375
,4.2062694,3.2080078125
,4.2258419,3.28125
,4.240887,3.291015625
,4.2620876,3.2421875
,4.2985069,3.1884765625
,4.3031064,3.1298828125
,4.3374689,3.037109375
,4.3575497,2.9541015625
,4.3626697,2.8662109375
,4.3806582,2.7685546875
,4.4154576,2.67578125
,4.4203784,2.5732421875
,4.4687084,2.4658203125
,4.4690903,2.353515625
,4.4891748,2.236328125
,4.5025132,2.1337890625
,4.5478775,2.05078125
,4.5484247,1.962890625
,4.578056,1.8896484375
,4.5826063,1.8115234375
,4.6028802,1.73828125
,4.637596,1.669921875
,4.6429491,1.611328125
,4.6778757,1.5478515625
,4.6835896,1.4892578125
,4.7319757,1.4306640625
,4.7323723,1.38671875
,4.7397341,1.3525390625
,4.7742727,1.357421875
,4.7948101,1.46484375
,4.8024317,1.630859375
,4.8378113,1.845703125
,4.8731858,2.05078125
,4.8735569,2.255859375
,4.8853906,2.44140625
,4.9345419,2.6123046875
,4.9350205,2.7880859375
,4.9425637,2.9638671875
,4.9789346,3.1005859375
,4.9814357,3.1689453125
,5.0165688,3.26171875
,5.0373143,3.232421875
,5.0431921,3.18359375
,5.0806921,3.1201171875
,5.0869121,3.046875
,5.1004953,2.96875
,5.1347108,2.900390625
,5.1563455,2.8125
,5.1634016,2.724609375
,5.184659,2.626953125
,5.2209845,2.529296875
,5.225501,2.4267578125
,5.2608679,2.3193359375
,5.2615074,2.20703125
,5.2937943,2.119140625
,5.3147228,2.041015625
,5.3220913,1.9677734375
,5.3577496,1.89453125
,5.363328,1.826171875
,5.3985068,1.7626953125
,5.4031137,1.708984375
,5.4381783,1.6552734375
,5.4593087,1.6064453125
,5.4624253,1.5625
,5.4828134,1.5283203125
,5.5178141,1.5185546875
,5.5219639,1.5771484375
,5.5573998,1.71875
,5.5780678,1.8994140625
,5.5823763,2.109375
,5.6181147,2.32421875
,5.6383662,2.51953125
,5.6463695,2.7197265625
,5.6629971,2.9248046875
,5.6841079,3.134765625
,5.7204295,3.30078125
,5.7255063,3.4912109375
,5.7448753,3.5595703125
,5.7933351,3.59375
,5.7936295,3.544921875
,5.806141,3.5107421875
,5.821083,3.4375
,5.8576046,3.369140625
,5.8625431,3.291015625
,5.8980663,3.203125
,5.9321493,3.10546875
,5.932526,2.998046875
,5.9445881,2.880859375
,5.9805772,2.7587890625
,5.9854213,2.63671875
,6.0032535,2.5146484375
,6.0381640999999995,2.3828125
,6.0436642,2.275390625
,6.0885993,2.16796875
,6.0894151,2.080078125
,6.106082000000001,1.9921875
,6.150335800000001,1.9140625
,6.150818299999999,1.8310546875
,6.1603189,1.7529296875
,6.195120599999999,1.689453125
,6.229792700000001,1.640625
,6.230321200000001,1.5966796875
,6.2444519,1.5869140625
,6.291694,1.6357421875
,6.2924562,1.7724609375
,6.3045993,1.9482421875
,6.340502300000001,2.1533203125
,6.3696728,2.353515625
,6.370055499999999,2.55859375
,6.3827742999999995,2.7783203125
,6.4191549000000006,3.0224609375
,6.4384341,3.232421875
,6.445147800000001,3.515625
,6.479608000000001,3.6572265625
,6.5001997,3.6865234375
,6.508070099999999,3.6865234375
,6.542752,3.69140625
,6.543345199999999,3.65234375
,6.5802689,3.5791015625
,6.582993500000001,3.486328125
,6.621874200000001,3.37890625
,6.6260946999999994,3.26171875
,6.666714499999999,3.1396484375
,6.667287399999999,3.0078125
,6.684528500000001,2.8759765625
,6.7182183,2.734375
,6.7392594,2.587890625
,6.7439325,2.451171875
,6.7913288000000005,2.314453125
,6.791760399999999,2.16796875
,6.8048538999999995,2.0556640625
,6.841134,1.9482421875
,6.846098400000001,1.845703125
,6.8981726000000005,1.7431640625
,6.898661000000001,1.650390625
,6.9038067000000005,1.5673828125
,6.9385332,1.50390625
,6.9579287,1.435546875
,6.963612899999999,1.3720703125
,7.0048514,1.2841796875
,7.0052342,1.2109375
,7.025444500000001,1.171875
,7.0621095,1.2109375
,7.0671762000000005,1.328125
,7.1008712,1.5087890625
,7.120817799999999,1.7333984375
,7.1230361,1.982421875
,7.159423200000001,2.2021484375
,7.1796664,2.431640625
,7.1866573,2.65625
,7.221511100000001,2.8857421875
,7.227148100000001,3.095703125
,7.264982099999999,3.3154296875
,7.2686551999999995,3.4619140625
,7.2844815,3.515625
,7.321560699999999,3.5009765625
,7.323829699999999,3.4326171875
,7.360011999999999,3.33984375
,7.3956155,3.2275390625
,7.3960436000000005,3.115234375
,7.4063468,2.998046875
,7.443004800000001,2.87109375
,7.443592499999999,2.734375
,7.4641014000000006,2.6171875
,7.5006042,2.470703125
,7.505960399999999,2.34375
,7.525934400000001,2.20703125
,7.5614563,2.0849609375
,7.5663219999999995,1.9677734375
,7.604051200000001,1.8603515625
,7.6070867,1.7529296875
,7.624378200000001,1.650390625
,7.6590481,1.5673828125
,7.6656095,1.484375
,7.702820900000001,1.396484375
,7.707480800000001,1.3134765625
,7.742097899999999,1.2109375
,7.7477117,1.1376953125
,7.7983124,1.0400390625
,7.7987728,0.9521484375
,7.809678699999999,0.87890625
,7.8247342,0.8251953125
,7.860796799999999,0.7861328125
,7.8666783,0.7470703125
,7.888135500000001,0.703125
,7.9070628,0.6201171875
,7.9414622999999995,0.5712890625
,7.945816300000001,0.546875
,7.982968100000001,0.6005859375
,8.012723,0.78125
,8.0131947,1.005859375
,8.0243378,1.318359375
,8.0617738,1.572265625
,8.0937484,1.8408203125
,8.0942661,2.0654296875
,8.1070901,2.294921875
,8.1460923,2.490234375
,8.1465163,2.71484375
,8.1864585,2.880859375
,8.1870457,3.0078125
,8.206662,3.06640625
,8.2425285,3.0810546875
,8.2471846,3.0859375
,8.2819185,3.0322265625
,8.2863552,2.939453125
,8.3220252,2.8466796875
,8.3422005,2.7294921875
,8.3455032,2.6220703125
,8.3886892,2.5
,8.3892863,2.392578125
,8.4054126,2.2802734375
,8.4421168,2.16796875
,8.4480464,2.060546875
,8.483748,1.9580078125
,8.4873573,1.8603515625
,8.5235867,1.7578125
,8.5438827,1.6650390625
,8.5491718,1.572265625
,8.5663506,1.484375
,8.6064595,1.4111328125
,8.6070931,1.3037109375
,8.654242,1.2353515625
,8.6546059,1.171875
,8.6689273,1.103515625
,8.6885345,1.0205078125
,8.7227866,0.9033203125
,8.7443434,0.849609375
,8.7447374,0.791015625
,8.7829439,0.732421875
,8.7873649,0.6787109375
,8.8236913,0.6640625
,8.8283012,0.7177734375
,8.8633175,0.869140625
,8.8685794,1.07421875
,8.9190234,1.3232421875
,8.9194803,1.5673828125
,8.9401875,1.8212890625
,8.9474645,2.041015625
,8.9968658,2.265625
,8.9972331,2.412109375
,9.0104508,2.5927734375
,9.0586353,2.7392578125
,9.0591437,2.8466796875
,9.0667224,2.8857421875
,9.0881899,2.880859375
,9.1073962,2.94921875
,9.1287029,2.880859375
,9.1679224,2.79296875
,9.1684051,2.6953125
,9.2062051,2.59765625
,9.2096835,2.4951171875
,9.2452237,2.3779296875
,9.2498487,2.2607421875
,9.2860702,2.1240234375
,9.2864965,2.021484375
,9.3216767,1.923828125
,9.3423301,1.8212890625
,9.3502936,1.7138671875
,9.3848902,1.611328125
,9.3902688,1.513671875
,9.432321,1.416015625
,9.4330891,1.328125
,9.4511626,1.220703125
,9.4669582,1.11328125
,9.508621,1.03515625
,9.5089899,0.9521484375
,9.5297099,0.8837890625
,9.5492826,0.8056640625
,9.5839122,0.7421875
,9.6057798,0.673828125
,9.6103869,0.6201171875
,9.6261935,0.56640625
,9.6632578,0.5419921875
,9.6837262,0.4833984375
,9.6881436,0.44921875
,9.7088165,0.41015625
,9.743701,0.4150390625
,9.7646721,0.5029296875
,9.7711763,0.703125
,9.8045808,0.95703125
,9.8268428,1.220703125
,9.8273278,1.513671875
,9.8622926,1.7919921875
,9.8836462,2.0458984375
,9.8887553,2.2607421875
,9.9251047,2.470703125
,9.9292693,2.6611328125
,9.9641953,2.8369140625
,9.9854722,2.939453125
,9.9925564,2.96875
,10.0080871,3.0322265625
,10.0565002,3.0322265625
,10.0568732,2.8955078125
,10.068434,2.8173828125
,10.1040194,2.7294921875
,10.1251304,2.6318359375
,10.130209,2.529296875
,10.1655513,2.421875
,10.1861579,2.3193359375
,10.1887371,2.2021484375
,10.223784,2.1044921875
,10.2295423,1.9970703125
,10.2672866,1.89453125
,10.2678754,1.7919921875
,10.3164137,1.689453125
,10.3167908,1.5869140625
,10.3460965,1.484375
,10.3464826,1.4013671875
,10.382266,1.279296875
,10.4022422,1.19140625
,10.4094948,1.123046875
,10.4453882,1.044921875
,10.4665366,0.9716796875
,10.4711161,0.8935546875
,10.5188838,0.7275390625
,10.5192462,0.673828125
,10.5485154,0.6103515625
,10.5488876,0.556640625
,10.5838239,0.498046875
,10.5896013,0.4541015625
,10.6254091,0.3955078125
,10.6303592,0.3466796875
,10.6483404,0.33203125
,10.6747929,0.4541015625
,10.6925253,0.6494140625
,10.7377316,0.8447265625
,10.7382277,1.1181640625
,10.7481112,1.3818359375
,10.8015433,1.6650390625
,10.8021477,1.9091796875
,10.8100068,2.1533203125
,10.8469752,2.3583984375
,10.8503718,2.5439453125
,10.8898002,2.6806640625
,10.8903921,2.75390625
,10.9261332,2.79296875
,10.9311828,2.7734375
,10.9652088,2.7197265625
,10.9710914,2.5927734375
,11.0061561,2.5537109375
,11.0101913,2.4609375
,11.0460069,2.36328125
,11.052143,2.265625
,11.08759,2.158203125
,11.087968,2.060546875
,11.121662,1.982421875
,11.1438758,1.904296875
,11.1501631,1.81640625
,11.1897373,1.728515625
,11.2211635,1.650390625
,11.2215262,1.5673828125
,11.2341877,1.4892578125
,11.2490056,1.40625
,11.2982549,1.30859375
,11.2988435,1.1767578125
,11.3123919,1.0888671875
,11.3304675,0.966796875
,11.3740424,0.8740234375
,11.3746583,0.791015625
,11.3920858,0.7177734375
,11.4128228,0.64453125
,11.4340879,0.5859375
,11.4685252,0.498046875
,11.468892,0.44921875
,11.4888899,0.4150390625
,11.5260403,0.3759765625
,11.5602018,0.341796875
,11.5609019,0.33203125
,11.574058,0.4052734375
,11.6107162,0.5517578125
,11.6111479,0.7861328125
,11.6293743,1.0400390625
,11.6681488,1.3330078125
,11.6887259,1.5966796875
,11.6904261,1.875
,11.7240377,2.12890625
,11.7452573,2.3486328125
,11.7530557,2.5439453125
,11.7881786,2.6953125
,11.7928089,2.79296875
,11.8099058,2.822265625
,11.8473115,2.7587890625
,11.8503109,2.7587890625
,11.8876291,2.685546875
,11.915058,2.6025390625
,11.9154225,2.470703125
,11.9496598,2.40234375
,11.9524622,2.32421875
,11.9714575,2.197265625
,12.0079415,2.119140625
,12.0083171,2.0361328125
,12.0425661,1.953125
,12.0635952,1.865234375
,12.072788,1.77734375
,12.1091808,1.689453125
,12.1130977,1.6015625
,12.1526654,1.5087890625
,12.153228,1.416015625
,12.1886958,1.2158203125
,12.2106995,1.142578125
,12.2112821,1.0595703125
,12.2498732,0.9814453125
,12.2504567,0.908203125
,12.2886592,0.8349609375
,12.293387,0.7568359375
,12.3337454,0.68359375
,12.3343555,0.6298828125
,12.3680817,0.5712890625
,12.3886722,0.5126953125
,12.389279,0.46875
,12.4274354,0.41015625
,12.4320777,0.380859375
,12.4714575,0.3857421875
,12.4718595,0.5029296875
,12.5067644,0.6884765625
,12.5328473,0.947265625
,12.53321,1.2255859375
,12.5677529,1.533203125
,12.5721615,1.806640625
,12.610019,2.0849609375
,12.6106703,2.32421875
,12.6446367,2.55859375
,12.6649356,2.763671875
,12.674627,2.9345703125
,12.694481,3.0224609375
,12.7127369,3.0615234375
,12.7476389,3.056640625
,12.7503141,3.02734375
,12.7876216,2.939453125
,12.7938654,2.8515625
,12.8133334,2.7490234375
,12.8474594,2.6513671875
,12.8683818,2.5390625
,12.876514,2.421875
,12.8954989,2.2802734375
,12.9133927,2.1435546875
,12.9473687,2.060546875
,12.9525485,1.9677734375
,12.9738672,1.875
,13.0166382,1.7822265625
,13.01725,1.689453125
,13.0516833,1.6015625
,13.0556543,1.5087890625
,13.0908823,1.416015625
,13.0914613,1.3232421875
,13.1291293,1.1376953125
,13.131671,1.0693359375
,13.1695724,0.9814453125
,13.1750574,0.908203125
,13.2095079,0.8203125
,13.2297959,0.7568359375
,13.2361066,0.68359375
,13.2524456,0.6103515625
,13.2726381,0.556640625
,13.3072435,0.5029296875
,13.3127107,0.458984375
,13.3497995,0.4150390625
,13.3532022,0.3662109375
,13.3905556,0.3515625
,13.3909622,0.3955078125
,13.4158769,0.5859375
,13.4326658,0.810546875
,13.4675214,1.0888671875
,13.4720912,1.3720703125
,13.5088204,1.6796875
,13.5148154,1.943359375
,13.5511457,2.2119140625
,13.5532604,2.4365234375
,13.5999822,2.65625
,13.6004071,2.8173828125
,13.6156342,2.9248046875
,13.66154,3.0078125
,13.6619845,2.9931640625
,13.6717606,2.8857421875
,13.7074227,2.83203125
,13.7286644,2.75390625
,13.7350351,2.67578125
,13.7682509,2.6025390625
,13.7891058,2.51953125
,13.7965696,2.4169921875
,13.8131544,2.314453125
,13.8490699,2.2119140625
,13.8540848,2.119140625
,13.8728283,2.03125
,13.9074298,1.9384765625
,13.9272188,1.845703125
,13.9381368,1.7578125
,13.956905,1.6650390625
,14.002152599999999,1.572265625
,14.0027555,1.4892578125
,14.014314599999999,1.416015625
,14.0514018,1.3330078125
,14.054261,1.259765625
,14.0904004,1.1865234375
,14.0955407,1.1083984375
,14.1296313,1.0400390625
,14.150435000000002,0.9765625
,14.153815900000001,0.8740234375
,14.174773299999998,0.7568359375
,14.193235900000001,0.7080078125
,14.228660900000001,0.654296875
,14.248756199999999,0.6005859375
,14.2562535,0.5810546875
,14.2951369,0.6103515625
,14.2955027,0.72265625
,14.3319346,0.9326171875
,14.356729999999999,1.240234375
,14.3571071,1.474609375
,14.373081800000001,1.7138671875
,14.4196737,1.962890625
,14.420135899999998,2.16796875
,14.453314599999999,2.3681640625
,14.4539151,2.5439453125
,14.4897137,2.7001953125
,14.5102799,2.8076171875
,14.516691900000001,2.87109375
,14.5347704,2.87109375
,14.553312900000002,2.8466796875
,14.587188600000001,2.802734375
,14.607216000000001,2.734375
,14.614649700000001,2.65625
,14.650714399999998,2.568359375
,14.656067700000001,2.48046875
,14.694517600000001,2.392578125
,14.7001639,2.2900390625
,14.714860999999999,2.1923828125
,14.7622702,2.1142578125
,14.762941099999999,2.0263671875
,14.775263599999999,1.943359375
,14.809912,1.8505859375
,14.830610700000001,1.7626953125
,14.836941,1.6748046875
,14.8570836,1.591796875
,14.873869899999999,1.494140625
,14.908712099999999,1.4208984375
,14.929576399999998,1.337890625
,14.9346389,1.2548828125
,14.956071900000001,1.181640625
,14.991498199999999,1.11328125
,14.995998499999999,0.966796875
,15.041834699999999,0.9033203125
,15.042427100000001,0.849609375
,15.057783400000002,0.7861328125
,15.1047388,0.703125
,15.105331,0.6640625
,15.115537799999998,0.625
,15.1499323,0.6005859375
,15.170599800000002,0.6396484375
,15.1756907,0.76171875
,15.212451399999999,0.9765625
,15.2181064,1.25
,15.2391471,1.5087890625
,15.276795199999999,1.77734375
,15.277373399999998,2.01171875
,15.311940199999999,2.265625
,15.3163692,2.470703125
,15.3537794,2.685546875
,15.3587275,2.8564453125
,15.393709999999999,2.9931640625
,15.3970059,3.046875
,15.446842,3.0810546875
,15.4472786,3.0517578125
,15.4782051,3.0126953125
,15.478587399999999,2.9443359375
,15.49737,2.8662109375
,15.532951,2.7685546875
,15.536299199999998,2.67578125
,15.5749708,2.568359375
,15.5756276,2.4609375
,15.6123023,2.3486328125
,15.633406699999998,2.2412109375
,15.633803700000001,2.1337890625
,15.679953000000001,2.03125
,15.680467,1.9384765625
,15.7105754,1.8505859375
,15.718464,1.7578125
,15.738496300000001,1.669921875
,15.773354000000001,1.5771484375
,15.7788079,1.4892578125
,15.819266500000001,1.396484375
,15.8199212,1.328125
,15.836975599999999,1.25
,15.8714239,1.123046875
,15.876361800000002,1.0498046875
,15.914698900000001,0.9716796875
,15.9171327,0.8935546875
,15.953141500000001,0.8349609375
,15.974614800000001,0.771484375
,15.979190299999999,0.72265625
,15.9967729,0.6591796875
,16.0383611,0.625
,16.0387374,0.60546875
,16.056208,0.6689453125
,16.1014926,0.810546875
,16.1018836,1.0400390625
,16.122272,1.2890625
,16.1397392,1.5576171875
,16.1555903,1.796875
,16.1943193,2.041015625
,16.1972173,2.2705078125
,16.2174555,2.451171875
,16.2528234,2.6171875
,16.2583291,2.7490234375
,16.2953601,2.8662109375
,16.2980385,2.9052734375
,16.3364052,2.919921875
,16.3367636,2.8759765625
,16.3578573,2.8271484375
,16.3767124,2.75390625
,16.4142673,2.67578125
,16.4166685,2.587890625
,16.4525317,2.5
,16.45756,2.4072265625
,16.495328,2.2705078125
,16.5004539,2.177734375
,16.5361541,2.08984375
,16.5391829,1.9970703125
,16.5726791,1.9091796875
,16.5775857,1.826171875
,16.6144337,1.73828125
,16.6169426,1.6552734375
,16.6532648,1.5673828125
,16.6797092,1.4892578125
,16.6800099,1.40625
,16.714741,1.328125
,16.736105,1.25
,16.7365656,1.123046875
,16.7585486,0.9912109375
,16.7950705,0.9228515625
,16.7979354,0.8642578125
,16.8499848,0.8154296875
,16.8503391,0.7861328125
,16.8602565,0.7421875
,16.9113141,0.6884765625
,16.9117325,0.693359375
,16.9200399,0.7861328125
,16.938916,0.9423828125
,16.9888272,1.171875
,16.9892318,1.416015625
,17.0004769,1.6552734375
,17.0503258,1.865234375
,17.0506192,2.0654296875
,17.055836,2.2265625
,17.0908368,2.373046875
,17.1112791,2.4951171875
,17.1185728,2.587890625
,17.1549587,2.63671875
,17.1578092,2.646484375
,17.1949021,2.646484375
,17.2005843,2.6171875
,17.2364377,2.5634765625
,17.2389854,2.4951171875
,17.2738991,2.421875
,17.2948154,2.34375
,17.299733,2.275390625
,17.3188271,2.1923828125
,17.3533964,2.1240234375
,17.3740068,2.05078125
,17.3790758,1.97265625
,17.414537,1.8896484375
,17.4349744,1.806640625
,17.4382437,1.728515625
,17.4746084,1.6552734375
,17.4768644,1.58203125
,17.5121473,1.50390625
,17.5334574,1.42578125
,17.5404345,1.328125
,17.5911842,1.240234375
,17.5916077,1.171875
,17.6022414,1.09375
,17.6183333,1.0302734375
,17.653405,0.9765625
,17.673349,0.927734375
,17.679334,0.87890625
,17.7156877,0.7568359375
,17.7187314,0.732421875
,17.754704,0.751953125
,17.7746694,0.8837890625
,17.7820023,1.09375
,17.7990747,1.328125
,17.8338227,1.58203125
,17.8416086,1.8310546875
,17.859587,2.080078125
,17.8935169,2.294921875
,17.913955,2.48046875
,17.9197265,2.724609375
,17.9543917,2.8955078125
,17.9741658,3.0322265625
,17.9825061,3.0859375
,17.999802,3.095703125
,18.034799,3.076171875
,18.0422073,3.0224609375
,18.0596141,2.939453125
,18.1048913,2.841796875
,18.1053568,2.744140625
,18.1241371,2.6123046875
,18.1577715,2.5048828125
,18.1621971,2.3974609375
,18.1794523,2.3046875
,18.2164506,2.1875
,18.2211473,2.0849609375
,18.2412809,1.982421875
,18.2893269,1.884765625
,18.289632,1.7919921875
,18.301242,1.7041015625
,18.3366979,1.611328125
,18.3372738,1.5283203125
,18.3612713,1.455078125
,18.3800652,1.376953125
,18.4314452,1.298828125
,18.4317674,1.1328125
,18.4417645,1.0595703125
,18.4768604,0.986328125
,18.4807664,0.91796875
,18.5178132,0.8642578125
,18.5386629,0.810546875
,18.5390688,0.76171875
,18.5766344,0.712890625
,18.5824134,0.6689453125
,18.6006979,0.634765625
,18.6355611,0.6591796875
,18.6575797,0.78125
,18.6627911,1.0009765625
,18.6825677,1.2451171875
,18.7241145,1.494140625
,18.724508,1.7626953125
,18.7454719,2.0458984375
,18.7627385,2.275390625
,18.7804845,2.4853515625
,18.8166326,2.7001953125
,18.8370873,2.880859375
,18.8422463,3.154296875
,18.8771578,3.2373046875
,18.898746,3.2666015625
,18.8990559,3.2470703125
,18.9338403,3.18359375
,18.9541216,3.095703125
,18.9613268,2.98828125
,18.9966042,2.880859375
,19.00203,2.7685546875
,19.0228006,2.65625
,19.0581889,2.529296875
,19.0630783,2.36328125
,19.0793295,2.24609375
,19.1149227,2.138671875
,19.1432353,2.0458984375
,19.1436064,1.9482421875
,19.1622964,1.845703125
,19.1823024,1.7529296875
,19.2206386,1.6552734375
,19.2246104,1.5673828125
,19.2412665,1.4794921875
,19.2839954,1.4013671875
,19.2844799,1.2646484375
,19.3022784,1.171875
,19.3226188,1.09375
,19.3568403,0.986328125
,19.3622817,0.9375
,19.3969342,0.859375
,19.4175852,0.8056640625
,19.4252211,0.7470703125
,19.4590648,0.68359375
,19.4594134,0.6396484375
,19.500674,0.595703125
,19.5011338,0.5615234375
,19.5215375,0.576171875
,19.5628073,0.6640625
,19.5632602,0.8642578125
,19.5983573,1.1083984375
,19.6185416,1.376953125
,19.6189106,1.640625
,19.6554918,1.9189453125
,19.6765249,2.1630859375
,19.6816823,2.392578125
,19.7168659,2.5634765625
,19.7229248,2.7783203125
,19.7587961,2.9248046875
,19.7638001,2.978515625
,19.8100847,2.9833984375
,19.8104443,2.939453125
,19.8306633,2.900390625
,19.8424449,2.8173828125
,19.8889191,2.7294921875
,19.889277,2.6318359375
,19.9017199,2.5341796875
,19.9345569,2.431640625
,19.9552108,2.32421875
,19.9618344,2.216796875
,19.9990621,2.1142578125
,19.9996513,2.01171875
,20.0371809,1.923828125
,20.0588024,1.8310546875
,20.0647511,1.7431640625
,20.107927,1.6552734375
,20.1085019,1.572265625
,20.1247049,1.484375
,20.1459876,1.40625
,20.1865588,1.30859375
,20.1871562,1.1572265625
,20.203838,1.0888671875
,20.2393808,1.005859375
,20.242683,0.947265625
,20.2786267,0.9130859375
,20.2991624,0.8642578125
,20.3045037,0.7958984375
,20.3401314,0.751953125
,20.3446581,0.703125
,20.3615957,0.6640625
,20.4025422,0.6787109375
,20.40294,0.78125
,20.4225092,0.986328125
,20.457004,1.2255859375
,20.4781403,1.5087890625
,20.4836146,1.767578125
,20.5213562,2.0361328125
,20.5219349,2.236328125
,20.5566545,2.451171875
,20.5639431,2.63671875
,20.5831634,2.83203125
,20.6191409,2.958984375
,20.6220722,3.017578125
,20.6565479,3.017578125
,20.6781038,3.10546875
,20.6859576,3.0224609375
,20.702769,2.9248046875
,20.7376313,2.8271484375
,20.7424959,2.7294921875
,20.7788651,2.6171875
,20.7843772,2.509765625
,20.8194746,2.3974609375
,20.8233333,2.2802734375
,20.8581929,2.1435546875
,20.8778723,2.0458984375
,20.8869823,1.93359375
,20.9035173,1.845703125
,20.9526335,1.7724609375
,20.9529921,1.6943359375
,20.9721056,1.6064453125
,20.9839332,1.5283203125
,21.0208506,1.4404296875
,21.0259308,1.3623046875
,21.0633814,1.23046875
,21.0679257,1.123046875
,21.0832752,1.0400390625
,21.1189946,0.99609375
,21.124189,0.927734375
,21.1590219,0.869140625
,21.1658463,0.80078125
,21.1847954,0.751953125
,21.2210099,0.7421875
,21.2508145,0.8203125
,21.2514712,0.986328125
,21.2645843,1.23046875
,21.3131446,1.494140625
,21.3135132,1.7822265625
,21.3241826,2.0556640625
,21.3590069,2.275390625
,21.379168,2.509765625
,21.3870367,2.724609375
,21.4066315,2.9248046875
,21.4225386,3.0712890625
,21.4574181,3.291015625
,21.4779331,3.359375
,21.4838569,3.349609375
,21.5051816,3.271484375
,21.5459716,3.1640625
,21.5463291,3.046875
,21.579109,2.9296875
,21.6000197,2.7978515625
,21.6068296,2.646484375
,21.6563385,2.5244140625
,21.6569296,2.40234375
,21.6657571,2.2802734375
,21.699597,2.1484375
,21.7203907,2.0361328125
,21.7252775,1.93359375
,21.7632655,1.8359375
,21.7841411,1.73828125
,21.7872721,1.6455078125
,21.8041376,1.552734375
,21.8401939,1.46484375
,21.8426758,1.38671875
,21.888304,1.3037109375
,21.8887379,1.162109375
,21.9177288,1.03515625
,21.9263623,0.9814453125
,21.9653248,0.9423828125
,21.9658303,0.83984375
,21.9851649,0.7861328125
,22.0041154,0.7373046875
,22.0420789,0.693359375
,22.0477125,0.6982421875
,22.0663445,0.7763671875
,22.1001269,0.9619140625
,22.1201615,1.1962890625
,22.1271034,1.474609375
,22.1430866,1.73828125
,22.177579,2.021484375
,22.1978677,2.2705078125
,22.2048019,2.4658203125
,22.2432115,2.6708984375
,22.2454201,2.8662109375
,22.2908589,3.14453125
,22.2915579,3.232421875
,22.3213735,3.2568359375
,22.3288582,3.212890625
,22.3655719,3.1298828125
,22.3665068,3.0322265625
,22.385012,2.9296875
,22.430912,2.822265625
,22.4312799,2.7099609375
,22.4522991,2.587890625
,22.4666933,2.470703125
,22.5022661,2.34375
,22.5248152,2.197265625
,22.5253956,2.1044921875
,22.5616077,2.01171875
,22.5634375,1.9140625
,22.6011418,1.8212890625
,22.634822,1.728515625
,22.6352265,1.6357421875
,22.6477391,1.552734375
,22.6830914,1.4599609375
,22.6910981,1.376953125
,22.7054643,1.2939453125
,22.7259572,1.1328125
,22.760089,1.064453125
,22.7653679,1.005859375
,22.801865,0.9423828125
,22.8065849,0.8837890625
,22.8426514,0.8251953125
,22.8488028,0.76171875
,22.8642018,0.712890625
,22.9150514,0.732421875
,22.9155278,0.849609375
,22.9448498,1.0400390625
,22.9452249,1.2890625
,22.9817906,1.5380859375
,23.0035965,1.796875
,23.0088991,2.0166015625
,23.0428623,2.2314453125
,23.0478239,2.3779296875
,23.0869351,2.51953125
,23.0872964,2.6513671875
,23.1221286,2.7587890625
,23.1248052,2.8125
,23.1621331,2.900390625
,23.1969599,2.8564453125
,23.1973481,2.79296875
,23.2085838,2.7197265625
,23.2455895,2.6318359375
,23.250222,2.529296875
,23.2666954,2.4365234375
,23.2881165,2.3486328125
,23.3362617,2.24609375
,23.3368349,2.138671875
,23.3487194,2.0556640625
,23.3833531,1.9677734375
,23.3879262,1.884765625
,23.4226323,1.7919921875
,23.4457004,1.708984375
,23.4460608,1.630859375
,23.4822029,1.5576171875
,23.4879915,1.484375
,23.5234001,1.4111328125
,23.5277468,1.3427734375
,23.5618022,1.201171875
,23.5822011,1.1376953125
,23.5895461,1.0693359375
,23.6056405,1.0009765625
,23.6400483,0.9326171875
,23.6602051,0.8837890625
,23.6688147,0.8544921875
,23.7036434,0.8740234375
,23.7087612,1.0009765625
,23.7427739,1.171875
,23.7626285,1.4013671875
,23.7683788,1.640625
,23.8190199,1.806640625
,23.8194489,1.9775390625
,23.8487015,2.1435546875
,23.8490605,2.28515625
,23.8956168,2.4169921875
,23.8959777,2.509765625
,23.9095617,2.5634765625
,23.9303631,2.5830078125
,23.9666526,2.568359375
,23.9713826,2.529296875
,23.9881351,2.4755859375
,24.022305,2.4267578125
,24.0268722,2.3681640625
,24.0642349,2.2998046875
,24.0987646,2.236328125
,24.0991217,2.158203125
,24.1097712,2.0947265625
,24.1445313,2.021484375
,24.1448962,1.943359375
,24.1643132,1.865234375
,24.2065662,1.787109375
,24.2069211,1.708984375
,24.2266674,1.6357421875
,24.2682948,1.5576171875
,24.2686594,1.484375
,24.2886066,1.40625
,24.3224082,1.337890625
,24.3435473,1.26953125
,24.3490127,1.15234375
,24.3674296,1.0498046875
,24.4091979,0.9912109375
,24.4096212,0.9326171875
,24.4300591,0.869140625
,24.4722418,0.8447265625
,24.4726897,0.888671875
,24.4916398,1.015625
,24.5326831,1.1865234375
,24.5330176,1.4013671875
,24.5469737,1.591796875
,24.5821879,1.7919921875
,24.5880331,1.9677734375
,24.6102178,2.1142578125
,24.6303512,2.2412109375
,24.6513012,2.353515625
,24.6859305,2.431640625
,24.6909306,2.48046875
,24.7068492,2.490234375
,24.7449516,2.470703125
,24.7496544,2.44140625
,24.7693679,2.392578125
,24.804812,2.3388671875
,24.8258643,2.2802734375
,24.8308485,2.2265625
,24.8717045,2.158203125
,24.8722807,2.0947265625
,24.8889364,2.021484375
,24.9237843,1.9580078125
,24.9295911,1.8798828125
,24.9655798,1.806640625
,24.9683905,1.728515625
,24.9907521,1.6455078125
,25.0118973,1.5625
,25.0474551,1.494140625
,25.0478575,1.4306640625
,25.0817586,1.3671875
,25.1010086,1.2939453125
,25.1080141,1.2060546875
,25.1455807,1.1083984375
,25.1481871,1.025390625
,25.1832586,0.947265625
,25.2049421,0.9033203125
,25.2116546,0.8349609375
,25.2327624,0.7861328125
,25.2680191,0.72265625
,25.268592,0.751953125
,25.3037272,0.8935546875
,25.3083762,1.064453125
,25.3558899,1.2744140625
,25.3565445,1.474609375
,25.3759216,1.669921875
,25.390398,1.8408203125
,25.4357547,2.0068359375
,25.4363324,2.1337890625
,25.4475941,2.265625
,25.4973744,2.3681640625
,25.497756,2.431640625
,25.5277429,2.470703125
,25.5283676,2.4755859375
,25.5748144,2.451171875
,25.5753885,2.4072265625
,25.5943262,2.36328125
,25.6087642,2.3095703125
,25.6454428,2.265625
,25.6508983,2.2119140625
,25.69899,2.1533203125
,25.6995481,2.0849609375
,25.710775,2.021484375
,25.759368,1.943359375
,25.7599198,1.8701171875
,25.7674854,1.7919921875
,25.8043029,1.7236328125
,25.8092466,1.650390625
,25.8458456,1.58203125
,25.8522246,1.513671875
,25.8723367,1.4453125
,25.8922666,1.376953125
,25.9299272,1.30859375
,25.9334009,1.162109375
,25.9520678,1.09375
,25.9898879,1.0107421875
,25.9903084,0.95703125
,26.0271537,0.9130859375
,26.0299364,0.869140625
,26.0652277,0.830078125
,26.0863888,0.7958984375
,26.0926335,0.8154296875
,26.1336661,0.9228515625
,26.1342561,1.0693359375
,26.1680355,1.259765625
,26.1709492,1.435546875
,26.1907654,1.62109375
,26.2260321,1.7822265625
,26.2302038,1.9384765625
,26.2667909,2.060546875
,26.289087,2.177734375
,26.2922433,2.2607421875
,26.3287325,2.314453125
,26.3291912,2.3291015625
,26.3636626,2.32421875
,26.3860329,2.255859375
,26.3909013,2.216796875
,26.411178,2.1728515625
,26.4465186,2.12890625
,26.4664963,2.0849609375
,26.4735442,2.041015625
,26.5094643,1.982421875
,26.5100398,1.9287109375
,26.5438257,1.875
,26.5642487,1.81640625
,26.5719918,1.7578125
,26.6174393,1.6943359375
,26.6178494,1.6357421875
,26.6346919,1.5673828125
,26.6786348,1.50390625
,26.6790183,1.4306640625
,26.6945075,1.34765625
,26.7111408,1.2548828125
,26.7457148,1.201171875
,26.7511944,1.1572265625
,26.7896239,1.0498046875
,26.7912255,0.99609375
,26.8283266,0.9521484375
,26.8333727,0.908203125
,26.8689851,0.8642578125
,26.8742269,0.8349609375
,26.8899418,0.849609375
,26.9251751,0.9521484375
,26.945153,1.103515625
,26.9524459,1.2939453125
,26.987146,1.4697265625
,26.9916071,1.640625
,27.0263146,1.796875
,27.0465297,1.943359375
,27.0504385,2.0654296875
,27.0874932,2.197265625
,27.0918975,2.3046875
,27.1292641,2.353515625
,27.1296253,2.333984375
,27.163907,2.32421875
,27.1855886,2.2998046875
,27.1936842,2.2607421875
,27.2299811,2.2265625
,27.2305736,2.1826171875
,27.2664755,2.1435546875
,27.2705774,2.099609375
,27.3172323,2.05078125
,27.3175846,1.9970703125
,27.3468026,1.943359375
,27.3537158,1.8798828125
,27.3747877,1.8115234375
,27.393889,1.748046875
,27.4314151,1.6845703125
,27.4560062,1.611328125
,27.4564466,1.552734375
,27.4740708,1.494140625
,27.5084876,1.435546875
,27.5131671,1.376953125
,27.5481318,1.2841796875
,27.5685028,1.2353515625
,27.5734718,1.171875
,27.6071131,1.083984375
,27.6292263,1.03515625
,27.6297069,0.99609375
,27.6664006,0.9619140625
,27.6869384,0.9619140625
,27.6930094,1.025390625
,27.7303388,1.171875
,27.7335487,1.3427734375
,27.7829445,1.5576171875
,27.7833039,1.71875
,27.792284,1.8603515625
,27.828841,2.01171875
,27.8319051,2.138671875
,27.8682094,2.2607421875
,27.8741406,2.3486328125
,27.8955276,2.4169921875
,27.9139875,2.4462890625
,27.949907,2.451171875
,27.950356,2.421875
,27.98648,2.392578125
,28.0183726,2.3486328125
,28.0189448,2.2998046875
,28.0332467,2.255859375
,28.0701052,2.2021484375
,28.0746542,2.1435546875
,28.1080614,2.0849609375
,28.1287144,2.0263671875
,28.134863,1.9580078125
,28.1711745,1.8896484375
,28.1716614,1.81640625
,28.1919889,1.7529296875
,28.2359934,1.689453125
,28.2363691,1.62109375
,28.2833476,1.552734375
,28.2838699,1.4794921875
,28.2949368,1.416015625
,28.3303331,1.3525390625
,28.3609202,1.2890625
,28.3614234,1.23046875
,28.3750031,1.171875
,28.3940427,1.1181640625
,28.4290973,1.0693359375
,28.434328,1.025390625
,28.4720961,0.9765625
,28.4767443,0.9423828125
,28.5159948,0.927734375
,28.5165747,0.9765625
,28.5326698,1.103515625
,28.5778925,1.259765625
,28.5783538,1.435546875
,28.5940986,1.6064453125
,28.628079,1.7724609375
,28.6496508,1.9189453125
,28.6571464,2.0556640625
,28.6771247,2.1826171875
,28.6921544,2.2802734375
,28.7135371,2.3486328125
,28.7501495,2.392578125
,28.7522998,2.412109375
,28.7882414,2.3974609375
,28.8094143,2.3681640625
,28.8145693,2.333984375
,28.8362693,2.2900390625
,28.8569564,2.24609375
,28.8929969,2.1826171875
,28.8936002,2.138671875
,28.9297829,2.099609375
,28.9335123,2.0458984375
,28.955223,1.9873046875
,28.9906885,1.923828125
,28.9950589,1.8603515625
,29.0299333,1.7919921875
,29.0609544,1.71875
,29.0614186,1.650390625
,29.0723481,1.58203125
,29.1083548,1.5185546875
,29.1288737,1.46484375
,29.1334061,1.416015625
,29.169436,1.3623046875
,29.190246,1.298828125
,29.1955094,1.2353515625
,29.2307133,1.1767578125
,29.2606372,1.1181640625
,29.2610315,1.07421875
,29.2750822,1.0302734375
,29.310089,0.986328125
,29.3154385,0.966796875
,29.354961,0.99609375
,29.3553434,1.11328125
,29.3946937,1.259765625
,29.3955943,1.4453125
,29.4121006,1.6162109375
,29.44755,1.767578125
,29.4799399,1.89453125
,29.4803377,2.01171875
,29.4949433,2.0947265625
,29.542193,2.1728515625
,29.5425578,2.2119140625
,29.5572114,2.2314453125
,29.5938277,2.2216796875
,29.5971595,2.20703125
,29.6154813,2.16796875
,29.6500812,2.1484375
,29.655475,2.1142578125
,29.6920213,2.080078125
,29.6949424,2.0458984375
,29.7431317,2.0068359375
,29.7436676,1.962890625
,29.7638382,1.9140625
,29.7786618,1.8603515625
,29.7953511,1.806640625
,29.8305021,1.7529296875
,29.8359793,1.6943359375
,29.8721839,1.630859375
,29.8756144,1.572265625
,29.9111012,1.513671875
,29.931517,1.4599609375
,29.9364679,1.396484375
,29.9729432,1.34765625
,29.9733078,1.2841796875
,29.9946459,1.2255859375
,30.0381991,1.171875
,30.038614799999998,1.1376953125
,30.0704651,1.083984375
,30.077258899999997,1.044921875
,30.113729999999997,0.986328125
,30.118158,0.9814453125
,30.134456,1.025390625
,30.1681726,1.162109375
,30.189466699999997,1.328125
,30.195253800000003,1.5185546875
,30.232944000000003,1.669921875
,30.236230300000003,1.81640625
,30.289108,1.9287109375
,30.289674599999998,2.0361328125
,30.2973457,2.1240234375
,30.332189200000002,2.177734375
,30.352794699999997,2.2119140625
,30.354524599999998,2.216796875
,30.3979771,2.2021484375
,30.398848800000003,2.177734375
,30.428038299999997,2.1484375
,30.4372768,2.109375
,30.4727392,2.0703125
,30.476812000000002,2.0361328125
,30.51272,1.9970703125
,30.5326382,1.9580078125
,30.5371212,1.923828125
,30.556657899999998,1.8798828125
,30.590733200000003,1.8310546875
,30.611357400000003,1.787109375
,30.6165515,1.7333984375
,30.6604058,1.6748046875
,30.660761200000003,1.62109375
,30.6810775,1.572265625
,30.695721399999996,1.5185546875
,30.736821999999997,1.4794921875
,30.737597100000002,1.4404296875
,30.772376299999998,1.4013671875
,30.800573900000003,1.3525390625
,30.800949600000003,1.30859375
,30.818505899999998,1.2744140625
,30.8536852,1.2353515625
,30.854288500000003,1.2109375
,30.886991700000003,1.23046875
,30.907253400000002,1.2841796875
,30.916555099999997,1.42578125
,30.9532534,1.5966796875
,30.955906499999998,1.7578125
,30.990423800000002,1.9287109375
,31.012380200000003,2.0703125
,31.019718599999997,2.2119140625
,31.039881299999998,2.3291015625
,31.081092599999998,2.4267578125
,31.081515500000002,2.5146484375
,31.096850600000003,2.587890625
,31.134745000000002,2.626953125
,31.136785699999997,2.6416015625
,31.171319500000003,2.626953125
,31.1921576,2.6025390625
,31.1993858,2.568359375
,31.2338082,2.5244140625
,31.239418200000003,2.4755859375
,31.2568675,2.4267578125
,31.2950314,2.373046875
,31.2955989,2.314453125
,31.3325599,2.2509765625
,31.3541619,2.1728515625
,31.3587646,2.1142578125
,31.3809968,2.041015625
,31.400386599999997,1.97265625
,31.4169694,1.904296875
,31.4504004,1.8408203125
,31.470294000000003,1.7724609375
,31.478029900000003,1.7041015625
,31.5160329,1.640625
,31.5189285,1.58203125
,31.539935900000003,1.5234375
,31.575401499999998,1.4697265625
,31.5950732,1.4208984375
,31.595449199999997,1.3671875
,31.632142,1.318359375
,31.636527899999997,1.3037109375
,31.671306700000002,1.3623046875
,31.6912921,1.474609375
,31.6994792,1.640625
,31.735888000000003,1.796875
,31.740057299999997,1.9580078125
,31.773873100000003,2.08984375
,31.794582300000002,2.2119140625
,31.7977865,2.314453125
,31.8455113,2.421875
,31.8461074,2.490234375
,31.8578293,2.5341796875
,31.8936877,2.548828125
,31.9226781,2.5341796875
,31.9232742,2.5
,31.941739499999997,2.4560546875
,31.962719900000003,2.412109375
,31.9778066,2.36328125
,32.0129462,2.314453125
,32.0333439,2.265625
,32.039628,2.20703125
,32.0599,2.1533203125
,32.095492,2.099609375
,32.1002729,2.041015625
,32.1336928,1.97265625
,32.1549643,1.904296875
,32.1553909,1.8408203125
,32.1928103,1.77734375
,32.2173471,1.7236328125
,32.2177147,1.6650390625
,32.2634557,1.6015625
,32.2638147,1.5478515625
,32.2836208,1.494140625
,32.3249574,1.4404296875
,32.3254688,1.38671875
,32.3381005,1.3232421875
,32.3726758,1.279296875
,32.377996,1.2353515625
,32.4132403,1.1962890625
,32.4353729,1.181640625
,32.4403718,1.23046875
,32.4759544,1.357421875
,32.4816554,1.5087890625
,32.5183796,1.6552734375
,32.5209725,1.8212890625
,32.5393775,1.9580078125
,32.5750938,2.08984375
,32.6032935,2.197265625
,32.6038796,2.2900390625
,32.6197696,2.353515625
,32.6669089,2.3974609375
,32.667262,2.4072265625
,32.6839713,2.3974609375
,32.6990164,2.3583984375
,32.7343796,2.3291015625
,32.7601809,2.28515625
,32.7606011,2.24609375
,32.7969578,2.20703125
,32.8000583,2.16796875
,32.8355615,2.119140625
,32.8705181,2.080078125
,32.8709861,2.0361328125
,32.8785639,1.982421875
,32.9143771,1.93359375
,32.91836,1.8798828125
,32.952207,1.826171875
,32.9726662,1.767578125
,32.9810506,1.7138671875
,33.0266696,1.6552734375
,33.0270622,1.5966796875
,33.0386622,1.54296875
,33.0736157,1.484375
,33.0799592,1.435546875
,33.1185695,1.3916015625
,33.1190425,1.3427734375
,33.1576602,1.2939453125
,33.1624223,1.240234375
,33.1822756,1.19140625
,33.2176511,1.15234375
,33.2224178,1.123046875
,33.2582147,1.1474609375
,33.2585841,1.23046875
,33.2794192,1.376953125
,33.313601,1.513671875
,33.3353556,1.6552734375
,33.3425034,1.767578125
,33.378388,1.8798828125
,33.3816619,1.9677734375
,33.4183155,2.0458984375
,33.4189622,2.08984375
,33.4569942,2.12890625
,33.4625073,2.138671875
,33.4801709,2.12890625
,33.5159241,2.0947265625
,33.5510508,2.05078125
,33.5516319,2.0068359375
,33.5618788,1.9677734375
,33.596632,1.9287109375
,33.6261487,1.8994140625
,33.6267475,1.8701171875
,33.6400201,1.8408203125
,33.6746738,1.8017578125
,33.69583,1.767578125
,33.7024675,1.7236328125
,33.7370357,1.6845703125
,33.7415084,1.640625
,33.7763771,1.5966796875
,33.779049,1.552734375
,33.8147945,1.513671875
,33.8356005,1.4697265625
,33.8404732,1.4208984375
,33.8767942,1.376953125
,33.8817466,1.3427734375
,33.91607,1.2548828125
,33.937244,1.2060546875
,33.9429312,1.171875
,33.9644195,1.1279296875
,33.9803783,1.09375
,34.014539,1.0595703125
,34.0347491,1.025390625
,34.0419178,1.005859375
,34.080359,0.986328125
,34.0847324,1.025390625
,34.1046655,1.11328125
,34.1230571,1.2548828125
,34.1571661,1.4013671875
,34.1919814,1.5234375
,34.1923729,1.6455078125
,34.2012187,1.73828125
,34.2219051,1.8359375
,34.2584997,1.884765625
,34.2624076,1.9287109375
,34.2995843,1.943359375
,34.3025439,1.9384765625
,34.32257,1.9140625
,34.3416537,1.8896484375
,34.3763501,1.8603515625
,34.3820483,1.8310546875
,34.4154383,1.8017578125
,34.4360585,1.7724609375
,34.4427207,1.7529296875
,34.4876785,1.71875
,34.4880549,1.6943359375
,34.5180287,1.66015625
,34.5205375,1.640625
,34.5643075,1.611328125
,34.5646425,1.58203125
,34.584068,1.54296875
,34.6039645,1.5087890625
,34.6376321,1.4697265625
,34.6578104,1.4404296875
,34.6630717,1.40625
,34.6959631,1.3525390625
,34.7164009,1.2890625
,34.7213279,1.2646484375
,34.7560988,1.2353515625
,34.7770045,1.2158203125
,34.7820336,1.201171875
,34.8187153,1.171875
,34.824059,1.1474609375
,34.8608376,1.1181640625
,34.8650419,1.103515625
,34.8810865,1.09375
,34.9210043,1.1279296875
,34.9213674,1.2158203125
,34.9422122,1.34765625
,34.9836771,1.46484375
,34.984036,1.591796875
,35.0178489,1.6845703125
,35.0397855,1.7724609375
,35.0401387,1.826171875
,35.0748094,1.884765625
,35.0956957,1.923828125
,35.102793,1.9287109375
,35.1393433,1.9140625
,35.1447989,1.8896484375
,35.1843185,1.8603515625
,35.1846845,1.8212890625
,35.2320809,1.7919921875
,35.2324727,1.7626953125
,35.2617428,1.7431640625
,35.262106,1.728515625
,35.3088764,1.7138671875
,35.3093865,1.689453125
,35.3301097,1.669921875
,35.3433994,1.640625
,35.3769222,1.611328125
,35.3977288,1.5771484375
,35.4061613,1.533203125
,35.4529806,1.533203125
,35.4535442,1.50390625
,35.4625347,1.484375
,35.4972411,1.455078125
,35.5171701,1.4208984375
,35.5243851,1.4013671875
,35.5592148,1.376953125
,35.5665257,1.3525390625
,35.6083977,1.328125
,35.6089188,1.3037109375
,35.6204716,1.279296875
,35.6714487,1.2158203125
,35.6718454,1.2109375
,35.7017905,1.201171875
,35.7021203,1.2255859375
,35.7481259,1.30859375
,35.7486678,1.42578125
,35.7787051,1.5625
,35.7834779,1.6796875
,35.8042579,1.8017578125
,35.8407737,1.89453125
,35.8453936,1.9775390625
,35.8642414,2.0361328125
,35.8985646,2.0654296875
,35.9196261,2.080078125
,35.9237563,2.0849609375
,35.9418432,2.0654296875
,35.9793003,2.0458984375
,35.9840949,2.0166015625
,36.024463,1.9921875
,36.0250172,1.962890625
,36.044423,1.9482421875
,36.0862718,1.923828125
,36.0869543,1.8994140625
,36.1062711,1.875
,36.1485291,1.845703125
,36.1489146,1.8115234375
,36.1705068,1.77734375
,36.1848357,1.7529296875
,36.2099598,1.71875
,36.2253936,1.6845703125
,36.2606699,1.650390625
,36.2648891,1.62109375
,36.2844731,1.5869140625
,36.319943,1.5625
,36.3412176,1.533203125
,36.3443745,1.513671875
,36.3809923,1.494140625
,36.3831938,1.46484375
,36.4166903,1.4111328125
,36.4392365,1.376953125
,36.4471227,1.3232421875
,36.4841592,1.3037109375
,36.4881089,1.2890625
,36.5034695,1.3037109375
,36.5382579,1.3720703125
,36.5650193,1.494140625
,36.565593,1.630859375
,36.5858012,1.7431640625
,36.6205517,1.884765625
,36.6260701,1.97265625
,36.6619464,2.0556640625
,36.662298,2.1142578125
,36.6968749,2.1728515625
,36.7177168,2.20703125
,36.7249285,2.216796875
,36.744885,2.20703125
,36.7819556,2.177734375
,36.7842769,2.1484375
,36.8224437,2.1142578125
,36.82657,2.08984375
,36.8615134,2.0556640625
,36.8821366,2.03125
,36.8825834,2.0068359375
,36.9169304,1.9873046875
,36.93845,1.9580078125
,36.946074,1.93359375
,36.9821901,1.8994140625
,36.9866218,1.8701171875
,37.0246268,1.8359375
,37.0292863,1.8017578125
,37.0481792,1.7578125
,37.0640633,1.71875
,37.0998164,1.689453125
,37.1202668,1.66015625
,37.1252675,1.630859375
,37.1655495,1.6015625
,37.1660219,1.5673828125
,37.1861766,1.5380859375
,37.2222786,1.513671875
,37.2226378,1.4794921875
,37.256711,1.4599609375
,37.2771276,1.435546875
,37.2837696,1.40625
,37.3235504,1.3232421875
,37.3281748,1.38671875
,37.3473142,1.494140625
,37.3839498,1.6259765625
,37.3894433,1.767578125
,37.404243,1.8896484375
,37.438584,2.0068359375
,37.4603786,2.0947265625
,37.467044,2.177734375
,37.5079985,2.2265625
,37.5087072,2.2607421875
,37.5419539,2.2705078125
,37.5635838,2.2607421875
,37.5687811,2.2314453125
,37.6038459,2.1826171875
,37.6044256,2.1484375
,37.6379716,2.119140625
,37.658925,2.08984375
,37.6658921,2.0654296875
,37.7020564,2.041015625
,37.7085326,2.0166015625
,37.7435403,1.9970703125
,37.7486883,1.9580078125
,37.7894843,1.923828125
,37.7899695,1.8798828125
,37.806416,1.8505859375
,37.8412716,1.806640625
,37.8463481,1.77734375
,37.8840634,1.7333984375
,37.888406,1.7041015625
,37.9234044,1.6650390625
,37.9290907,1.630859375
,37.9459492,1.5966796875
,37.9807317,1.5771484375
,38.0016787,1.54296875
,38.0063555,1.513671875
,38.0408248,1.484375
,38.0606451,1.42578125
,38.0675896,1.357421875
,38.1041891,1.3623046875
,38.1087318,1.4306640625
,38.1249862,1.54296875
,38.1613479,1.7138671875
,38.1667381,1.826171875
,38.2019169,1.9287109375
,38.2081625,2.01171875
,38.2280763,2.0849609375
,38.2751893,2.12890625
,38.2757941,2.1630859375
,38.28975,2.1826171875
,38.3230896,2.16796875
,38.3439141,2.1435546875
,38.344332,2.1142578125
,38.3837366,2.08984375
,38.3868787,2.060546875
,38.4221639,2.0361328125
,38.4425047,2.0068359375
,38.4487712,1.982421875
,38.4923515,1.953125
,38.4928191,1.923828125
,38.5071256,1.8896484375
,38.5528168,1.8603515625
,38.5533908,1.826171875
,38.5681754,1.7919921875
,38.6020724,1.748046875
,38.6072029,1.71875
,38.6287925,1.6796875
,38.666255,1.6357421875
,38.668617,1.6015625
,38.6856594,1.5625
,38.7209387,1.5234375
,38.7258673,1.494140625
,38.7605279,1.4599609375
,38.7808235,1.3623046875
,38.7882409,1.318359375
,38.8258443,1.279296875
,38.8286198,1.2451171875
,38.8450421,1.2353515625
,38.8658057,1.2744140625
,38.9022111,1.3671875
,38.9073158,1.5087890625
,38.9424317,1.66015625
,38.9663247,1.7822265625
,38.9705253,1.89453125
,38.988769,1.9775390625
,39.023859,2.0458984375
,39.0443657,2.08984375
,39.0517192,2.099609375
,39.0679583,2.08984375
,39.102529,2.0849609375
,39.1096957,2.060546875
,39.1285235,2.0361328125
,39.1697507,2.0068359375
,39.1701064,1.9873046875
,39.1905621,1.9580078125
,39.2255463,1.9384765625
,39.2454155,1.9091796875
,39.2485263,1.89453125
,39.2846436,1.875
,39.2876949,1.845703125
,39.3241268,1.8115234375
,39.32868,1.77734375
,39.3650714,1.73828125
,39.3696244,1.7041015625
,39.4053675,1.669921875
,39.4059493,1.6357421875
,39.441493,1.6064453125
,39.4618301,1.5771484375
,39.4687783,1.54296875
,39.5033701,1.50390625
,39.5235934,1.4794921875
,39.5302855,1.4501953125
,39.5713056,1.416015625
,39.5719821,1.3330078125
,39.5880981,1.2890625
,39.6247551,1.2890625
,39.6303325,1.328125
,39.6496802,1.4404296875
,39.6711291,1.5771484375
,39.6904053,1.7578125
,39.7125631,1.875
,39.7319342,1.9921875
,39.7512641,2.0751953125
,39.7732565,2.1533203125
,39.7883126,2.20703125
,39.8087447,2.255859375
,39.8288567,2.2705078125
,39.8634537,2.2705078125
,39.8840889,2.255859375
,39.8905526,2.2412109375
,39.9259353,2.216796875
,39.9312673,2.1875
,39.951632,2.1630859375
,39.9685692,2.1337890625
,40.0027526,2.119140625
,40.0242074,2.0947265625
,40.029599,2.0654296875
,40.0664898,2.03125
,40.0711947,1.9970703125
,40.1170459,1.9482421875
,40.1174785,1.9091796875
,40.1279682,1.8603515625
,40.1649516,1.826171875
,40.1692,1.7822265625
,40.2066668,1.73828125
,40.2094017,1.6943359375
,40.244117,1.650390625
,40.2648816,1.6064453125
,40.2724334,1.5673828125
,40.30951,1.5283203125
,40.310085,1.494140625
,40.3441724,1.46484375
,40.349264,1.435546875
,40.3976689,1.3818359375
,40.3981692,1.3623046875
,40.4116987,1.3818359375
,40.4589886,1.4892578125
,40.4594,1.6455078125
,40.4727641,1.8017578125
,40.5216275,1.9677734375
,40.5222903,2.1044921875
,40.5521746,2.24609375
,40.5527515,2.36328125
,40.5723433,2.40234375
,40.5912602,2.5244140625
,40.6259784,2.578125
,40.6472647,2.6025390625
,40.6525505,2.59765625
,40.6904668,2.59765625
,40.6908215,2.5634765625
,40.7102481,2.5390625
,40.7441171,2.509765625
,40.7672747,2.470703125
,40.7716684,2.4365234375
,40.7914896,2.3583984375
,40.8308412,2.3486328125
,40.850981,2.2607421875
,40.8513342,2.2021484375
,40.8698644,2.1484375
,40.8902061,2.099609375
,40.925461,2.0458984375
,40.9311549,1.9970703125
,40.9704193,1.943359375
,41.0009792,1.8896484375
,41.0013927,1.8359375
,41.0130684,1.7822265625
,41.0296495,1.728515625
,41.0776213,1.689453125
,41.0779937,1.6455078125
,41.0893195,1.6064453125
,41.1250746,1.5673828125
,41.1458656,1.5283203125
,41.1514109,1.484375
,41.1869093,1.4501953125
,41.2068694,1.435546875
,41.2131508,1.46484375
,41.2488267,1.5625
,41.2491465,1.689453125
,41.287992,1.845703125
,41.2928374,1.9921875
,41.3433001,2.138671875
,41.3436597,2.2607421875
,41.3524721,2.3779296875
,41.387926,2.470703125
,41.4080347,2.548828125
,41.4097355,2.6123046875
,41.4453643,2.666015625
,41.4501361,2.6806640625
,41.4870023,2.67578125
,41.4924204,2.65625
,41.5287396,2.6220703125
,41.5321226,2.587890625
,41.5532038,2.548828125
,41.591322,2.5048828125
,41.5921332,2.4560546875
,41.610372,2.40234375
,41.6470399,2.3388671875
,41.6515916,2.2705078125
,41.6860828,2.2021484375
,41.706198,2.138671875
,41.7133567,2.0751953125
,41.7525175,2.0068359375
,41.7530942,1.943359375
,41.7700856,1.884765625
,41.8043249,1.8212890625
,41.8257515,1.767578125
,41.8324983,1.7138671875
,41.868611,1.6552734375
,41.8707608,1.6064453125
,41.9070027,1.5576171875
,41.9270261,1.50390625
,41.9340792,1.455078125
,41.9677617,1.416015625
,41.9884519,1.3720703125
,41.989056,1.3232421875
,42.0272257,1.3232421875
,42.0477498,1.4013671875
,42.0538299,1.5283203125
,42.0913224,1.669921875
,42.0919134,1.8359375
,42.1275744,1.9921875
,42.1485453,2.138671875
,42.149136,2.2265625
,42.1863245,2.3291015625
,42.1912966,2.40234375
,42.227473,2.4609375
,42.2335119,2.4853515625
,42.2703058,2.4853515625
,42.27473,2.4658203125
,42.3102786,2.44140625
,42.3107861,2.412109375
,42.3419681,2.392578125
,42.3621043,2.353515625
,42.3719693,2.3193359375
,42.3922729,2.275390625
,42.4279799,2.2314453125
,42.4477151,2.177734375
,42.4524426,2.12890625
,42.4898753,2.0703125
,42.5107651,2.01171875
,42.5111225,1.9580078125
,42.5590649,1.89453125
,42.5594369,1.8310546875
,42.5901695,1.7724609375
,42.5934015,1.708984375
,42.636596,1.650390625
,42.6371674,1.5869140625
,42.655585,1.533203125
,42.6988897,1.484375
,42.6993802,1.435546875
,42.71405,1.396484375
,42.7338423,1.357421875
,42.7784636,1.3134765625
,42.779185,1.2353515625
,42.7936798,1.220703125
,42.8429191,1.318359375
,42.8435035,1.46484375
,42.8730316,1.6552734375
,42.8733978,1.8359375
,42.9205575,2.0166015625
,42.9211408,2.1728515625
,42.9347141,2.32421875
,42.9705603,2.44140625
,42.9761726,2.55859375
,43.013432,2.63671875
,43.0138003,2.6953125
,43.0317244,2.705078125
,43.0727561,2.7001953125
,43.0731847,2.7001953125
,43.0932261,2.6806640625
,43.1285288,2.63671875
,43.1348714,2.59765625
,43.1688115,2.548828125
,43.1730293,2.4951171875
,43.2118244,2.4365234375
,43.2121878,2.373046875
,43.248399,2.275390625
,43.2531373,2.2119140625
,43.2884503,2.1435546875
,43.2934475,2.0849609375
,43.3143505,2.0166015625
,43.3353575,1.953125
,43.371278,1.8896484375
,43.3754456,1.826171875
,43.4126846,1.748046875
,43.4169498,1.69921875
,43.4327645,1.650390625
,43.4680751,1.6015625
,43.4934424,1.5625
,43.4938204,1.5185546875
,43.5290937,1.474609375
,43.5494987,1.4453125
,43.5568829,1.4599609375
,43.6021075,1.5478515625
,43.6027005,1.6845703125
,43.6153838,1.8701171875
,43.6511014,2.0361328125
,43.6533597,2.2265625
,43.6879245,2.3974609375
,43.7081763,2.5830078125
,43.7147805,2.7490234375
,43.750773,2.919921875
,43.7558328,3.056640625
,43.7726432,3.271484375
,43.8215879,3.3251953125
,43.8219428,3.349609375
,43.8421536,3.3203125
,43.8553818,3.2666015625
,43.8918037,3.1982421875
,43.9153146,3.125
,43.9158366,3.0322265625
,43.9473906,2.9443359375
,43.9683047,2.8466796875
,43.9735705,2.7490234375
,44.0216176,2.63671875
,44.0219877,2.51953125
,44.0411383,2.373046875
,44.0551195,2.2705078125
,44.0998266,2.1630859375
,44.1004375,2.0703125
,44.1207703,1.9775390625
,44.1378919,1.8798828125
,44.1546059,1.787109375
,44.1893843,1.7431640625
,44.210705,1.6748046875
,44.2152227,1.611328125
,44.2511089,1.54296875
,44.2706583,1.484375
,44.2762906,1.4208984375
,44.2978921,1.3623046875
,44.3129243,1.23046875
,44.3510037,1.2255859375
,44.3563604,1.2744140625
,44.3932572,1.4306640625
,44.3951686,1.6162109375
,44.4316083,1.8212890625
,44.4365802,2.05078125
,44.4578021,2.2412109375
,44.5034192,2.451171875
,44.5038811,2.6611328125
,44.5244254,2.8857421875
,44.5339443,3.1982421875
,44.5830649,3.37890625
,44.583446,3.486328125
,44.6127913,3.53515625
,44.6177756,3.515625
,44.6599299,3.4521484375
,44.6604367,3.369140625
,44.6739281,3.271484375
,44.7103031,3.1591796875
,44.7167918,3.046875
,44.7639934,2.919921875
,44.7645165,2.79296875
,44.7770058,2.6611328125
,44.8112121,2.5244140625
,44.8315327,2.3828125
,44.8368311,2.24609375
,44.8737913,2.099609375
,44.8741881,1.9970703125
,44.8942223,1.9091796875
,44.9308213,1.8115234375
,44.9506434,1.71875
,44.9581356,1.630859375
,45.0000133,1.54296875
,45.00037,1.455078125
,45.0183785,1.3818359375
,45.0621563,1.30859375
,45.0627397,1.2109375
,45.0752446,1.1474609375
,45.1097509,1.005859375
,45.1309393,0.9375
,45.138051,0.8837890625
,45.1863104,0.849609375
,45.1867737,0.87890625
,45.1978168,1.0107421875
,45.2159937,1.19140625
,45.2644916,1.435546875
,45.2649584,1.6796875
,45.2745889,1.943359375
,45.3094449,2.1728515625
,45.3305363,2.36328125
,45.3385575,2.568359375
,45.3882209,2.7392578125
,45.3885934,3.0078125
,45.3956452,3.115234375
,45.4360615,3.154296875
,45.436634,3.1494140625
,45.482202,3.095703125
,45.4825631,3.0224609375
,45.4969209,2.9248046875
,45.531746,2.8271484375
,45.5539199,2.734375
,45.5587857,2.626953125
,45.5966079,2.5146484375
,45.5972143,2.4072265625
,45.6387357,2.2900390625
,45.6392939,2.1728515625
,45.6570105,2.060546875
,45.7021338,1.953125
,45.7024918,1.8603515625
,45.7190106,1.7626953125
,45.7406366,1.6650390625
,45.778729,1.572265625
,45.7793573,1.484375
,45.7964656,1.4013671875
,45.8335762,1.2890625
,45.8369207,1.19140625
,45.8731938,1.123046875
,45.8787787,1.0107421875
,45.9127006,0.9423828125
,45.933315,0.87890625
,45.9353138,0.810546875
,45.9719279,0.76171875
,45.9779816,0.7470703125
,46.0153663,0.7958984375
,46.0188525,0.9423828125
,46.061732,1.1376953125
,46.0623157,1.376953125
,46.0779584,1.611328125
,46.1138698,1.8505859375
,46.1389872,2.0556640625
,46.1393919,2.2412109375
,46.1552005,2.3974609375
,46.2005023,2.529296875
,46.2010712,2.626953125
,46.2310319,2.6806640625
,46.2391487,2.685546875
,46.2756828,2.6513671875
,46.2781288,2.6708984375
,46.3136515,2.6025390625
,46.3349861,2.5244140625
,46.3353442,2.44140625
,46.3705673,2.3583984375
,46.3924466,2.275390625
,46.3984254,2.177734375
,46.4313063,2.08984375
,46.4522399,2.001953125
,46.4597025,1.9189453125
,46.4946841,1.8310546875
,46.4976836,1.748046875
,46.5175219,1.669921875
,46.5521853,1.5869140625
,46.5743199,1.5185546875
,46.5789481,1.4453125
,46.599634,1.3720703125
,46.6357658,1.2841796875
,46.6405251,1.2158203125
,46.6754224,1.103515625
,46.6778447,1.005859375
,46.7136371,0.9619140625
,46.7173488,0.9130859375
,46.7388649,0.869140625
,46.773532,0.8154296875
,46.7779459,0.78125
,46.8220058,0.8203125
,46.8224501,0.95703125
,46.8522834,1.15234375
,46.8564774,1.40625
,46.8928925,1.6552734375
,46.8986368,1.9140625
,46.9349509,2.1240234375
,46.9381739,2.3388671875
,46.9773709,2.5341796875
,46.9778116,2.705078125
,47.0238485,2.8466796875
,47.0242235,2.9296875
,47.0449978,2.9541015625
,47.0587037,3.017578125
,47.0781463,2.9345703125
,47.1142813,2.8564453125
,47.1197063,2.7685546875
,47.162842,2.666015625
,47.1632275,2.5634765625
,47.1974377,2.4609375
,47.2018074,2.3583984375
,47.2180884,2.2509765625
,47.2557917,2.1435546875
,47.2584896,2.05078125
,47.3042876,1.953125
,47.304641,1.85546875
,47.3204138,1.7626953125
,47.3552069,1.669921875
,47.3604261,1.5771484375
,47.3933943,1.4892578125
,47.415143,1.40625
,47.4183382,1.30859375
,47.4389863,1.23046875
,47.4594247,1.162109375
,47.4953837,1.09375
,47.5153154,1.005859375
,47.5214061,0.9423828125
,47.5588596,0.8056640625
,47.5594335,0.7470703125
,47.5941707,0.7177734375
,47.5976299,0.703125
,47.634211,0.72265625
,47.6550675,0.849609375
,47.6585961,1.0546875
,47.7072666,1.3134765625
,47.7075974,1.5869140625
,47.7227189,1.865234375
,47.7687067,2.119140625
,47.7691773,2.34375
,47.7790169,2.5634765625
,47.8173144,2.7880859375
,47.8176294,2.9638671875
,47.8519493,3.095703125
,47.8732087,3.2763671875
,47.8811405,3.271484375
,47.9195287,3.1640625
,47.9199735,3.095703125
,47.9568018,2.98828125
,47.9779848,2.8662109375
,47.9784656,2.7294921875
,48.0120991,2.6171875
,48.0329142,2.4951171875
,48.0399706,2.373046875
,48.0738144,2.24609375
,48.0941642,2.1240234375
,48.1008643,2.021484375
,48.1352517,1.9140625
,48.1379285,1.81640625
,48.184454,1.71875
,48.1850423,1.6259765625
,48.2041806,1.5283203125
,48.2385466,1.435546875
,48.2430254,1.34765625
,48.2629748,1.23046875
,48.3004696,1.142578125
,48.3009816,1.0498046875
,48.3179529,0.908203125
,48.3527706,0.8447265625
,48.3729774,0.7861328125
,48.3796497,0.732421875
,48.4148428,0.6787109375
,48.4365009,0.6298828125
,48.4432285,0.576171875
,48.4634176,0.52734375
,48.5036103,0.517578125
,48.5039123,0.5615234375
,48.518814,0.712890625
,48.5533273,0.95703125
,48.5805296,1.2255859375
,48.5808382,1.5185546875
,48.6143912,1.787109375
,48.6350238,2.0556640625
,48.6411545,2.2802734375
,48.6748111,2.5
,48.6956836,2.6904296875
,48.69881,2.8662109375
,48.7318868,2.9638671875
,48.7538991,3.1494140625
,48.763727,3.1298828125
,48.7820288,3.0615234375
,48.8205102,2.9736328125
,48.8233701,2.87109375
,48.8407159,2.7587890625
,48.875959,2.6513671875
,48.8803289,2.5341796875
,48.91473,2.3974609375
,48.9348835,2.2802734375
,48.9428832,2.1630859375
,48.9901778,2.060546875
,48.990513,1.9580078125
,49.0019871,1.85546875
,49.0361774,1.7578125
,49.0412106,1.6650390625
,49.0839344,1.5771484375
,49.0843964,1.484375
,49.1182297,1.396484375
,49.1206927,1.23046875
,49.154598,1.1474609375
,49.174773,1.1083984375
,49.1838948,1.044921875
,49.2200225,0.9228515625
,49.2253715,0.8349609375
,49.2421702,0.7470703125
,49.2766211,0.6982421875
,49.2827552,0.634765625
,49.3339398,0.5908203125
,49.3343426,0.556640625
,49.3427897,0.6005859375
,49.3809849,0.7275390625
,49.3849643,0.95703125
,49.4003615,1.2060546875
,49.4424447,1.4794921875
,49.4428051,1.7333984375
,49.4637273,1.97265625
,49.4995406,2.1533203125
,49.5025712,2.3291015625
,49.5509114,2.470703125
,49.5512732,2.568359375
,49.5711898,2.6318359375
,49.5799312,2.646484375
,49.62852,2.6220703125
,49.6289274,2.568359375
,49.6434175,2.5048828125
,49.6634349,2.431640625
,49.7074954,2.3583984375
,49.7083082,2.2802734375
,49.7546901,2.2021484375
,49.7551479,2.1240234375
,49.7622254,2.0556640625
,49.7824045,1.9775390625
,49.8204651,1.89453125
,49.8209386,1.81640625
,49.8551807,1.73828125
,49.8757677,1.6552734375
,49.8831618,1.58203125
,49.9187189,1.50390625
,49.9442244,1.4306640625
,49.9445943,1.357421875
,49.9620436,1.2890625
,49.9959658,1.15234375
,50.0176737,1.0888671875
,50.0247966,1.0400390625
,50.0689686,1.0009765625
,50.0693327,0.9912109375
,50.0850398,0.8740234375
,50.1323456,0.83984375
,50.1328153,0.80078125
,50.1418752,0.8251953125
,50.1768442,0.9033203125
,50.1965364,1.064453125
,50.2024152,1.30859375
,50.2381367,1.5576171875
,50.2602571,1.826171875
,50.2646899,2.0556640625
,50.3008194,2.275390625
,50.301493,2.470703125
,50.3338467,2.6708984375
,50.3663743,2.8271484375
,50.3669645,2.9541015625
,50.3829103,3.0078125
,50.4042777,3.017578125
,50.4396857,3.017578125
,50.4448865,2.94921875
,50.4652692,2.861328125
,50.4815632,2.7685546875
,50.5160449,2.6708984375
,50.5374056,2.5732421875
,50.5451394,2.4755859375
,50.5635982,2.36328125
,50.5993905,2.255859375
,50.620338,2.1435546875
,50.6252204,2.041015625
,50.66219,1.9384765625
,50.6675196,1.845703125
,50.6845184,1.748046875
,50.7038042,1.66015625
,50.723552,1.5771484375
,50.7713792,1.4892578125
,50.7717463,1.40625
,50.7847485,1.3232421875
,50.8060898,1.23046875
,50.8409244,1.142578125
,50.8454934,1.064453125
,50.862756,1.0009765625
,50.8991867,0.947265625
,50.9296639,0.888671875
,50.9300183,0.751953125
,50.9455057,0.7080078125
,50.9656293,0.7080078125
,50.9992223,0.7958984375
,51.02162,0.9814453125
,51.0222466,1.2255859375
,51.0584409,1.5185546875
,51.0630534,1.8017578125
,51.0855498,2.08984375
,51.121593,2.3681640625
,51.1246284,2.6171875
,51.1599433,2.861328125
,51.1656887,3.0712890625
,51.209962,3.2373046875
,51.2105425,3.330078125
,51.2247224,3.3642578125
,51.259381,3.330078125
,51.2641903,3.2568359375
,51.2829917,3.154296875
,51.3180515,3.0419921875
,51.3373702,2.9248046875
,51.3459611,2.7978515625
,51.3979115,2.65625
,51.3984671,2.5341796875
,51.4041272,2.4072265625
,51.4395119,2.28515625
,51.4446799,2.1484375
,51.4792979,2.041015625
,51.4848861,1.9384765625
,51.5240169,1.8359375
,51.526923,1.73828125
,51.5677421,1.6455078125
,51.5683261,1.5576171875
,51.5843466,1.46484375
,51.6047603,1.3818359375
,51.6414047,1.2939453125
,51.6449728,1.2158203125
,51.680273,1.1376953125
,51.6854728,1.0595703125
,51.7207411,0.9423828125
,51.7405145,0.888671875
,51.747304,0.83984375
,51.7635725,0.771484375
,51.7981281,0.732421875
,51.8190058,0.7421875
,51.8245951,0.849609375
,51.8587253,1.03515625
,51.8799213,1.298828125
,51.8870434,1.5625
,51.9264173,1.8408203125
,51.9267811,2.080078125
,51.9442561,2.3193359375
,51.9800293,2.5244140625
,51.9854825,2.734375
,52.0200221,2.900390625
,52.0248691,3.0224609375
,52.061021,3.115234375
,52.0659896,3.125
,52.1006446,3.06640625
,52.1218007,2.9736328125
,52.1269033,2.87109375
,52.1451886,2.7685546875
,52.1914507,2.65625
,52.1918452,2.548828125
,52.206593,2.4462890625
,52.2512637,2.333984375
,52.251623,2.216796875
,52.2721362,2.1142578125
,52.2886324,2.001953125
,52.305178,1.8994140625
,52.3395064,1.8017578125
,52.3461812,1.7041015625
,52.3662295,1.6064453125
,52.4101768,1.5185546875
,52.4107679,1.4306640625
,52.4266451,1.337890625
,52.4638809,1.2548828125
,52.4674908,1.162109375
,52.4844929,1.0693359375
,52.5332754,0.986328125
,52.5336538,0.8544921875
,52.5455398,0.80078125
,52.5802904,0.7568359375
,52.601083,0.703125
,52.6090942,0.64453125
,52.6290386,0.615234375
,52.6457385,0.6396484375
,52.688748,0.78125
,52.6891091,0.9814453125
,52.7066027,1.259765625
,52.7393262,1.552734375
,52.7605926,1.8017578125
,52.7674626,2.0361328125
,52.8029024,2.2265625
,52.8229435,2.412109375
,52.8287981,2.55859375
,52.8680706,2.685546875
,52.8686501,2.75390625
,52.9041405,2.783203125
,52.9047142,2.763671875
,52.9412691,2.71484375
,52.9631588,2.6513671875
,52.9713214,2.5830078125
,52.9898787,2.509765625
,53.0095866,2.431640625
,53.0439799,2.353515625
,53.0655386,2.2705078125
,53.0662243,2.1875
,53.0872105,2.109375
,53.1263199,2.0263671875
,53.1268975,1.93359375
,53.1607324,1.8408203125
,53.1824448,1.7529296875
,53.1892089,1.6650390625
,53.2068609,1.572265625
,53.2420808,1.4990234375
,53.2472806,1.416015625
,53.2843056,1.3427734375
,53.2874848,1.2548828125
,53.3235866,1.19140625
,53.3291875,1.1083984375
,53.3508096,1.03515625
,53.3696368,0.9228515625
,53.3855562,0.8642578125
,53.4214245,0.8203125
,53.4415227,0.791015625
,53.4476309,0.8203125
,53.4843606,0.9228515625
,53.489565,1.123046875
,53.5259779,1.3671875
,53.5286434,1.6455078125
,53.564555,1.9091796875
,53.5693944,2.158203125
,53.5883871,2.3681640625
,53.6066349,2.59765625
,53.6416111,2.7978515625
,53.6629526,2.9736328125
,53.6695408,3.125
,53.7045982,3.1689453125
,53.7113297,3.1689453125
,53.7296202,3.115234375
,53.7683914,3.0517578125
,53.7692082,2.9638671875
,53.787428,2.8662109375
,53.8091379,2.7587890625
,53.8287858,2.67578125
,53.8637546,2.5634765625
,53.8687788,2.4560546875
,53.9071805,2.333984375
,53.9094319,2.216796875
,53.9259558,2.109375
,53.9696445,2.0166015625
,53.9699886,1.9189453125
,54.0005558,1.8359375
,54.0100872,1.7431640625
,54.0484657,1.650390625
,54.0491453,1.5625
,54.0851588,1.474609375
,54.1096301,1.4013671875
,54.1101697,1.30859375
,54.1283135,1.2451171875
,54.1492538,1.181640625
,54.1696252,1.0986328125
,54.1894423,1.025390625
,54.2099548,0.9521484375
,54.2490241,0.8935546875
,54.2493679,0.8544921875
,54.2843295,0.8251953125
,54.3063223,0.9814453125
,54.3108773,1.1328125
,54.3282055,1.34765625
,54.3493924,1.669921875
,54.3854409,1.923828125
,54.3897978,2.1923828125
,54.4270639,2.431640625
,54.4275168,2.685546875
,54.4683817,2.9052734375
,54.4991404,3.115234375
,54.4994765,3.3837890625
,54.5075027,3.4326171875
,54.5438869,3.447265625
,54.548513,3.4130859375
,54.5845498,3.3203125
,54.6088337,3.212890625
,54.6115201,3.095703125
,54.6466643,2.96875
,54.6509014,2.83203125
,54.6664135,2.705078125
,54.7031169,2.578125
,54.7330306,2.4609375
,54.7335427,2.333984375
,54.7510835,2.2021484375
,54.7861661,2.0849609375
,54.7894914,1.9775390625
,54.8276624,1.8701171875
,54.8279966,1.7724609375
,54.8635935,1.6748046875
,54.8871277,1.58203125
,54.8876778,1.494140625
,54.9217266,1.40625
,54.9428121,1.2939453125
,54.9500935,1.2255859375
,54.9851209,1.1474609375
,55.0066679,1.083984375
,55.0138496,1.0205078125
,55.0605817,0.9619140625
,55.061192,0.8154296875
,55.0701129,0.7861328125
,55.1030513,0.7470703125
,55.1255093,0.7275390625
,55.1301909,0.7373046875
,55.1686294,0.8447265625
,55.1732934,1.044921875
,55.2086899,1.30859375
,55.2092626,1.58203125
,55.2444784,1.884765625
,55.2661128,2.1435546875
,55.2716906,2.3876953125
,55.2918815,2.6220703125
,55.3264532,2.8173828125
,55.3322691,2.9931640625
,55.3688644,3.0908203125
,55.3707902,3.1787109375
,55.4164046,3.154296875
,55.4168853,3.0908203125
,55.4285806,2.998046875
,55.4801444,2.8857421875
,55.4808059,2.7734375
,55.48985,2.65625
,55.5266217,2.5439453125
,55.55671,2.4267578125
,55.5572072,2.3095703125
,55.5684948,2.1923828125
,55.6029743,2.08984375
,55.6226119,1.9921875
,55.6304623,1.8896484375
,55.6646025,1.796875
,55.6852461,1.7041015625
,55.6912449,1.611328125
,55.7435059,1.5185546875
,55.7438409,1.4306640625
,55.7517006,1.3427734375
,55.7690073,1.2646484375
,55.8045469,1.181640625
,55.825836,1.1181640625
,55.8308831,1.0693359375
,55.8682265,1.0009765625
,55.8893425,0.8984375
,55.8898464,0.8642578125
,55.9308201,0.8203125
,55.9518768,0.8349609375
,55.9522375,0.927734375
,55.9937401,1.1376953125
,55.9943447,1.38671875
,56.0111052,1.6845703125
,56.0458693,1.9580078125
,56.0534736,2.216796875
,56.101059,2.4462890625
,56.1016194,2.67578125
,56.1097409,2.880859375
,56.1453145,3.0908203125
,56.1506014,3.2177734375
,56.1851099,3.28125
,56.2063442,3.2763671875
,56.2101132,3.2080078125
,56.2456834,3.095703125
,56.2671321,2.978515625
,56.2741873,2.8564453125
,56.2909329,2.734375
,56.3262851,2.6220703125
,56.3307462,2.5048828125
,56.3681903,2.3828125
,56.3707212,2.2607421875
,56.4049707,2.1435546875
,56.4261683,2.0361328125
,56.4335643,1.9287109375
,56.4690043,1.826171875
,56.501185,1.728515625
,56.5015704,1.640625
,56.5107355,1.5576171875
,56.5464845,1.4697265625
,56.5674335,1.396484375
,56.5727862,1.3037109375
,56.6087289,1.2255859375
,56.6401135,1.1572265625
,56.6404976,1.09375
,56.6541889,1.025390625
,56.6700146,0.9619140625
,56.7050324,0.8984375
,56.7257451,0.810546875
,56.7330477,0.8984375
,56.7703041,1.0400390625
,56.7723562,1.337890625
,56.8076526,1.5478515625
,56.8294801,1.865234375
,56.8298269,2.1142578125
,56.8645691,2.3779296875
,56.8856284,2.6416015625
,56.8928407,2.87109375
,56.9131704,3.0859375
,56.9339915,3.28125
,56.9542707,3.41796875
,56.9910456,3.4375
,56.9943746,3.3984375
,57.0098164,3.2958984375
,57.0431332,3.1982421875
,57.0647428,3.0810546875
,57.0716402,2.94921875
,57.1090963,2.822265625
,57.1383887,2.6953125
,57.1389913,2.5732421875
,57.1543394,2.4462890625
,57.1904883,2.314453125
,57.1939674,2.1875
,57.2481874,2.0703125
,57.2487581,1.962890625
,57.2517655,1.8603515625
,57.2926149,1.767578125
,57.2929557,1.669921875
,57.3126682,1.58203125
,57.3478143,1.494140625
,57.3692625,1.4111328125
,57.374086,1.328125
,57.3926161,1.220703125
,57.4343545,1.1669921875
,57.4349418,1.103515625
,57.4523603,1.0498046875
,57.4911265,0.986328125
,57.4917054,0.8349609375
,57.5258173,0.8056640625
,57.5468207,0.78125
,57.5537977,0.8447265625
,57.569911,1.005859375
,57.6044919,1.2548828125
,57.6250314,1.513671875
,57.6347448,1.7919921875
,57.6815076,2.05078125
,57.682082,2.294921875
,57.6951772,2.509765625
,57.7450397,2.744140625
,57.7454404,2.9345703125
,57.7762135,3.1103515625
,57.7765779,3.2666015625
,57.7939765,3.310546875
,57.8380567,3.2763671875
,57.83889,3.212890625
,57.8550405,3.1103515625
,57.8893202,2.98828125
,57.9092778,2.8759765625
,57.9158862,2.7685546875
,57.9524428,2.646484375
,57.9528148,2.529296875
,57.9914257,2.4169921875
,58.0117451,2.3046875
,58.0133858,2.1826171875
,58.0490814,2.0654296875
,58.0556272,1.9580078125
,58.1006193,1.85546875
,58.1009783,1.7529296875
,58.1123683,1.66015625
,58.1495988,1.5673828125
,58.1543319,1.4794921875
,58.1908297,1.3916015625
,58.1930501,1.2939453125
,58.2432355,1.2109375
,58.2436099,1.142578125
,58.2737739,1.0693359375
,58.2743568,1.005859375
,58.3083917,0.9423828125
,58.3154808,0.8935546875
,58.3504499,0.7861328125
,58.3528151,0.6982421875
,58.399341,0.6689453125
,58.3999187,0.7275390625
,58.4302463,0.8642578125
,58.4372169,1.09375
,58.4520306,1.3427734375
,58.4872173,1.6259765625
,58.5082584,1.8994140625
,58.513551,2.109375
,58.549827,2.3046875
,58.569126,2.4755859375
,58.5744212,2.6318359375
,58.6095582,2.7490234375
,58.6302948,2.8125
,58.6372228,2.8125
,58.6560732,2.7685546875
,58.6722713,2.6953125
,58.7081801,2.6123046875
,58.7289134,2.529296875
,58.7329926,2.44140625
,58.7695597,2.353515625
,58.7896733,2.2607421875
,58.7968736,2.1728515625
,58.8334606,2.0849609375
,58.8634906,1.9970703125
,58.8640505,1.9091796875
,58.8734033,1.8212890625
,58.9112803,1.73828125
,58.913385,1.650390625
,58.9476801,1.5673828125
,58.967709,1.484375
,58.9769473,1.4013671875
,59.0118243,1.318359375
,59.0326662,1.220703125
,59.0330552,1.15234375
,59.0793922,1.083984375
,59.0797758,1.0205078125
,59.0955027,0.947265625
,59.1315408,0.87890625
,59.1370231,0.7421875
,59.1720647,0.703125
,59.2054768,0.6640625
,59.2058517,0.6591796875
,59.2123433,0.7568359375
,59.2513729,0.9326171875
,59.2557527,1.181640625
,59.2909513,1.42578125
,59.2958167,1.69921875
,59.3310899,1.93359375
,59.3604574,2.1533203125
,59.3610686,2.32421875
,59.4091377,2.4951171875
,59.4095753,2.6318359375
,59.4146057,2.7392578125
,59.4344258,2.79296875
,59.4688466,2.783203125
,59.4886244,2.75390625
,59.4982825,2.6708984375
,59.5167886,2.578125
,59.5612694,2.48046875
,59.5616453,2.3779296875
,59.5816287,2.2802734375
,59.5939759,2.177734375
,59.6293642,2.08984375
,59.6490865,2.0068359375
,59.6564766,1.9189453125
,59.703168,1.8212890625
,59.7037356,1.728515625
,59.7242909,1.630859375
,59.734518,1.54296875
,59.782655,1.455078125
,59.7831633,1.3671875
,59.7952262,1.2451171875
,59.8312236,1.1572265625
,59.8379121,1.0205078125
,59.8764704,0.947265625
,59.8770542,0.91796875
,59.8968906,0.7861328125
,59.9312935,0.72265625
,59.9339024,0.6787109375
,59.9714926,0.6201171875
,59.9761548,0.56640625
,59.9958998,0.5126953125
,60.0311316,0.458984375
,60.0630241,0.4296875
,60.0633961,0.5029296875
,60.0777818,0.64453125
,60.1142148,0.8544921875
,60.1191406,1.11328125
,60.1369364,1.3623046875
,60.1568348,1.630859375
,60.1902819,1.8701171875
,60.2127335,2.08984375
,60.2179491,2.265625
,60.2660996,2.4267578125
,60.2664673,2.5390625
,60.2790373,2.6220703125
,60.2969128,2.646484375
,60.331502,2.626953125
,60.3360195,2.5634765625
,60.3703426,2.48046875
,60.3914354,2.3876953125
,60.3993928,2.2998046875
,60.4349291,2.20703125
,60.4399918,2.119140625
,60.4593091,2.03125
,60.4751811,1.943359375
,60.5097978,1.8603515625
,60.5302812,1.7724609375
,60.5381848,1.6845703125
,60.5752479,1.591796875
,60.5796071,1.4990234375
,60.6239361,1.40625
,60.6243007,1.3134765625
,60.6343894,1.2060546875
,60.6709363,1.0986328125
,60.6766681,1.0107421875
,60.6981346,0.9228515625
,60.7179104,0.80078125
,60.7531546,0.6982421875
,60.7584453,0.6298828125
,60.7789533,0.56640625
,60.8154409,0.5078125
,60.8160394,0.4443359375
,60.8610162,0.3955078125
,60.861428,0.37109375
,60.8813787,0.322265625
,60.898373,0.29296875
,60.9339236,0.3173828125
,60.9393723,0.4296875
,60.9735445,0.6298828125
,60.9933256,0.859375
,60.9995975,1.123046875
,61.0170719,1.3671875
,61.065162,1.630859375
,61.0656774,1.865234375
,61.0790218,2.0458984375
,61.1160753,2.197265625
,61.1191405,2.2998046875
,61.1396993,2.36328125
,61.1891593,2.3828125
,61.1899537,2.36328125
,61.1980319,2.3193359375
,61.2175543,2.265625
,61.2375428,2.20703125
,61.2579124,2.138671875
,61.2927339,2.0751953125
,61.2986156,2.01171875
,61.3354418,1.943359375
,61.3396659,1.875
,61.3608165,1.8017578125
,61.3763145,1.7236328125
,61.4097846,1.6552734375
,61.4308205,1.5771484375
,61.4381387,1.50390625
,61.4716609,1.4208984375
,61.4917641,1.34765625
,61.4995627,1.2451171875
,61.5363918,1.1474609375
,61.5393358,1.025390625
,61.5761401,0.9423828125
,61.5766303,0.927734375
,61.5984831,0.8154296875
,61.6195598,0.7568359375
,61.6554108,0.703125
,61.6583559,0.64453125
,61.7024343,0.595703125
,61.7028983,0.537109375
,61.7222804,0.4931640625
,61.7586493,0.498046875
,61.7592314,0.5810546875
,61.7942521,0.751953125
,61.7977833,0.9765625
,61.8329285,1.23046875
,61.8539102,1.474609375
,61.8589056,1.71875
,61.8943259,1.93359375
,61.91475,2.138671875
,61.9170128,2.275390625
,61.9524762,2.4267578125
,61.9606848,2.5146484375
,61.9791116,2.5732421875
,62.013614700000005,2.5927734375
,62.034317599999994,2.55859375
,62.040505800000005,2.5
,62.0768259,2.4267578125
,62.097838100000004,2.3486328125
,62.098410200000004,2.2705078125
,62.138841299999996,2.1923828125
,62.13942419999999,2.119140625
,62.173947600000005,2.0458984375
,62.1786288,1.9677734375
,62.215594100000004,1.8896484375
,62.22001950000001,1.8017578125
,62.2563059,1.7138671875
,62.2620416,1.6259765625
,62.299315500000006,1.5380859375
,62.2998889,1.4501953125
,62.3340381,1.3720703125
,62.3400771,1.2890625
,62.3601209,1.2158203125
,62.38125599999999,1.0595703125
,62.400666400000006,0.9521484375
,62.438091,0.87890625
,62.441322099999994,0.8203125
,62.4811134,0.76171875
,62.4814722,0.7080078125
,62.5150656,0.6591796875
,62.5181467,0.6201171875
,62.5529044,0.5810546875
,62.5732024,0.5810546875
,62.581640199999995,0.6640625
,62.6184854,0.8251953125
,62.6211399,1.0546875
,62.6553244,1.318359375
,62.67725849999999,1.5673828125
,62.67774729999999,1.8408203125
,62.7147107,2.060546875
,62.719725499999996,2.2802734375
,62.755027,2.4609375
,62.7606378,2.626953125
,62.794878499999996,2.7294921875
,62.815937500000004,2.802734375
,62.816295100000005,2.8173828125
,62.850873699999994,2.8125
,62.8717841,2.734375
,62.8814845,2.65625
,62.9009506,2.5634765625
,62.919942500000005,2.4658203125
,62.9525507,2.36328125
,62.972744399999996,2.275390625
,62.9825936,2.177734375
,63.019378399999994,2.0849609375
,63.0214689,1.9921875
,63.0397071,1.8994140625
,63.0838706,1.8115234375
,63.0843366,1.7236328125
,63.1046664,1.6357421875
,63.122968,1.5478515625
,63.158112900000006,1.455078125
,63.1619391,1.3720703125
,63.198978100000005,1.26953125
,63.1996149,1.19140625
,63.2256,1.103515625
,63.241693999999995,1.03515625
,63.2759439,1.0009765625
,63.28219489999999,0.9423828125
,63.3030074,0.8837890625
,63.338155799999996,0.8349609375
,63.3433876,0.6787109375
,63.3814254,0.64453125
,63.381897699999996,0.625
,63.415313299999994,0.673828125
,63.4203057,0.8056640625
,63.455138000000005,1.015625
,63.475270300000005,1.2548828125
,63.4833067,1.5283203125
,63.5225056,1.7724609375
,63.52307450000001,2.0166015625
,63.5405787,2.20703125
,63.5765291,2.3974609375
,63.5821519,2.5439453125
,63.5996696,2.6708984375
,63.645911100000006,2.744140625
,63.6462746,2.763671875
,63.667783299999996,2.7392578125
,63.6824192,2.6904296875
,63.7181497,2.6220703125
,63.7239251,2.5439453125
,63.7593627,2.5
,63.759839,2.40234375
,63.79461980000001,2.314453125
,63.81559970000001,2.2314453125
,63.821265,2.1240234375
,63.8647297,2.041015625
,63.865280299999995,1.962890625
,63.886418199999994,1.875
,63.903669199999996,1.7919921875
,63.939643000000004,1.7041015625
,63.940001499999994,1.6259765625
,63.992643799999996,1.5478515625
,63.993004799999994,1.4794921875
,64.0033964,1.4111328125
,64.0535676,1.279296875
,64.0541584,1.2109375
,64.063639,1.15234375
,64.0992976,1.09375
,64.0996847,1.03515625
,64.1345129,0.9912109375
,64.16229,0.947265625
,64.1627005,0.8984375
,64.1986215,0.869140625
,64.201948,0.8935546875
,64.238861,0.9912109375
,64.2435163,1.19140625
,64.2781071,1.435546875
,64.298814,1.6796875
,64.2991729,1.9384765625
,64.3496216,2.177734375
,64.3499788,2.36328125
,64.3795998,2.5390625
,64.3820193,2.71484375
,64.4145068,2.83203125
,64.4338104,2.9052734375
,64.4457406,3.017578125
,64.4651185,2.9833984375
,64.4813632,2.919921875
,64.5172174,2.8466796875
,64.5371438,2.75390625
,64.5419995,2.6318359375
,64.5848253,2.5390625
,64.5851647,2.4462890625
,64.615534,2.3486328125
,64.6240196,2.2509765625
,64.6617424,2.1435546875
,64.6621797,2.0556640625
,64.6962471,1.97265625
,64.7187654,1.884765625
,64.7234023,1.8017578125
,64.7609052,1.7138671875
,64.7658543,1.630859375
,64.78413,1.552734375
,64.8311048,1.46484375
,64.8314618,1.3916015625
,64.8507885,1.318359375
,64.863637,1.2353515625
,64.8989401,1.181640625
,64.9034645,1.123046875
,64.9402984,1.0595703125
,64.9464104,1.005859375
,64.9650899,0.9521484375
,65.003147,0.9130859375
,65.0036794,0.947265625
,65.0518944,1.0791015625
,65.052346,1.2939453125
,65.062304,1.533203125
,65.1004483,1.7724609375
,65.1052242,2.021484375
,65.1458484,2.2412109375
,65.1464123,2.4609375
,65.1640158,2.6611328125
,65.1979403,2.841796875
,65.2188085,2.978515625
,65.2238946,3.095703125
,65.2438433,3.115234375
,65.2851906,3.0859375
,65.285553,3.0224609375
,65.3049894,2.9345703125
,65.3261833,2.83203125
,65.3615435,2.724609375
,65.3962104,2.6220703125
,65.3967876,2.509765625
,65.4032946,2.40234375
,65.4413046,2.294921875
,65.4416645,2.1826171875
,65.4896466,2.0849609375
,65.4900843,1.982421875
,65.5180436,1.884765625
,65.5252062,1.7919921875
,65.5648682,1.69921875
,65.56522,1.6064453125
,65.5836531,1.5234375
,65.6180522,1.4404296875
,65.6222999,1.337890625
,65.6575075,1.2548828125
,65.6791816,1.181640625
,65.6853972,1.1083984375
,65.7342097,1.0498046875
,65.7345362,0.9814453125
,65.7443944,0.9326171875
,65.7799073,0.8740234375
,65.7829576,0.7275390625
,65.8182169,0.6787109375
,65.8402835,0.673828125
,65.84562,0.7470703125
,65.8657747,0.9033203125
,65.9025713,1.1767578125
,65.9056603,1.4208984375
,65.9412894,1.7041015625
,65.9450699,1.962890625
,65.9814594,2.2119140625
,65.9859767,2.4267578125
,66.0049975,2.6318359375
,66.0418402,2.8076171875
,66.0442933,2.94921875
,66.0807051,3.0224609375
,66.106214,3.046875
,66.1065652,3.0078125
,66.1261332,2.9736328125
,66.1445026,2.8857421875
,66.1787086,2.7880859375
,66.2005056,2.6806640625
,66.2058163,2.568359375
,66.2421049,2.4609375
,66.2463884,2.353515625
,66.2825918,2.236328125
,66.2829433,2.12890625
,66.322616,2.03125
,66.3423065,1.9384765625
,66.3459005,1.8359375
,66.3658797,1.7431640625
,66.400708,1.6455078125
,66.4214349,1.552734375
,66.4265601,1.4599609375
,66.4430485,1.376953125
,66.493602,1.2646484375
,66.49407,1.1865234375
,66.5144109,1.1083984375
,66.5254345,1.0400390625
,66.5464618,0.9716796875
,66.5887444,0.91796875
,66.5890953,0.849609375
,66.6073369,0.7373046875
,66.6434268,0.6787109375
,66.6491959,0.654296875
,66.6639593,0.6689453125
,66.7114988,0.8154296875
,66.7121553,1.015625
,66.7263223,1.2841796875
,66.774468,1.5576171875
,66.774826,1.8408203125
,66.7876844,2.060546875
,66.8232053,2.275390625
,66.8284414,2.4560546875
,66.8445025,2.6025390625
,66.8786615,2.7294921875
,66.8995885,2.79296875
,66.9065731,2.8076171875
,66.9413407,2.7734375
,66.9465073,2.7197265625
,66.9669562,2.6416015625
,67.0022972,2.55859375
,67.0049815,2.4755859375
,67.0259437,2.392578125
,67.0663953,2.314453125
,67.0670126,2.2314453125
,67.1008599,2.1484375
,67.1059746,2.0654296875
,67.1464338,1.9873046875
,67.1661118,1.8994140625
,67.166471,1.81640625
,67.2005173,1.728515625
,67.205163,1.6552734375
,67.2416336,1.572265625
,67.2708696,1.494140625
,67.2712391,1.4111328125
,67.2865961,1.318359375
,67.3239631,1.2451171875
,67.326893,1.181640625
,67.3483776,1.1181640625
,67.3839488,1.0595703125
,67.3843165,0.9912109375
,67.4286158,0.947265625
,67.4290011,0.8935546875
,67.4506914,0.869140625
,67.4676514,0.8984375
,67.5069389,1.03515625
,67.5073628,1.2451171875
,67.5543423,1.484375
,67.5549266,1.748046875
,67.5846166,1.9970703125
,67.5849815,2.2509765625
,67.6212389,2.4658203125
,67.6488097,2.67578125
,67.6492855,2.8515625
,67.6941777,2.98828125
,67.6945947,3.056640625
,67.7092444,3.076171875
,67.7256255,3.0419921875
,67.7598713,3.0224609375
,67.7813357,2.9345703125
,67.7864129,2.8271484375
,67.8220654,2.7197265625
,67.8283411,2.6123046875
,67.8652942,2.5
,67.8657853,2.392578125
,67.9121548,2.28515625
,67.9125153,2.1728515625
,67.9343258,2.0849609375
,67.9458017,1.9873046875
,67.9817512,1.8896484375
,68.0063399,1.7919921875
,68.0067028,1.69921875
,68.0436138,1.6064453125
,68.047986,1.5185546875
,68.0854411,1.4306640625
,68.0900751,1.337890625
,68.1250898,1.259765625
,68.1449195,1.1865234375
,68.148428,1.11328125
,68.1678666,1.0595703125
,68.2024238,0.99609375
,68.2228394,0.9375
,68.2273468,0.888671875
,68.2619741,0.8154296875
,68.2826827,0.7958984375
,68.2857092,0.7080078125
,68.3070771,0.8447265625
,68.3273531,1.03515625
,68.3620846,1.3671875
,68.3836329,1.6162109375
,68.3884886,1.89453125
,68.4256163,2.16796875
,68.4306738,2.4072265625
,68.466239,2.6513671875
,68.4666038,2.861328125
,68.5008838,3.0517578125
,68.5219851,3.1689453125
,68.5266651,3.28125
,68.5611947,3.30078125
,68.5820868,3.2373046875
,68.5890689,3.134765625
,68.6248346,3.0322265625
,68.6251861,2.919921875
,68.6453349,2.802734375
,68.6912594,2.685546875
,68.6918578,2.568359375
,68.7072018,2.4462890625
,68.7425265,2.32421875
,68.7643553,2.197265625
,68.7694977,2.0849609375
,68.8160165,1.97265625
,68.8165053,1.865234375
,68.8305204,1.7578125
,68.847629,1.6552734375
,68.8922,1.5673828125
,68.8925594,1.4794921875
,68.9106024,1.38671875
,68.9461649,1.2939453125
,68.951802,1.1962890625
,68.9710147,1.11328125
,69.0162514,1.0302734375
,69.016722,0.9619140625
,69.0288418,0.8984375
,69.0501226,0.7763671875
,69.0842002,0.7275390625
,69.0891077,0.693359375
,69.1244139,0.6298828125
,69.129293,0.6005859375
,69.1633128,0.6201171875
,69.1834708,0.76171875
,69.1861981,0.9814453125
,69.2232398,1.279296875
,69.2529122,1.5673828125
,69.2533688,1.8701171875
,69.2686911,2.1142578125
,69.3159747,2.34375
,69.3164637,2.5341796875
,69.3308303,2.71484375
,69.3452993,2.8466796875
,69.3802667,2.94921875
,69.402802,2.9833984375
,69.4093072,2.958984375
,69.4447648,2.94921875
,69.4507541,2.8662109375
,69.4711903,2.7685546875
,69.5170294,2.65625
,69.5174007,2.5537109375
,69.5320955,2.4560546875
,69.5656765,2.353515625
,69.5852929,2.24609375
,69.5870418,2.1435546875
,69.6219357,2.05078125
,69.6442464,1.9580078125
,69.6511131,1.865234375
,69.6719547,1.7724609375
,69.7068342,1.6796875
,69.7124776,1.591796875
,69.7479726,1.4990234375
,69.7683668,1.4111328125
,69.768828,1.337890625
,69.8032086,1.259765625
,69.8259999,1.1767578125
,69.8299558,1.0888671875
,69.8659527,1.044921875
,69.871264,0.9912109375
,69.8917846,0.908203125
,69.909096,0.8251953125
,69.9453444,0.771484375
,69.9496231,0.76171875
,69.9700114,0.8349609375
,70.0050276,1.0009765625
,70.0096445,1.2646484375
,70.0447324,1.58203125
,70.0652292,1.826171875
,70.0718121,2.0751953125
,70.0872636,2.2900390625
,70.1222517,2.5
,70.1433248,2.6806640625
,70.1508036,2.8515625
,70.1715541,2.9541015625
,70.2057299,3.0517578125
,70.2096917,3.0419921875
,70.2436449,2.9931640625
,70.2653863,2.9150390625
,70.2730049,2.83203125
,70.2895442,2.734375
,70.3313946,2.6416015625
,70.3320942,2.5439453125
,70.3673737,2.44140625
,70.3697598,2.3388671875
,70.4054724,2.2265625
,70.4252386,2.1240234375
,70.43412,2.0263671875
,70.4704421,1.923828125
,70.4709864,1.826171875
,70.503744,1.7333984375
,70.525173,1.6455078125
,70.5321716,1.5576171875
,70.5525528,1.46484375
,70.5890268,1.3818359375
,70.5938104,1.3037109375
,70.6419952,1.1962890625
,70.6423759,1.1279296875
,70.6494178,1.0791015625
,70.6702116,0.9765625
,70.7068957,0.947265625
,70.711733,0.888671875
,70.7517024,0.78125
,70.7520608,0.7763671875
,70.7985795,0.8203125
,70.7989427,0.9814453125
,70.8190321,1.2109375
,70.8293655,1.5087890625
,70.8644642,1.8017578125
,70.8702735,2.0654296875
,70.9070055,2.2998046875
,70.927249,2.5439453125
,70.9323196,2.763671875
,70.9706986,2.9638671875
,71.0010488,3.125
,71.0014446,3.271484375
,71.013909,3.2958984375
,71.0302846,3.26171875
,71.0646129,3.2275390625
,71.0855791,3.134765625
,71.0928278,3.02734375
,71.1126733,2.9296875
,71.1493842,2.822265625
,71.153926,2.71484375
,71.1735652,2.607421875
,71.1913992,2.490234375
,71.2266552,2.3779296875
,71.2324599,2.265625
,71.2662397,2.1484375
,71.2707948,2.0458984375
,71.3057853,1.9482421875
,71.3268025,1.845703125
,71.3342866,1.748046875
,71.3694481,1.650390625
,71.3700534,1.5673828125
,71.4079066,1.484375
,71.4126404,1.4111328125
,71.4508442,1.3037109375
,71.451218,1.2548828125
,71.4855025,1.1865234375
,71.5137566,1.1328125
,71.514168,1.064453125
,71.5315829,1.0107421875
,71.5763587,0.9423828125
,71.5768254,0.888671875
,71.5916758,0.8544921875
,71.6398527,0.927734375
,71.6405636,1.123046875
,71.6552457,1.3720703125
,71.6730876,1.611328125
,71.70887,1.875
,71.7151488,2.0947265625
,71.7510231,2.3046875
,71.7516148,2.4951171875
,71.7859627,2.6953125
,71.811279,2.8466796875
,71.8116547,2.96875
,71.8455268,3.0322265625
,71.8659916,3.0419921875
,71.873874,3.0126953125
,71.9091473,2.94921875
,71.9115325,2.8955078125
,71.9490226,2.822265625
,71.9496584,2.744140625
,71.9967713,2.6513671875
,71.9973895,2.5537109375
,72.0132943,2.451171875
,72.050846,2.34375
,72.0547658,2.236328125
,72.0899563,2.12890625
,72.0905474,2.0361328125
,72.1251054,1.9482421875
,72.1464531,1.8603515625
,72.1514305,1.7724609375
,72.1872122,1.6943359375
,72.2078286,1.62109375
,72.2139169,1.5478515625
,72.2347451,1.474609375
,72.270558,1.40625
,72.2710565,1.337890625
,72.3065048,1.259765625
,72.3263757,1.1962890625
,72.3320921,1.15234375
,72.3704455,1.09375
,72.3752253,1.0498046875
,72.410963,0.99609375
,72.4137724,0.9619140625
,72.4490564,0.9521484375
,72.4698034,1.103515625
,72.4730287,1.2744140625
,72.4934876,1.513671875
,72.5285319,1.7333984375
,72.5567158,1.953125
,72.5570832,2.12890625
,72.5753155,2.3095703125
,72.6178618,2.4560546875
,72.6182371,2.5830078125
,72.6387444,2.67578125
,72.6513778,2.7294921875
,72.6871512,2.744140625
,72.6919043,2.7294921875
,72.727493,2.685546875
,72.7577724,2.63671875
,72.7581863,2.5732421875
,72.7738692,2.5146484375
,72.8114753,2.44140625
,72.8120943,2.3681640625
,72.8501538,2.294921875
,72.854869,2.216796875
,72.8909753,2.1337890625
,72.894295,2.0556640625
,72.9311496,1.9677734375
,72.9356027,1.8896484375
,72.9569331,1.806640625
,72.9929735,1.7333984375
,72.9934738,1.6552734375
,73.0130383,1.5869140625
,73.0321567,1.5185546875
,73.0666379,1.4599609375
,73.0866363,1.396484375
,73.0942336,1.30859375
,73.1326626,1.259765625
,73.1332539,1.2060546875
,73.1777431,1.1474609375
,73.1780957,1.09375
,73.2087494,1.0205078125
,73.212954,1.0107421875
,73.2498482,1.0595703125
,73.2549492,1.1669921875
,73.2899473,1.3525390625
,73.2960543,1.5576171875
,73.3173315,1.7822265625
,73.3638366,1.97265625
,73.3641997,2.1630859375
,73.3720523,2.3291015625
,73.4095155,2.5
,73.4154599,2.63671875
,73.4579892,2.7685546875
,73.4584406,2.8466796875
,73.4750018,2.8857421875
,73.5085528,2.8759765625
,73.5292849,2.83203125
,73.5382584,2.7685546875
,73.5544997,2.6904296875
,73.5894139,2.6220703125
,73.5945116,2.5439453125
,73.6142699,2.4658203125
,73.6481508,2.3779296875
,73.6698013,2.2900390625
,73.6758204,2.1923828125
,73.7107425,2.109375
,73.7313576,2.021484375
,73.7344753,1.943359375
,73.7844386,1.8603515625
,73.7849726,1.7822265625
,73.7940877,1.6943359375
,73.8290184,1.611328125
,73.849003,1.5283203125
,73.854819,1.4501953125
,73.8910865,1.3720703125
,73.9108733,1.298828125
,73.9171637,1.1962890625
,73.9513853,1.1279296875
,73.9542609,1.07421875
,73.988177,0.99609375
,74.010274,0.95703125
,74.0171544,0.8935546875
,74.0517893,0.8447265625
,74.0580468,0.771484375
,74.0776842,0.8935546875
,74.0949907,1.064453125
,74.1147673,1.34765625
,74.1488814,1.552734375
,74.1703921,1.7626953125
,74.175482,1.962890625
,74.2115402,2.12890625
,74.2173742,2.294921875
,74.2641184,2.4365234375
,74.2647184,2.5732421875
,74.2755001,2.666015625
,74.2953858,2.7197265625
,74.3412188,2.724609375
,74.3418522,2.6953125
,74.3578188,2.63671875
,74.4030216,2.568359375
,74.4033973,2.490234375
,74.4171018,2.40234375
,74.4350147,2.3193359375
,74.4819217,2.236328125
,74.4823545,2.1533203125
,74.5021675,2.080078125
,74.5153191,1.9970703125
,74.5503939,1.9091796875
,74.5716328,1.8212890625
,74.5784954,1.73828125
,74.5972802,1.6455078125
,74.6347408,1.5625
,74.6369496,1.474609375
,74.6839827,1.3916015625
,74.6845694,1.318359375
,74.6949455,1.2255859375
,74.7304279,1.15234375
,74.7502222,1.083984375
,74.7582908,1.025390625
,74.7778859,0.966796875
,74.8127261,0.888671875
,74.8344588,0.76171875
,74.8349778,0.712890625
,74.8722687,0.6640625
,74.8756629,0.6298828125
,74.9178113,0.6689453125
,74.9182528,0.78125
,74.9397689,0.9716796875
,74.9590675,1.181640625
,74.9792232,1.4013671875
,74.9968629,1.6064453125
,75.041478,1.81640625
,75.0420345,1.9775390625
,75.0553919,2.12890625
,75.0886693,2.2509765625
,75.1103657,2.3291015625
,75.1191274,2.3828125
,75.1556382,2.3974609375
,75.158661,2.3828125
,75.1756566,2.3388671875
,75.2129228,2.2900390625
,75.2156051,2.236328125
,75.2363485,2.177734375
,75.2751518,2.1240234375
,75.277428,2.0703125
,75.3128642,2.0068359375
,75.3178673,1.9384765625
,75.3556952,1.8701171875
,75.3607174,1.7919921875
,75.3773911,1.7236328125
,75.3965072,1.6552734375
,75.4468854,1.58203125
,75.4472378,1.5087890625
,75.4576746,1.435546875
,75.4930317,1.3623046875
,75.524865,1.2939453125
,75.525353,1.2060546875
,75.5394107,1.1376953125
,75.5575459,1.0791015625
,75.5922202,1.0302734375
,75.5977051,0.9814453125
,75.6375396,0.9375
,75.6378898,0.8935546875
,75.6822701,0.8447265625
,75.6827051,0.732421875
,75.7121219,0.7861328125
,75.7146521,0.8984375
,75.7502302,1.1083984375
,75.7726583,1.3232421875
,75.7776959,1.5625
,75.7983318,1.787109375
,75.8402178,1.982421875
,75.8406809,2.1728515625
,75.8743704,2.333984375
,75.8792144,2.470703125
,75.8955294,2.6025390625
,75.931773,2.7099609375
,75.9527834,2.7490234375
,75.958476,2.7587890625
,75.9785557,2.705078125
,76.013905,2.6416015625
,76.0183241,2.5830078125
,76.054979,2.5048828125
,76.0609965,2.4267578125
,76.080644,2.34375
,76.1206804,2.2607421875
,76.1211629,2.16796875
,76.1545242,2.0947265625
,76.1588147,2.0166015625
,76.1781615,1.9384765625
,76.2141811,1.8505859375
,76.2463328,1.767578125
,76.2469216,1.6796875
,76.2620376,1.6015625
,76.2776018,1.5185546875
,76.3233103,1.455078125
,76.3236651,1.3818359375
,76.343877,1.318359375
,76.3586588,1.23046875
,76.4009428,1.1669921875
,76.4012986,1.083984375
,76.4221369,0.986328125
,76.4421229,0.9375
,76.4574483,0.87890625
,76.4780048,0.8447265625
,76.5128161,0.947265625
,76.5329843,1.0888671875
,76.5395111,1.2646484375
,76.574953,1.4794921875
,76.595764,1.689453125
,76.6005304,1.904296875
,76.6167852,2.0947265625
,76.6665602,2.3046875
,76.6669157,2.4853515625
,76.678436,2.666015625
,76.7135763,2.8125
,76.7337506,2.919921875
,76.7388898,3.0126953125
,76.7758922,3.0029296875
,76.7809181,2.9638671875
,76.8166005,2.8857421875
,76.821858,2.8125
,76.8390975,2.7294921875
,76.858425,2.6416015625
,76.902027,2.5439453125
,76.9026005,2.4462890625
,76.9319857,2.34375
,76.9412399,2.236328125
,76.9767723,2.1240234375
,76.981995,2.0263671875
,76.9974792,1.923828125
,77.0406365,1.826171875
,77.0411728,1.73828125
,77.0714637,1.650390625
,77.0793222,1.5576171875
,77.1148843,1.46484375
,77.1357051,1.357421875
,77.1408856,1.26953125
,77.174856,1.1962890625
,77.1963413,1.123046875
,77.1994283,1.0400390625
,77.2394361,0.9814453125
,77.2398063,0.927734375
,77.273852,0.7763671875
,77.2938972,0.7275390625
,77.3005856,0.732421875
,77.3376922,0.6982421875
,77.3380399,0.7958984375
,77.3654169,0.9912109375
,77.3806952,1.240234375
,77.400867,1.474609375
,77.4201231,1.7431640625
,77.4599596,1.962890625
,77.4606428,2.1826171875
,77.4938592,2.3681640625
,77.5151978,2.5537109375
,77.5223169,2.7001953125
,77.568948,2.8173828125
,77.5695359,2.8662109375
,77.5803789,2.8759765625
,77.6003606,2.8369140625
,77.6470638,2.7734375
,77.6474938,2.6904296875
,77.6602894,2.6025390625
,77.7095143,2.509765625
,77.7100859,2.4169921875
,77.7227398,2.32421875
,77.7384492,2.2216796875
,77.7738963,2.1337890625
,77.7938076,2.041015625
,77.800699,1.9482421875
,77.8502365,1.8603515625
,77.850749,1.7724609375
,77.8810244,1.6845703125
,77.8813826,1.591796875
,77.9285095,1.50390625
,77.9290392,1.416015625
,77.9392303,1.3232421875
,77.9758375,1.2158203125
,77.9947337,1.1474609375
,78.0001976,1.07421875
,78.0364303,1.005859375
,78.0563139,0.9326171875
,78.0639762,0.8642578125
,78.0804438,0.791015625
,78.0998124,0.7177734375
,78.1361256,0.6298828125
,78.1411892,0.6396484375
,78.1777767,0.7275390625
,78.1802508,0.9033203125
,78.2154261,1.11328125
,78.2356475,1.4111328125
,78.2428381,1.6455078125
,78.2786169,1.8798828125
,78.278972,2.0751953125
,78.3152776,2.2705078125
,78.3357975,2.4267578125
,78.3405985,2.578125
,78.3626097,2.67578125
,78.3823558,2.71484375
,78.4222975,2.7099609375
,78.4228342,2.67578125
,78.4420155,2.6123046875
,78.4609238,2.5390625
,78.4965071,2.4658203125
,78.5013782,2.3876953125
,78.5468871,2.3046875
,78.547462,2.2265625
,78.5614787,2.138671875
,78.6098101,2.060546875
,78.6103796,1.982421875
,78.6405958,1.904296875
,78.6411731,1.826171875
,78.6776171,1.7431640625
,78.6812241,1.66015625
,78.7016348,1.572265625
,78.7363125,1.484375
,78.7587331,1.40625
,78.7648145,1.3232421875
,78.7849597,1.2255859375
,78.8005695,1.15234375
,78.8351015,1.09375
,78.8570658,1.015625
,78.8613809,0.9814453125
,78.8822228,0.8984375
,78.9206491,0.849609375
,78.9503458,0.80078125
,78.9507138,0.830078125
,78.9650821,0.9326171875
,79.0122006,1.1376953125
,79.0125803,1.416015625
,79.0217842,1.640625
,79.057234,1.8896484375
,79.0616018,2.109375
,79.1045427,2.32421875
,79.1052077,2.509765625
,79.123712,2.6953125
,79.1676256,2.822265625
,79.1682173,2.9052734375
,79.1872462,2.9296875
,79.2011139,2.9150390625
,79.2457825,2.8564453125
,79.2462591,2.783203125
,79.2623108,2.6953125
,79.2972625,2.6025390625
,79.3180801,2.5146484375
,79.3246724,2.412109375
,79.3607641,2.314453125
,79.3611327,2.2119140625
,79.395243,2.1240234375
,79.4155949,2.03125
,79.4235703,1.9384765625
,79.4585162,1.8408203125
,79.4638793,1.7431640625
,79.510621,1.650390625
,79.5109924,1.5625
,79.5219193,1.4697265625
,79.5586273,1.3916015625
,79.5640142,1.2890625
,79.5998005,1.2109375
,79.6003214,1.1376953125
,79.6363506,1.0693359375
,79.6574102,1.0107421875
,79.6649833,0.947265625
,79.7131634,0.888671875
,79.7135206,0.8203125
,79.7262352,0.7421875
,79.7425669,0.8544921875
,79.7777159,0.9619140625
,79.7981849,1.220703125
,79.8036244,1.4990234375
,79.8401249,1.7529296875
,79.8448638,2.01171875
,79.8804804,2.2509765625
,79.8872447,2.509765625
,79.9016835,2.734375
,79.9370309,2.9541015625
,79.9609016,3.125
,79.9633829,3.2861328125
,79.9991223,3.33984375
,80.0051714,3.3154296875
,80.0252348,3.2421875
,80.0634003,3.14453125
,80.0639734,3.037109375
,80.0816438,2.919921875
,80.1183049,2.802734375
,80.1225676,2.685546875
,80.1629664,2.548828125
,80.1635586,2.431640625
,80.1960916,2.3095703125
,80.2166129,2.1875
,80.2239917,2.0751953125
,80.2573085,1.9677734375
,80.2624051,1.875
,80.2970943,1.77734375
,80.3171065,1.6845703125
,80.322801,1.591796875
,80.3582591,1.50390625
,80.3793113,1.396484375
,80.3851768,1.30859375
,80.4055845,1.2451171875
,80.4417402,1.181640625
,80.4758771,1.1181640625
,80.4763086,1.0546875
,80.4849285,1.0009765625
,80.5206128,0.9423828125
,80.5253925,0.8935546875
,80.5443939,0.8837890625
,80.5829305,0.966796875
,80.6028953,1.15234375
,80.6059377,1.376953125
,80.6262236,1.6455078125
,80.6436065,1.904296875
,80.6800743,2.1826171875
,80.6841501,2.421875
,80.7251648,2.6708984375
,80.7255297,2.890625
,80.7604396,3.0712890625
,80.7824854,3.18359375
,80.7872583,3.2958984375
,80.8041385,3.271484375
,80.8529123,3.1884765625
,80.8533403,3.0908203125
,80.8654694,2.9833984375
,80.9153551,2.8466796875
,80.9157311,2.724609375
,80.9244397,2.6025390625
,80.9617164,2.4853515625
,80.9920671,2.3583984375
,80.9926532,2.2412109375
,81.0035039,2.12890625
,81.0393143,2.021484375
,81.0693256,1.9140625
,81.0700071,1.8115234375
,81.0854479,1.708984375
,81.1291525,1.611328125
,81.1297688,1.5087890625
,81.1507731,1.4111328125
,81.1673191,1.30859375
,81.1836002,1.1962890625
,81.2234415,1.123046875
,81.2429119,1.0498046875
,81.245851,0.9912109375
,81.2869974,0.908203125
,81.2875671,0.80078125
,81.3241283,0.7470703125
,81.328628,0.7421875
,81.3788982,0.6494140625
,81.379233,0.703125
,81.3831561,0.849609375
,81.4219,1.09375
,81.4278095,1.3623046875
,81.4464974,1.6259765625
,81.4675877,1.875
,81.5036945,2.0947265625
,81.5061942,2.3193359375
,81.5224144,2.490234375
,81.558154,2.65625
,81.5799418,2.7734375
,81.5846656,2.8173828125
,81.6193771,2.8076171875
,81.6403468,2.7587890625
,81.6477786,2.67578125
,81.682363,2.5927734375
,81.6865012,2.4951171875
,81.7049717,2.40234375
,81.7398237,2.3095703125
,81.7453014,2.216796875
,81.7814735,2.119140625
,81.7847883,2.03125
,81.8050753,1.943359375
,81.843336,1.8505859375
,81.8466325,1.7529296875
,81.8916928,1.6650390625
,81.8920603,1.572265625
,81.9125336,1.484375
,81.9252164,1.396484375
,81.971018,1.2939453125
,81.9713746,1.220703125
,82.0022436,1.1572265625
,82.0080715,1.0888671875
,82.0279125,1.025390625
,82.0619477,0.9521484375
,82.0818102,0.859375
,82.084468,0.80078125
,82.1192176,0.76171875
,82.140088,0.7275390625
,82.1455566,0.72265625
,82.1821648,0.7861328125
,82.2049541,0.9716796875
,82.2052758,1.220703125
,82.2393493,1.4794921875
,82.2611654,1.7724609375
,82.2652908,2.0166015625
,82.2995649,2.2509765625
,82.3197476,2.4560546875
,82.3270187,2.6513671875
,82.3476984,2.8076171875
,82.3690407,2.9150390625
,82.4052626,2.9541015625
,82.4080501,2.939453125
,82.4249251,2.8857421875
,82.461079,2.8173828125
,82.4651822,2.7294921875
,82.5019562,2.63671875
,82.5065061,2.548828125
,82.5417107,2.4560546875
,82.5462784,2.353515625
,82.5818066,2.2509765625
,82.6021713,2.1484375
,82.6090996,2.0556640625
,82.6439928,1.9677734375
,82.6641072,1.875
,82.6658306,1.7919921875
,82.7021229,1.7041015625
,82.7077082,1.6259765625
,82.7505247,1.54296875
,82.7510787,1.4599609375
,82.7673195,1.3818359375
,82.8030306,1.2890625
,82.8233771,1.2060546875
,82.8240575,1.1474609375
,82.8585971,1.083984375
,82.8801444,1.025390625
,82.8871776,0.9619140625
,82.9230579,0.9130859375
,82.9277968,0.888671875
,82.9670235,0.9375
,82.9676088,1.0986328125
,83.0027629,1.30859375
,83.0074838,1.5771484375
,83.0424183,1.8359375
,83.047281,2.1044921875
,83.083121,2.3388671875
,83.0893367,2.5830078125
,83.1089396,2.7978515625
,83.1459909,2.98828125
,83.151431,3.1298828125
,83.1657308,3.1982421875
,83.2008229,3.2568359375
,83.2226848,3.2177734375
,83.2267571,3.1201171875
,83.2614868,2.998046875
,83.2823496,2.87109375
,83.2902302,2.7490234375
,83.3262069,2.6220703125
,83.3293056,2.5048828125
,83.3666617,2.3779296875
,83.3672305,2.2509765625
,83.4007607,2.138671875
,83.421762,2.0361328125
,83.4285003,1.93359375
,83.4684306,1.8310546875
,83.4688765,1.73828125
,83.5062151,1.6357421875
,83.510636,1.5380859375
,83.5314693,1.4453125
,83.5470138,1.3427734375
,83.5831139,1.2548828125
,83.6027524,1.1767578125
,83.6078095,1.103515625
,83.6531499,1.0302734375
,83.6535259,0.966796875
,83.6689685,0.9033203125
,83.7171294,0.8251953125
,83.7177438,0.751953125
,83.7265891,0.712890625
,83.7643379,0.6787109375
,83.7942958,0.7275390625
,83.7948673,0.9765625
,83.810393,1.220703125
,83.8451491,1.494140625
,83.8507936,1.7578125
,83.8703123,2.0361328125
,83.887303,2.275390625
,83.9316569,2.5341796875
,83.9321254,2.763671875
,83.9474767,2.9638671875
,83.9805348,3.1005859375
,84.0020677,3.2421875
,84.0102857,3.2421875
,84.0563688,3.1884765625
,84.0568928,3.095703125
,84.072027,2.978515625
,84.0873707,2.8466796875
,84.122012,2.7294921875
,84.1288902,2.607421875
,84.1509931,2.48046875
,84.1700902,2.3486328125
,84.1895597,2.2265625
,84.2263294,2.1044921875
,84.2309359,1.9921875
,84.2675937,1.884765625
,84.2680854,1.77734375
,84.3018616,1.6796875
,84.3228418,1.58203125
,84.328386,1.4794921875
,84.3654554,1.3818359375
,84.3707905,1.259765625
,84.4047164,1.1572265625
,84.4261834,1.07421875
,84.4329681,0.9912109375
,84.4494467,0.9130859375
,84.4845938,0.830078125
,84.4881373,0.7421875
,84.538632,0.6494140625
,84.5389916,0.5908203125
,84.5505219,0.5419921875
,84.5863049,0.498046875
,84.6066832,0.52734375
,84.6070522,0.6298828125
,84.6410387,0.849609375
,84.6608745,1.103515625
,84.6703805,1.4111328125
,84.7072943,1.689453125
,84.711796,1.93359375
,84.7306816,2.1435546875
,84.7658919,2.34375
,84.7883185,2.5146484375
,84.7912285,2.626953125
,84.8274139,2.705078125
,84.8279098,2.71484375
,84.860559,2.6904296875
,84.8812828,2.626953125
,84.8900278,2.5439453125
,84.9283713,2.451171875
,84.930511,2.3486328125
,84.9660496,2.2509765625
,84.9867649,2.1533203125
,84.9901585,2.0703125
,85.0237717,1.9921875
,85.030919,1.9091796875
,85.0512343,1.8212890625
,85.0711112,1.7333984375
,85.0926065,1.6455078125
,85.1114946,1.5478515625
,85.1491349,1.4599609375
,85.1536926,1.3720703125
,85.1682153,1.25
,85.2048541,1.1767578125
,85.2257104,1.0986328125
,85.2303302,1.0107421875
,85.2678614,0.95703125
,85.2729783,0.9033203125
,85.3102149,0.83984375
,85.313366,0.78125
,85.3282937,0.654296875
,85.3657601,0.615234375
,85.3709052,0.5712890625
,85.4071289,0.5908203125
,85.4121281,0.7177734375
,85.4462489,0.9228515625
,85.4532627,1.2060546875
,85.4720528,1.4892578125
,85.5078053,1.7431640625
,85.528904,1.9775390625
,85.5332087,2.20703125
,85.5507928,2.40234375
,85.5993639,2.5830078125
,85.5997578,2.7197265625
,85.6107508,2.8076171875
,85.6488341,2.83203125
,85.6519437,2.8173828125
,85.6876729,2.75390625
,85.6937693,2.666015625
,85.7297769,2.568359375
,85.7301861,2.470703125
,85.7668592,2.3779296875
,85.7697149,2.28515625
,85.8081169,2.1875
,85.8100073,2.0947265625
,85.8471819,2.001953125
,85.8524422,1.9091796875
,85.8868213,1.81640625
,85.9078576,1.71875
,85.9103833,1.6357421875
,85.9462288,1.54296875
,85.9511631,1.455078125
,85.9719977,1.3720703125
,86.0178215,1.259765625
,86.0181916,1.171875
,86.0346846,1.103515625
,86.080514,1.0302734375
,86.0811186,0.9716796875
,86.090014,0.9033203125
,86.1250306,0.771484375
,86.1455636,0.7568359375
,86.1530352,0.6884765625
,86.1894314,0.6396484375
,86.1947555,0.703125
,86.2292401,0.8447265625
,86.2339271,1.064453125
,86.2705387,1.337890625
,86.270896,1.6455078125
,86.3058854,1.9140625
,86.3259397,2.1533203125
,86.3312677,2.3876953125
,86.3663162,2.6025390625
,86.3871608,2.7783203125
,86.3952108,2.9248046875
,86.4149108,3.0419921875
,86.448943,3.0615234375
,86.4693572,3.02734375
,86.4697208,2.96875
,86.5051072,2.861328125
,86.5319565,2.744140625
,86.5323102,2.6220703125
,86.5678256,2.5146484375
,86.5888238,2.4072265625
,86.5945071,2.294921875
,86.6103949,2.1826171875
,86.6557515,2.0849609375
,86.6563336,1.982421875
,86.6858233,1.8896484375
,86.6912502,1.7822265625
,86.7283956,1.6796875
,86.7633655,1.58203125
,86.7637231,1.484375
,86.7752158,1.38671875
,86.7902097,1.279296875
,86.8404451,1.181640625
,86.840972,1.103515625
,86.852856,1.025390625
,86.8740651,0.9033203125
,86.9104316,0.8447265625
,86.9150134,0.791015625
,86.9620132,0.7177734375
,86.9624187,0.6591796875
,86.9767449,0.6103515625
,87.013231,0.5859375
,87.0136465,0.6103515625
,87.0577749,0.7568359375
,87.0583452,0.9716796875
,87.0730967,1.26953125
,87.1108676,1.5625
,87.1158424,1.875
,87.1345585,2.1142578125
,87.1702432,2.36328125
,87.1706017,2.568359375
,87.1902003,2.7734375
,87.2294748,2.9150390625
,87.2579259,3.0126953125
,87.2582925,3.095703125
,87.2746742,3.0712890625
,87.3099655,2.978515625
,87.3147696,2.8857421875
,87.3503563,2.7685546875
,87.3508057,2.65625
,87.3718307,2.5439453125
,87.4090036,2.431640625
,87.4135382,2.3193359375
,87.4339149,2.2021484375
,87.4744134,2.0947265625
,87.4747796,1.9921875
,87.4976698,1.8896484375
,87.5113052,1.7822265625
,87.5463058,1.6796875
,87.5672448,1.5869140625
,87.5743397,1.494140625
,87.5939113,1.4013671875
,87.629946,1.2744140625
,87.6328152,1.1865234375
,87.6696229,1.09375
,87.6896957,1.0107421875
,87.6967902,0.9326171875
,87.7411194,0.859375
,87.7414775,0.7958984375
,87.7552192,0.732421875
,87.7896466,0.6103515625
,87.7946867,0.5712890625
,87.8341057,0.5029296875
,87.83447,0.4833984375
,87.8689943,0.52734375
,87.8899924,0.6982421875
,87.8904729,0.9375
,87.9283498,1.259765625
,87.9485447,1.54296875
,87.9557018,1.8212890625
,87.9919097,2.0654296875
,87.9965257,2.265625
,88.033657,2.44140625
,88.0342245,2.5732421875
,88.0692743,2.6708984375
,88.0911089,2.7099609375
,88.09153,2.71484375
,88.1287495,2.6708984375
,88.1494067,2.59765625
,88.1555235,2.5146484375
,88.194539,2.4267578125
,88.1951208,2.3388671875
,88.2422866,2.2509765625
,88.2427375,2.1630859375
,88.2546597,2.0849609375
,88.291053,2.01171875
,88.2957408,1.93359375
,88.3308357,1.845703125
,88.3349192,1.7578125
,88.3699855,1.6748046875
,88.3901567,1.591796875
,88.3944519,1.50390625
,88.4314977,1.42578125
,88.4519444,1.3232421875
,88.4523111,1.2353515625
,88.4920259,1.171875
,88.4923944,1.0986328125
,88.5347314,1.03515625
,88.5350981,0.9716796875
,88.5560555,0.927734375
,88.5920272,0.8642578125
,88.5970872,0.8251953125
,88.6307012,0.78125
,88.652321,0.7470703125
,88.6529125,0.771484375
,88.6893212,0.87890625
,88.7215215,1.09375
,88.7218868,1.34765625
,88.7378209,1.630859375
,88.7724,1.8896484375
,88.7769794,2.138671875
,88.7924928,2.34375
,88.8265783,2.5537109375
,88.8470259,2.7197265625
,88.8565233,2.8662109375
,88.8753497,2.939453125
,88.9101891,2.96875
,88.9307688,2.94921875
,88.9385374,2.8857421875
,88.9578343,2.8076171875
,88.9733333,2.71484375
,89.0082163,2.626953125
,89.0301301,2.5390625
,89.0352263,2.4462890625
,89.0807372,2.353515625
,89.0811205,2.255859375
,89.1023999,2.158203125
,89.1193073,2.0703125
,89.1376033,1.9775390625
,89.1747671,1.884765625
,89.1753539,1.7919921875
,89.1942741,1.7041015625
,89.2288754,1.62109375
,89.2498603,1.54296875
,89.2559575,1.455078125
,89.2902483,1.3671875
,89.3110795,1.2939453125
,89.3193723,1.19140625
,89.363759,1.1083984375
,89.3641142,1.0498046875
,89.3768841,1.005859375
,89.3967808,0.9423828125
,89.4319878,0.888671875
,89.4368318,0.8349609375
,89.4737247,0.8203125
,89.4793302,0.8740234375
,89.4981339,1.044921875
,89.5157382,1.26953125
,89.5499986,1.5625
,89.5555429,1.85546875
,89.5759955,2.1044921875
,89.6267052,2.3583984375
,89.6272538,2.587890625
,89.6570552,2.8173828125
,89.6574165,3.0029296875
,89.6923759,3.1884765625
,89.7140658,3.2763671875
,89.7145683,3.30078125
,89.75179,3.26171875
,89.7567392,3.18359375
,89.8042289,3.0810546875
,89.8046516,2.96875
,89.8247724,2.8466796875
,89.8387144,2.7294921875
,89.8611451,2.6171875
,89.8803811,2.5048828125
,89.9154552,2.3876953125
,89.9159054,2.2705078125
,89.958369,2.158203125
,89.9589194,2.060546875
,90.0052914,1.962890625
,90.0057603,1.8701171875
,90.0191803,1.767578125
,90.03775,1.669921875
,90.0827384,1.5771484375
,90.0831365,1.494140625
,90.104918,1.4013671875
,90.1176229,1.318359375
,90.1378102,1.23046875
,90.1590988,1.1669921875
,90.2076407,1.0986328125
,90.2079664,1.0400390625
,90.2188079,0.9765625
,90.2547339,0.91796875
,90.2557188,0.8740234375
,90.2995168,0.8984375
,90.2999335,0.99609375
,90.3169628,1.2158203125
,90.3611502,1.46484375
,90.3616728,1.7529296875
,90.3787207,2.0068359375
,90.4131955,2.2509765625
,90.4352802,2.470703125
,90.4357989,2.7001953125
,90.4728855,2.9345703125
,90.498914,3.06640625
,90.4993595,3.1689453125
,90.5343995,3.1884765625
,90.5407686,3.14453125
,90.5588681,3.076171875
,90.5936351,2.98828125
,90.6161864,2.890625
,90.62132,2.7783203125
,90.6357882,2.6806640625
,90.6853249,2.578125
,90.6856822,2.4609375
,90.7071508,2.353515625
,90.7190955,2.2509765625
,90.7545087,2.138671875
,90.7595759,2.041015625
,90.7949227,1.9384765625
,90.8272374,1.8408203125
,90.8278118,1.7431640625
,90.8383133,1.650390625
,90.8732423,1.5625
,90.877039,1.474609375
,90.9116612,1.3916015625
,90.9324103,1.2939453125
,90.9421963,1.2109375
,90.9602145,1.1474609375
,90.9761094,1.0791015625
,91.0144249,1.025390625
,91.0168399,0.966796875
,91.053463,0.91796875
,91.0598633,0.8935546875
,91.0932196,0.9912109375
,91.099916,1.15234375
,91.1408672,1.3916015625
,91.1412975,1.630859375
,91.1566627,1.9091796875
,91.2035132,2.1533203125
,91.2040848,2.36328125
,91.2337396,2.5732421875
,91.2385287,2.7490234375
,91.27594,2.900390625
,91.279,3.0322265625
,91.3158494,3.0712890625
,91.3431867,3.0615234375
,91.3436376,2.9833984375
,91.3585882,2.9052734375
,91.394382,2.8173828125
,91.3992997,2.7294921875
,91.4354475,2.6318359375
,91.4399411,2.5341796875
,91.4749047,2.431640625
,91.4811512,2.32421875
,91.5284577,2.216796875
,91.5288102,2.1142578125
,91.5376504,2.01171875
,91.5742814,1.9287109375
,91.6035615,1.8310546875
,91.6040669,1.7431640625
,91.6196925,1.6552734375
,91.6534602,1.572265625
,91.6734991,1.4892578125
,91.683226,1.4208984375
,91.698105,1.3232421875
,91.733486,1.259765625
,91.753447,1.1962890625
,91.7603975,1.1328125
,91.8070207,1.064453125
,91.8073725,1.0107421875
,91.8205601,0.9716796875
,91.8582883,0.9326171875
,91.8629911,1.044921875
,91.8777468,1.25
,91.9170382,1.552734375
,91.9175997,1.8212890625
,91.9513875,2.0703125
,91.9719862,2.3046875
,91.9816724,2.5390625
,92.0191647,2.7490234375
,92.0195402,2.9443359375
,92.0558071,3.154296875
,92.0844703,3.2470703125
,92.084819,3.2763671875
,92.1002043,3.2470703125
,92.1197968,3.1884765625
,92.1554222,3.1103515625
,92.1604277,2.998046875
,92.208993,2.87109375
,92.2093538,2.7734375
,92.2296737,2.65625
,92.2424286,2.5390625
,92.2580595,2.4169921875
,92.2944785,2.2998046875
,92.3010017,2.16796875
,92.3384201,2.0654296875
,92.339008,1.962890625
,92.3750297,1.865234375
,92.3959445,1.767578125
,92.4008258,1.669921875
,92.4189124,1.5771484375
,92.4549764,1.4990234375
,92.4596688,1.4208984375
,92.4947806,1.328125
,92.4988727,1.2548828125
,92.5379318,1.171875
,92.5584924,1.1083984375
,92.5590068,1.0400390625
,92.5998693,0.9814453125
,92.6002286,0.91796875
,92.6208115,0.8544921875
,92.6403171,0.8056640625
,92.6743922,0.9619140625
,92.6785694,1.1181640625
,92.7137654,1.42578125
,92.7340192,1.7041015625
,92.7438413,1.982421875
,92.7627656,2.24609375
,92.8034195,2.4853515625
,92.8039356,2.7392578125
,92.8204538,2.958984375
,92.8641924,3.22265625
,92.8645533,3.359375
,92.8838763,3.447265625
,92.9170143,3.447265625
,92.9214805,3.388671875
,92.9560044,3.2861328125
,92.9795603,3.173828125
,92.9802117,3.046875
,93.0162737,2.9296875
,93.0197479,2.79296875
,93.0588901,2.666015625
,93.0593225,2.529296875
,93.0956425,2.3974609375
,93.1282413,2.2607421875
,93.1288189,2.138671875
,93.1428077,2.021484375
,93.1589357,1.9091796875
,93.1965078,1.8017578125
,93.199957,1.69921875
,93.2513659,1.6064453125
,93.2517343,1.5087890625
,93.2619497,1.4111328125
,93.297752,1.3134765625
,93.3023435,1.2255859375
,93.3207239,1.123046875
,93.3555463,1.0498046875
,93.3606114,0.986328125
,93.3973575,0.9228515625
,93.4017903,0.859375
,93.4536438,0.7861328125
,93.4540229,0.703125
,93.4628617,0.625
,93.4987613,0.6103515625
,93.5038072,0.6884765625
,93.5412195,0.888671875
,93.5417816,1.1767578125
,93.5781333,1.484375
,93.5814521,1.7626953125
,93.6165677,2.0556640625
,93.623134,2.2998046875
,93.6676146,2.5390625
,93.6679783,2.75390625
,93.6836044,2.9443359375
,93.7010328,3.125
,93.7369575,3.212890625
,93.7419038,3.2177734375
,93.7764408,3.1591796875
,93.7820679,3.0712890625
,93.8223075,2.958984375
,93.8226629,2.841796875
,93.8590516,2.7197265625
,93.8801297,2.6025390625
,93.8805969,2.470703125
,93.9174276,2.353515625
,93.9226177,2.236328125
,93.959165,2.1142578125
,93.9601223,2.01171875
,93.997132,1.904296875
,94.0184797,1.796875
,94.0239364,1.6943359375
,94.0595974,1.591796875
,94.0599907,1.4892578125
,94.1000677,1.3916015625
,94.1004271,1.2890625
,94.1214273,1.1865234375
,94.1633229,1.0986328125
,94.1639022,1.0205078125
,94.198734,0.947265625
,94.2191296,0.8349609375
,94.2248599,0.7666015625
,94.2615605,0.7080078125
,94.2621225,0.625
,94.2983813,0.546875
,94.3026735,0.4931640625
,94.3480398,0.4296875
,94.3484971,0.4052734375
,94.3627976,0.48828125
,94.3981475,0.693359375
,94.4196278,0.95703125
,94.4252824,1.298828125
,94.4418401,1.58203125
,94.4783881,1.8798828125
,94.4836239,2.1142578125
,94.5192818,2.3388671875
,94.5237416,2.5146484375
,94.5595274,2.6708984375
,94.5829275,2.7685546875
,94.5833904,2.8955078125
,94.6195986,2.8662109375
,94.6200037,2.8271484375
,94.6557033,2.744140625
,94.6776527,2.6708984375
,94.6841124,2.5634765625
,94.7033333,2.44140625
,94.7383964,2.3388671875
,94.758712,2.24609375
,94.7657879,2.1533203125
,94.7822709,2.060546875
,94.8318979,1.97265625
,94.8323472,1.884765625
,94.8539285,1.7919921875
,94.8629429,1.6943359375
,94.8992874,1.6015625
,94.9258416,1.513671875
,94.9264166,1.4208984375
,94.9467021,1.2451171875
,94.9829151,1.1767578125
,94.9833815,1.07421875
,95.0028665,1.005859375
,95.0392929,0.95703125
,95.0444753,0.8740234375
,95.0957725,0.8154296875
,95.0961681,0.7568359375
,95.1054661,0.7080078125
,95.1410994,0.6494140625
,95.1453179,0.595703125
,95.1625615,0.5908203125
,95.1979046,0.6640625
,95.2190785,0.8447265625
,95.2242902,1.1328125
,95.2596472,1.4453125
,95.2654007,1.748046875
,95.3026055,1.9970703125
,95.3069644,2.2412109375
,95.3437834,2.470703125
,95.344165,2.6904296875
,95.3797021,2.880859375
,95.3821822,2.96875
,95.4174808,3.037109375
,95.4364603,3.0517578125
,95.4434684,3.0029296875
,95.4784906,2.91015625
,95.4993174,2.8125
,95.5009386,2.685546875
,95.5381718,2.59765625
,95.5439225,2.4951171875
,95.5803863,2.373046875
,95.5846364,2.265625
,95.6193666,2.1533203125
,95.6245878,2.05078125
,95.6599977,1.9580078125
,95.682195,1.85546875
,95.6867458,1.7529296875
,95.7085916,1.650390625
,95.7243106,1.5576171875
,95.74552,1.4599609375
,95.7644747,1.3720703125
,95.8015789,1.259765625
,95.8060652,1.1767578125
,95.8428657,1.09375
,95.8455661,1.005859375
,95.8812465,0.927734375
,95.9021174,0.859375
,95.9052397,0.7470703125
,95.9244045,0.703125
,95.9585805,0.6591796875
,95.9802535,0.6103515625
,95.9870397,0.576171875
,96.0217365,0.6201171875
,96.0289224,0.771484375
,96.063782,1.0400390625
,96.0641389,1.3623046875
,96.0977772,1.6845703125
,96.1194624,1.97265625
,96.1262069,2.2509765625
,96.162606,2.490234375
,96.1648731,2.7490234375
,96.2003465,2.98828125
,96.2213444,3.1689453125
,96.2241921,3.291015625
,96.2717679,3.3349609375
,96.272176,3.310546875
,96.2858894,3.2470703125
,96.3077101,3.1494140625
,96.3250732,3.037109375
,96.3607371,2.91015625
,96.3661326,2.79296875
,96.4013547,2.6708984375
,96.4280805,2.5537109375
,96.428496,2.4267578125
,96.443906,2.2998046875
,96.4907507,2.177734375
,96.4913348,2.0751953125
,96.5111785,1.9677734375
,96.5273266,1.8603515625
,96.5487569,1.7578125
,96.565979,1.66015625
,96.6003264,1.5478515625
,96.6221504,1.455078125
,96.6226845,1.3525390625
,96.6607897,1.25
,96.6815061,1.162109375
,96.6864024,1.0888671875
,96.7218387,1.0107421875
,96.7276592,0.9423828125
,96.7702363,0.8740234375
,96.7708142,0.751953125
,96.7835573,0.7080078125
,96.8197074,0.6787109375
,96.826674,0.634765625
,96.8642287,0.6640625
,96.8651508,0.7958984375
,96.900467,1.044921875
,96.9251257,1.3330078125
,96.929663,1.6796875
,96.949085,1.982421875
,96.9645857,2.236328125
,96.9991775,2.4951171875
,97.0203463,2.734375
,97.0255221,2.998046875
,97.0622717,3.1640625
,97.097632,3.30078125
,97.0982088,3.3251953125
,97.1077523,3.2861328125
,97.1569957,3.22265625
,97.1573545,3.115234375
,97.1778442,2.9931640625
,97.1863441,2.880859375
,97.2225937,2.763671875
,97.2274925,2.63671875
,97.2628527,2.5146484375
,97.2834675,2.3876953125
,97.2881096,2.265625
,97.3293,2.138671875
,97.3300895,2.0263671875
,97.3462654,1.9189453125
,97.3673099,1.81640625
,97.4021648,1.708984375
,97.4093988,1.611328125
,97.4273823,1.5087890625
,97.4624023,1.416015625
,97.483033,1.3232421875
,97.4886539,1.201171875
,97.5053739,1.123046875
,97.5414332,1.0546875
,97.5464286,0.9814453125
,97.5823873,0.908203125
,97.5867961,0.810546875
,97.6222696,0.7470703125
,97.6282013,0.68359375
,97.6638221,0.64453125
,97.6689882,0.634765625
,97.685575,0.72265625
,97.7213194,0.947265625
,97.7263187,1.2255859375
,97.7614874,1.54296875
,97.7828401,1.85546875
,97.7877818,2.1240234375
,97.8297306,2.3583984375
,97.8301382,2.5927734375
,97.8483161,2.8662109375
,97.8850426,3.0517578125
,97.8903038,3.154296875
,97.9079887,3.1201171875
,97.9437803,3.10546875
,97.94904,3.0322265625
,97.9674004,2.9150390625
,98.0026674,2.8125
,98.0321111,2.7001953125
,98.0325487,2.5927734375
,98.0510393,2.4853515625
,98.0670376,2.3779296875
,98.1018284,2.28515625
,98.1068717,2.177734375
,98.1432724,2.0751953125
,98.1490348,1.9775390625
,98.1876081,1.875
,98.1881055,1.77734375
,98.2254097,1.6845703125
,98.2496391,1.5966796875
,98.2501555,1.50390625
,98.2846403,1.4208984375
,98.2901586,1.328125
,98.30923,1.25
,98.327788,1.1328125
,98.3623213,1.064453125
,98.3829601,0.99609375
,98.3902114,0.8837890625
,98.4089321,0.8154296875
,98.426661,0.7666015625
,98.4471228,0.712890625
,98.4849881,0.6787109375
,98.4869229,0.693359375
,98.5296563,0.83984375
,98.5302418,1.0888671875
,98.5589034,1.38671875
,98.5710181,1.73828125
,98.606175,2.021484375
,98.6103706,2.3095703125
,98.6273731,2.5634765625
,98.6640983,2.8271484375
,98.6690866,3.095703125
,98.7069872,3.2861328125
,98.7075619,3.3984375
,98.7444593,3.427734375
,98.7648826,3.4033203125
,98.7709472,3.330078125
,98.7881546,3.2177734375
,98.8228894,3.1005859375
,98.8279588,2.978515625
,98.8626389,2.8662109375
,98.8839918,2.7392578125
,98.8887857,2.6220703125
,98.9249881,2.4951171875
,98.929827,2.36328125
,98.9657664,2.236328125
,98.9661228,2.1142578125
,99.0019098,2.01171875
,99.0240369,1.9091796875
,99.0285685,1.8115234375
,99.0643366,1.7138671875
,99.0856164,1.62109375
,99.0903013,1.5283203125
,99.1105468,1.4453125
,99.1289181,1.3525390625
,99.165129,1.279296875
,99.1697765,1.181640625
,99.213988,1.1083984375
,99.2145689,1.044921875
,99.2297495,0.966796875
,99.2643265,0.8837890625
,99.2842279,0.8056640625
,99.2901698,0.7568359375
,99.3398389,0.7861328125
,99.3402157,0.908203125
,99.3476776,1.142578125
,99.3692715,1.46484375
,99.4052071,1.787109375
,99.4102917,2.08984375
,99.445957,2.3583984375
,99.480287,2.6416015625
,99.4808603,2.9296875
,99.4919503,3.18359375
