fs,t,y
50.92887214412755,0.16086970000000012,1.7578125
,0.16161249999999994,1.767578125
,0.2068487000000001,1.787109375
,0.2075228,1.8115234375
,0.22454770000000002,1.8408203125
,0.24412009999999995,1.8603515625
,0.2798273,1.8798828125
,0.28533680000000006,1.8896484375
,0.3238875000000001,1.8994140625
,0.32456489999999993,1.904296875
,0.3414233000000002,1.9140625
,0.3780633,1.9189453125
,0.3835305,1.923828125
,0.424674,1.9189453125
,0.42519660000000004,1.9091796875
,0.4602379999999999,1.8994140625
,0.46524160000000014,1.8896484375
,0.48076680000000005,1.8798828125
,0.5186552999999998,1.8798828125
,0.5213066,1.875
,0.5576346000000001,1.865234375
,0.5640209999999999,1.8603515625
,0.583926,1.8505859375
,0.6278917000000002,1.8408203125
,0.6285091,1.826171875
,0.6454420999999999,1.81640625
,0.6628224999999999,1.806640625
,0.6817709999999999,1.796875
,0.7165043,1.7919921875
,0.7374673,1.7822265625
,0.7443715000000002,1.7724609375
,0.7794140999999999,1.767578125
,0.7851427000000002,1.7578125
,0.8053951000000001,1.7529296875
,0.8270814,1.748046875
,0.8627723999999999,1.73828125
,0.8661300999999999,1.7333984375
,0.8843774999999998,1.7236328125
,0.9177585000000001,1.7236328125
,0.9243564000000002,1.728515625
,0.9711051999999998,1.7529296875
,0.9717785999999999,1.77734375
,1.0006251000000002,1.806640625
,1.0089454999999998,1.826171875
,1.0258346999999999,1.85546875
,1.0424916,1.8701171875
,1.0798789000000002,1.884765625
,1.0986859,1.89453125
,1.1044926,1.8994140625
,1.1251669,1.8994140625
,1.1586327,1.8994140625
,1.1795402,1.89453125
,1.1890307,1.884765625
,1.2066757,1.875
,1.2234009000000001,1.8603515625
,1.2673315,1.85546875
,1.2679737000000002,1.8505859375
,1.2851270000000001,1.8505859375
,1.3047594,1.845703125
,1.3423191,1.8408203125
,1.3452033,1.8310546875
,1.3811319000000002,1.8212890625
,1.4096612999999998,1.8115234375
,1.4103446000000002,1.806640625
,1.4259919,1.8017578125
,1.4712331,1.7919921875
,1.4720185,1.7919921875
,1.4871371999999998,1.7822265625
,1.5057360000000002,1.7724609375
,1.5267981000000002,1.767578125
,1.5607128000000001,1.7626953125
,1.5830947000000002,1.7529296875
,1.5862257,1.7431640625
,1.6040856,1.73828125
,1.6414284000000001,1.7333984375
,1.6462222999999998,1.728515625
,1.6676489,1.728515625
,1.6863772,1.728515625
,1.7206725,1.7431640625
,1.7247583999999998,1.767578125
,1.7635117999999999,1.796875
,1.7639884000000001,1.81640625
,1.8019406,1.8408203125
,1.8026208000000001,1.85546875
,1.8462613,1.8603515625
,1.8468798999999998,1.865234375
,1.8935665,1.865234375
,1.8942616,1.8603515625
,1.9080057,1.8505859375
,1.9431802999999999,1.8408203125
,1.9708453000000001,1.8310546875
,1.9715280000000002,1.826171875
,1.9840109,1.8212890625
,2.0210665,1.8212890625
,2.0407586,1.826171875
,2.0469499000000004,1.8310546875
,2.0958965999999997,1.8310546875
,2.0967516,1.8310546875
,2.1153762,1.826171875
,2.1268588,1.8212890625
,2.1623808,1.806640625
,2.1653573,1.7919921875
,2.2042526000000002,1.8017578125
,2.205411,1.796875
,2.2424074000000003,1.796875
,2.2482981000000004,1.7919921875
,2.2846417,1.787109375
,2.2877090000000004,1.7822265625
,2.3223401,1.7724609375
,2.3438811,1.7626953125
,2.3473062999999996,1.7578125
,2.3645119,1.748046875
,2.4003585000000003,1.7431640625
,2.4238020999999996,1.73828125
,2.4277368,1.7431640625
,2.4644492,1.767578125
,2.4671719999999997,1.7919921875
,2.5042213999999996,1.8212890625
,2.5046774000000003,1.8408203125
,2.5387027,1.8603515625
,2.5598422999999997,1.875
,2.5672968000000003,1.8896484375
,2.5875950000000003,1.89453125
,2.6363836999999997,1.8994140625
,2.6370573000000004,1.8994140625
,2.6498841000000004,1.8994140625
,2.6658811,1.8896484375
,2.7015623,1.884765625
,2.7044397,1.8701171875
,2.7390768999999997,1.865234375
,2.7606629,1.8603515625
,2.7661643,1.8505859375
,2.7887820999999997,1.845703125
,2.8390457,1.8408203125
,2.8397021999999996,1.8359375
,2.8473211999999997,1.826171875
,2.8835689,1.81640625
,2.9048641999999996,1.806640625
,2.9055412,1.806640625
,2.9420941999999997,1.796875
,2.9489585,1.7919921875
,2.9839142,1.787109375
,2.9888645,1.7822265625
,3.0403019000000002,1.7724609375
,3.0411346000000004,1.767578125
,3.0481532,1.7578125
,3.0676423,1.7626953125
,3.0879509,1.7626953125
,3.1239554,1.7529296875
,3.1277539,1.748046875
,3.1646276,1.73828125
,3.1676219000000003,1.73828125
,3.2040727,1.748046875
,3.2099763,1.77734375
,3.2256802,1.8017578125
,3.2598339999999997,1.8310546875
,3.2809543999999997,1.85546875
,3.2871559,1.875
,3.3344033,1.884765625
,3.3349951000000004,1.8994140625
,3.349779,1.904296875
,3.3685853000000003,1.9091796875
,3.4040065000000004,1.9140625
,3.4251148999999996,1.9140625
,3.4255742,1.9140625
,3.4621149000000004,1.904296875
,3.4827475000000003,1.8994140625
,3.4880097,1.8896484375
,3.5379478000000004,1.8798828125
,3.5384032000000003,1.875
,3.5493672,1.865234375
,3.5991349,1.8603515625
,3.5996905000000003,1.85546875
,3.6073176,1.845703125
,3.6422090000000003,1.8408203125
,3.6627264000000004,1.8310546875
,3.6682121,1.8212890625
,3.6904458,1.8115234375
,3.7244757999999996,1.806640625
,3.7297206999999997,1.796875
,3.7645541,1.787109375
,3.7854886,1.77734375
,3.7862041,1.767578125
,3.8334614,1.7626953125
,3.8341396000000003,1.7578125
,3.8482763,1.7529296875
,3.8962234999999996,1.748046875
,3.8968141000000003,1.73828125
,3.9094398999999997,1.728515625
,3.9455465,1.7236328125
,3.9719206,1.7138671875
,3.9726076,1.728515625
,3.9890703,1.7529296875
,4.0249502,1.7822265625
,4.0289787,1.8115234375
,4.0660829,1.8310546875
,4.0735992,1.85546875
,4.0914438,1.8701171875
,4.1099137,1.884765625
,4.1426812,1.89453125
,4.1475255,1.9091796875
,4.1836463,1.9140625
,4.1894498,1.9189453125
,4.2253863,1.9140625
,4.2278981,1.9091796875
,4.2628026,1.89453125
,4.2830403,1.884765625
,4.2915145,1.8798828125
,4.3127265,1.875
,4.3279012,1.865234375
,4.348973,1.8701171875
,4.3705471,1.865234375
,4.3885522,1.85546875
,4.436363,1.845703125
,4.4370956,1.8310546875
,4.4527976,1.826171875
,4.499306,1.8115234375
,4.4999274,1.8017578125
,4.5073807,1.7919921875
,4.5609821,1.7822265625
,4.5614506,1.7724609375
,4.5692586,1.7626953125
,4.6079481,1.7529296875
,4.6084348,1.748046875
,4.6448503,1.73828125
,4.6700758,1.728515625
,4.6705616,1.71875
,4.6878455,1.708984375
,4.7260871,1.708984375
,4.7291076,1.71875
,4.7646637,1.7431640625
,4.7956919,1.7724609375
,4.7963693,1.8017578125
,4.8095159,1.8212890625
,4.8571853,1.8408203125
,4.857853,1.8505859375
,4.8874585,1.8505859375
,4.8879366,1.845703125
,4.9230789,1.865234375
,4.9436904,1.8701171875
,4.9511951,1.8701171875
,4.9874167,1.8603515625
,4.9932213,1.85546875
,5.0124278,1.845703125
,5.0487318,1.8359375
,5.0520658,1.8310546875
,5.0668688,1.826171875
,5.1062682,1.8212890625
,5.1081078,1.81640625
,5.14621,1.8115234375
,5.1667617,1.806640625
,5.1721911,1.8017578125
,5.2101772,1.7919921875
,5.2109194,1.7822265625
,5.2297539,1.7724609375
,5.2660608,1.767578125
,5.270819,1.7626953125
,5.306988,1.7529296875
,5.3095996,1.748046875
,5.3462481,1.73828125
,5.3664847,1.728515625
,5.372637,1.71875
,5.4098925,1.7138671875
,5.4105606,1.7041015625
,5.4478162,1.708984375
,5.4683152,1.71875
,5.4717298,1.748046875
,5.4908452,1.7724609375
,5.5275178,1.8017578125
,5.5332949,1.8212890625
,5.5534811,1.8408203125
,5.5730377,1.8505859375
,5.607651,1.8505859375
,5.6291673,1.8603515625
,5.6296545,1.8798828125
,5.6505176,1.884765625
,5.696763,1.884765625
,5.6974422,1.8798828125
,5.7128742,1.8701171875
,5.7322459,1.8603515625
,5.7697446,1.8505859375
,5.7728264,1.845703125
,5.7905012,1.8408203125
,5.8106972,1.8359375
,5.8474421,1.8310546875
,5.849865,1.826171875
,5.8863462,1.81640625
,5.9060603,1.806640625
,5.9121399,1.7919921875
,5.9636265,1.7822265625
,5.9642992,1.77734375
,5.9953496,1.7626953125
,5.9960444,1.7626953125
,6.0106184,1.7529296875
,6.032759499999999,1.748046875
,6.0681388,1.73828125
,6.074999099999999,1.7333984375
,6.0926139,1.71875
,6.1288547,1.708984375
,6.151335400000001,1.69921875
,6.1520060999999995,1.69921875
,6.1882839,1.7041015625
,6.189027100000001,1.728515625
,6.2278365,1.7578125
,6.248148799999999,1.7919921875
,6.2535253,1.81640625
,6.2882354,1.8408203125
,6.3100719000000005,1.85546875
,6.315370700000001,1.8701171875
,6.334793899999999,1.884765625
,6.3523429,1.8896484375
,6.3721958999999995,1.904296875
,6.3910085,1.9091796875
,6.4266951,1.9091796875
,6.4478668,1.904296875
,6.4540731000000005,1.89453125
,6.4742076,1.884765625
,6.509845800000001,1.875
,6.5103235999999995,1.865234375
,6.552685200000001,1.865234375
,6.553321,1.8603515625
,6.572224800000001,1.8505859375
,6.6079592,1.8408203125
,6.628059800000001,1.826171875
,6.633959300000001,1.81640625
,6.671228299999999,1.806640625
,6.6742136,1.796875
,6.690439899999999,1.787109375
,6.727309999999999,1.7822265625
,6.7324038,1.7724609375
,6.7531023,1.7626953125
,6.8028110999999996,1.7529296875
,6.803362999999999,1.748046875
,6.814155100000001,1.7333984375
,6.864899899999999,1.7236328125
,6.865603999999999,1.708984375
,6.871397399999999,1.7041015625
,6.890834699999999,1.69921875
,6.926665,1.69921875
,6.947048499999999,1.708984375
,6.9530525,1.7333984375
,6.9876565,1.7578125
,7.009154499999999,1.7822265625
,7.014403700000001,1.806640625
,7.052695399999999,1.8212890625
,7.0533866,1.8359375
,7.0706372,1.845703125
,7.1091926999999995,1.8603515625
,7.111695299999999,1.8701171875
,7.150180499999999,1.875
,7.1540230000000005,1.8798828125
,7.1893574000000005,1.875
,7.1949237,1.8701171875
,7.230623700000001,1.8603515625
,7.235712899999999,1.8505859375
,7.2532259,1.8408203125
,7.298035499999999,1.8408203125
,7.298851000000001,1.8359375
,7.3132555,1.8310546875
,7.3503194,1.8212890625
,7.353363999999999,1.8115234375
,7.3900229,1.8017578125
,7.3956093,1.7919921875
,7.4105518,1.7822265625
,7.447128599999999,1.77734375
,7.452864399999999,1.767578125
,7.4876196,1.7626953125
,7.493883,1.7529296875
,7.5146181,1.7431640625
,7.5507840999999996,1.73828125
,7.5541914000000006,1.7333984375
,7.5925092,1.7236328125
,7.595325900000001,1.7138671875
,7.6168256,1.6943359375
,7.6338031,1.6796875
,7.671480300000001,1.6796875
,7.6744816,1.6748046875
,7.694619899999999,1.6796875
,7.7291191,1.6943359375
,7.750178699999999,1.71875
,7.755910500000001,1.748046875
,7.7926757,1.77734375
,7.793132399999999,1.796875
,7.842128799999999,1.81640625
,7.842801700000001,1.826171875
,7.8552356,1.8359375
,7.873170699999999,1.845703125
,7.9079,1.845703125
,7.9296326,1.8505859375
,7.9360664,1.845703125
,7.9824301,1.845703125
,7.9829928,1.8310546875
,7.993665200000001,1.826171875
,8.0311913,1.81640625
,8.0341638,1.8115234375
,8.069906,1.806640625
,8.0757395,1.8017578125
,8.0958916,1.7919921875
,8.1322575,1.787109375
,8.1329589,1.77734375
,8.1537755,1.7724609375
,8.1918808,1.767578125
,8.1926576,1.767578125
,8.2280341,1.7626953125
,8.2484043,1.7529296875
,8.2559221,1.748046875
,8.2911257,1.73828125
,8.2962884,1.7333984375
,8.3166735,1.7236328125
,8.3548539,1.708984375
,8.3554478,1.7041015625
,8.3902009,1.708984375
,8.3933167,1.7041015625
,8.429792,1.69921875
,8.450296,1.6943359375
,8.4553494,1.689453125
,8.4906294,1.6845703125
,8.5119324,1.6796875
,8.517919,1.6845703125
,8.5338871,1.6943359375
,8.5687406,1.7236328125
,8.5894924,1.7529296875
,8.5951033,1.7822265625
,8.6333987,1.8017578125
,8.637622,1.81640625
,8.6712552,1.8212890625
,8.6766793,1.8310546875
,8.6935102,1.8359375
,8.7289809,1.845703125
,8.7345675,1.845703125
,8.7715929,1.845703125
,8.7744797,1.8359375
,8.8114778,1.826171875
,8.8162108,1.81640625
,8.8512481,1.806640625
,8.8715644,1.8017578125
,8.873834,1.796875
,8.9178812,1.796875
,8.9184493,1.7919921875
,8.9362475,1.787109375
,8.9723876,1.7822265625
,8.9755229,1.77734375
,9.0117633,1.767578125
,9.0161053,1.7626953125
,9.0512579,1.7529296875
,9.0723477,1.748046875
,9.0730554,1.7431640625
,9.1100826,1.7431640625
,9.1154573,1.73828125
,9.150745,1.73828125
,9.1553438,1.7333984375
,9.1908493,1.7236328125
,9.2119124,1.7236328125
,9.2187279,1.71875
,9.2399894,1.71875
,9.2562836,1.71875
,9.274577,1.7236328125
,9.3090553,1.73828125
,9.3299158,1.7626953125
,9.3370796,1.787109375
,9.3714711,1.8115234375
,9.3761104,1.826171875
,9.4114519,1.8359375
,9.4331513,1.8408203125
,9.4336597,1.845703125
,9.4797626,1.8505859375
,9.4805066,1.85546875
,9.4979283,1.85546875
,9.5327209,1.845703125
,9.5377655,1.8359375
,9.5745374,1.8212890625
,9.5777807,1.81640625
,9.5946488,1.806640625
,9.6292184,1.806640625
,9.6510668,1.8017578125
,9.6559758,1.8017578125
,9.6917591,1.796875
,9.6998482,1.787109375
,9.7167443,1.7822265625
,9.7379725,1.77734375
,9.7714411,1.767578125
,9.7919607,1.7626953125
,9.7998288,1.7578125
,9.815242,1.748046875
,9.8514211,1.748046875
,9.8558557,1.7431640625
,9.8999345,1.73828125
,9.9004469,1.7333984375
,9.9185649,1.728515625
,9.9543606,1.7236328125
,9.96021,1.71875
,9.975165,1.7138671875
,9.9962699,1.7236328125
,10.0324156,1.7431640625
,10.0368972,1.7724609375
,10.0717095,1.796875
,10.104984,1.81640625
,10.1056212,1.8310546875
,10.1197353,1.8408203125
,10.1386025,1.845703125
,10.1567212,1.845703125
,10.1918155,1.85546875
,10.1976889,1.85546875
,10.2184746,1.8505859375
,10.2533926,1.8408203125
,10.2587835,1.8359375
,10.2793894,1.826171875
,10.316637,1.8212890625
,10.3198162,1.81640625
,10.3409865,1.8017578125
,10.3561639,1.787109375
,10.3911374,1.796875
,10.4144973,1.7919921875
,10.4163051,1.7919921875
,10.4542483,1.7919921875
,10.4601664,1.7822265625
,10.4942922,1.77734375
,10.499673,1.7724609375
,10.5359343,1.767578125
,10.5363927,1.7578125
,10.5707641,1.7578125
,10.5918447,1.7529296875
,10.5970897,1.748046875
,10.6311223,1.7431640625
,10.6519658,1.73828125
,10.6602122,1.7333984375
,10.6800728,1.728515625
,10.696566,1.7333984375
,10.7448876,1.7578125
,10.7453295,1.787109375
,10.7585731,1.81640625
,10.7959371,1.8408203125
,10.798666,1.85546875
,10.8323389,1.865234375
,10.8534477,1.875
,10.8612166,1.8798828125
,10.8781883,1.8798828125
,10.8988657,1.8896484375
,10.9496932,1.8896484375
,10.950243,1.884765625
,10.9575106,1.8798828125
,10.9935294,1.8701171875
,11.0142389,1.8603515625
,11.0194601,1.8505859375
,11.0391963,1.8408203125
,11.0895855,1.8310546875
,11.090262,1.8310546875
,11.1108203,1.826171875
,11.1182269,1.8212890625
,11.1392522,1.81640625
,11.1604948,1.81640625
,11.1981541,1.806640625
,11.2011666,1.8017578125
,11.2199299,1.7919921875
,11.2606604,1.787109375
,11.2611461,1.7822265625
,11.2804118,1.787109375
,11.2984989,1.7822265625
,11.3334151,1.77734375
,11.3551057,1.7724609375
,11.3604974,1.7626953125
,11.3955198,1.7578125
,11.4017941,1.7626953125
,11.4361798,1.7822265625
,11.4368569,1.8017578125
,11.4782509,1.8359375
,11.5076221,1.8603515625
,11.5080678,1.8798828125
,11.5206005,1.8896484375
,11.555948,1.904296875
,11.585721,1.9091796875
,11.5863811,1.9140625
,11.5972925,1.9189453125
,11.6350643,1.923828125
,11.6384947,1.923828125
,11.6803183,1.9189453125
,11.6808535,1.9091796875
,11.7175269,1.8994140625
,11.7202627,1.89453125
,11.7562413,1.884765625
,11.7625216,1.8798828125
,11.7970349,1.875
,11.8021115,1.875
,11.8181391,1.865234375
,11.855354,1.8603515625
,11.8819968,1.85546875
,11.8827588,1.8505859375
,11.9021227,1.8408203125
,11.9218762,1.8310546875
,11.9570338,1.8212890625
,11.9619061,1.81640625
,11.9793912,1.8115234375
,12.020838,1.806640625
,12.0214876,1.796875
,12.0384816,1.8017578125
,12.0737691,1.796875
,12.0937964,1.787109375
,12.0991602,1.77734375
,12.1363629,1.767578125
,12.1599192,1.7724609375
,12.1607527,1.787109375
,12.194104,1.8212890625
,12.1992832,1.8505859375
,12.2346874,1.875
,12.2403375,1.8896484375
,12.2774315,1.904296875
,12.2802237,1.9140625
,12.3161497,1.9287109375
,12.3374394,1.93359375
,12.3380014,1.943359375
,12.3730884,1.9482421875
,12.3940994,1.9287109375
,12.4017216,1.9287109375
,12.4367312,1.9189453125
,12.4418544,1.9140625
,12.4781317,1.9091796875
,12.4810775,1.904296875
,12.5159835,1.89453125
,12.5373695,1.8896484375
,12.540188,1.8798828125
,12.5819764,1.8798828125
,12.5826599,1.8701171875
,12.6020238,1.865234375
,12.6209635,1.85546875
,12.6553224,1.845703125
,12.6758812,1.8359375
,12.6829156,1.826171875
,12.7227522,1.81640625
,12.7232137,1.806640625
,12.7541967,1.8017578125
,12.7610104,1.796875
,12.7955511,1.787109375
,12.8176102,1.7822265625
,12.8207921,1.7724609375
,12.8595711,1.767578125
,12.8644803,1.77734375
,12.8799676,1.796875
,12.916479,1.826171875
,12.9195009,1.8505859375
,12.9556066,1.875
,12.976106,1.8896484375
,12.980119,1.904296875
,13.0146832,1.9189453125
,13.0353963,1.9189453125
,13.0450719,1.923828125
,13.0639871,1.923828125
,13.085839,1.9140625
,13.1020425,1.8994140625
,13.1419493,1.89453125
,13.1426171,1.8896484375
,13.1622155,1.884765625
,13.1813132,1.8798828125
,13.217662,1.875
,13.2374798,1.865234375
,13.2450582,1.85546875
,13.2610831,1.8505859375
,13.2949234,1.845703125
,13.3171481,1.8359375
,13.3202865,1.8310546875
,13.3591942,1.826171875
,13.3619419,1.81640625
,13.3971,1.8115234375
,13.4183202,1.8017578125
,13.4248352,1.7919921875
,13.4409136,1.7822265625
,13.4765357,1.77734375
,13.4976853,1.7724609375
,13.5030291,1.7626953125
,13.5434824,1.7529296875
,13.5439216,1.7431640625
,13.5637337,1.73828125
,13.605281,1.7431640625
,13.605729,1.7578125
,13.621174,1.787109375
,13.6414303,1.8212890625
,13.6759674,1.845703125
,13.6967178,1.865234375
,13.7026692,1.875
,13.737947,1.884765625
,13.7435539,1.8896484375
,13.7802904,1.8994140625
,13.785474,1.8994140625
,13.8068274,1.8994140625
,13.8230775,1.89453125
,13.8569577,1.89453125
,13.8633616,1.884765625
,13.9016341,1.8798828125
,13.9021312,1.865234375
,13.9348147,1.8603515625
,13.9566197,1.85546875
,13.9662155,1.8505859375
,14.0032843,1.845703125
,14.003962999999999,1.8359375
,14.039251700000001,1.8310546875
,14.040379399999999,1.8212890625
,14.075655600000001,1.8115234375
,14.0972741,1.8017578125
,14.104336100000001,1.796875
,14.126577900000001,1.787109375
,14.145671400000001,1.77734375
,14.163071599999999,1.767578125
,14.1806019,1.7626953125
,14.217317900000001,1.7578125
,14.2443475,1.7529296875
,14.2448491,1.748046875
,14.2910574,1.73828125
,14.291784799999999,1.73828125
,14.305896700000002,1.728515625
,14.3436174,1.71875
,14.344340299999999,1.7138671875
,14.360857200000002,1.728515625
,14.40041,1.7431640625
,14.4300021,1.77734375
,14.430470799999998,1.8017578125
,14.443994,1.826171875
,14.4784401,1.845703125
,14.4998988,1.8603515625
,14.508135800000002,1.8701171875
,14.525786100000001,1.875
,14.5437105,1.8798828125
,14.5859992,1.884765625
,14.586697000000001,1.884765625
,14.603628700000002,1.8896484375
,14.647220399999998,1.884765625
,14.647902299999998,1.8701171875
,14.6658081,1.8603515625
,14.7020524,1.8505859375
,14.7060703,1.8408203125
,14.7229122,1.8359375
,14.7587726,1.8310546875
,14.778358,1.826171875
,14.7840581,1.8212890625
,14.8204472,1.8115234375
,14.851231599999998,1.806640625
,14.851805299999999,1.796875
,14.866516699999998,1.7919921875
,14.8827423,1.7822265625
,14.9289566,1.77734375
,14.9294233,1.7724609375
,14.944311299999999,1.767578125
,14.9781729,1.7626953125
,14.9992847,1.7578125
,15.0048463,1.7529296875
,15.040185300000001,1.748046875
,15.0606683,1.73828125
,15.064600200000001,1.728515625
,15.0833701,1.728515625
,15.118906500000001,1.7236328125
,15.1234526,1.7236328125
,15.160463199999999,1.728515625
,15.190878699999999,1.7529296875
,15.192041799999998,1.77734375
,15.2053641,1.806640625
,15.2423431,1.8212890625
,15.2695498,1.8408203125
,15.2700787,1.8505859375
,15.284977000000001,1.8603515625
,15.3219593,1.875
,15.3247507,1.8798828125
,15.3604001,1.884765625
,15.365179600000001,1.884765625
,15.401477,1.884765625
,15.406552999999999,1.8798828125
,15.441029700000001,1.8701171875
,15.461892599999999,1.8603515625
,15.4644023,1.85546875
,15.5001571,1.8505859375
,15.5057643,1.845703125
,15.526401100000001,1.8408203125
,15.545416,1.8408203125
,15.580869,1.8359375
,15.586504000000001,1.8212890625
,15.623701700000002,1.81640625
,15.6243732,1.8115234375
,15.662508599999999,1.8115234375
,15.663202900000002,1.8017578125
,15.7022926,1.8017578125
,15.705406700000001,1.796875
,15.7265701,1.7919921875
,15.7699937,1.7822265625
,15.7706093,1.7822265625
,15.7854289,1.7724609375
,15.8206402,1.767578125
,15.8233994,1.748046875
,15.861884499999999,1.748046875
,15.8671981,1.7431640625
,15.883880300000001,1.7431640625
,15.925674399999998,1.748046875
,15.9263416,1.7578125
,15.945862600000002,1.7822265625
,15.9816459,1.8115234375
,16.0029062,1.8310546875
,16.003373,1.845703125
,16.0503067,1.865234375
,16.0509756,1.875
,16.0651391,1.8798828125
,16.0861222,1.8798828125
,16.1228606,1.884765625
,16.1435218,1.8798828125
,16.1464131,1.875
,16.1652379,1.8603515625
,16.2011782,1.85546875
,16.2091154,1.8505859375
,16.2246912,1.8408203125
,16.2683015,1.8359375
,16.2689724,1.826171875
,16.298908,1.826171875
,16.3065476,1.81640625
,16.3415371,1.8115234375
,16.3626914,1.806640625
,16.3631615,1.8017578125
,16.3994474,1.796875
,16.4203529,1.7919921875
,16.4255758,1.787109375
,16.4619122,1.7822265625
,16.4672398,1.7724609375
,16.5054602,1.767578125
,16.506284,1.7626953125
,16.5487531,1.748046875
,16.5492522,1.7431640625
,16.5690539,1.73828125
,16.5863992,1.7333984375
,16.6211177,1.7333984375
,16.6425541,1.728515625
,16.6474213,1.728515625
,16.6843258,1.748046875
,16.6884971,1.7724609375
,16.7252253,1.8017578125
,16.7259117,1.8212890625
,16.7629911,1.845703125
,16.7658441,1.85546875
,16.8019459,1.8701171875
,16.822928,1.875
,16.8258705,1.8798828125
,16.8625897,1.8896484375
,16.8921394,1.884765625
,16.8928892,1.8798828125
,16.9066796,1.875
,16.9542255,1.8701171875
,16.9548157,1.8603515625
,16.9683823,1.8603515625
,17.0054933,1.85546875
,17.0061721,1.85546875
,17.0468447,1.845703125
,17.0772938,1.845703125
,17.0779534,1.8359375
,17.0867596,1.8310546875
,17.122185,1.826171875
,17.127194,1.8212890625
,17.1636818,1.8115234375
,17.1665092,1.806640625
,17.2033209,1.8017578125
,17.2225257,1.796875
,17.2311531,1.7919921875
,17.2657403,1.7822265625
,17.2706497,1.77734375
,17.287966,1.7724609375
,17.3217953,1.767578125
,17.3270169,1.7578125
,17.3619986,1.7529296875
,17.3827194,1.73828125
,17.3910183,1.7236328125
,17.4104761,1.728515625
,17.4470636,1.7626953125
,17.4477431,1.8017578125
,17.4831976,1.8408203125
,17.4855544,1.875
,17.524794,1.89453125
,17.5278231,1.9140625
,17.5632473,1.923828125
,17.5710545,1.9384765625
,17.6077537,1.943359375
,17.6082757,1.943359375
,17.6543306,1.943359375
,17.6547849,1.9384765625
,17.6684588,1.9287109375
,17.7052964,1.9140625
,17.7080036,1.89453125
,17.7481264,1.875
,17.748593,1.865234375
,17.78379,1.8505859375
,17.8045489,1.8359375
,17.8080204,1.826171875
,17.8434863,1.81640625
,17.8467233,1.8017578125
,17.8686223,1.7919921875
,17.8877791,1.7822265625
,17.9257542,1.7724609375
,17.9285408,1.7626953125
,17.9643498,1.7529296875
,17.9717774,1.7529296875
,18.0067159,1.7529296875
,18.0074318,1.7626953125
,18.0287611,1.77734375
,18.06654,1.787109375
,18.0673471,1.7919921875
,18.1039661,1.7919921875
,18.1248413,1.7822265625
,18.1310597,1.7724609375
,18.1511126,1.7626953125
,18.1872314,1.7529296875
,18.1879154,1.7529296875
,18.2234511,1.7822265625
,18.228938,1.8115234375
,18.264309,1.845703125
,18.2696879,1.8701171875
,18.3052623,1.8896484375
,18.3097794,1.904296875
,18.3460439,1.9189453125
,18.3465773,1.9287109375
,18.3835064,1.9384765625
,18.3883576,1.943359375
,18.4338488,1.953125
,18.4343145,1.953125
,18.4532369,1.9482421875
,18.471444,1.943359375
,18.5106566,1.9287109375
,18.5111135,1.9189453125
,18.5438713,1.9140625
,18.5734373,1.89453125
,18.5739714,1.8798828125
,18.5894467,1.8798828125
,18.6367584,1.8798828125
,18.6374293,1.8701171875
,18.653051,1.865234375
,18.6887722,1.8505859375
,18.6893309,1.8408203125
,18.725589,1.8310546875
,18.7474987,1.8212890625
,18.7481898,1.81640625
,18.7907984,1.8115234375
,18.7912596,1.8017578125
,18.8267364,1.7919921875
,18.8293865,1.7822265625
,18.8674271,1.77734375
,18.8721338,1.7626953125
,18.9110245,1.7578125
,18.9116154,1.748046875
,18.9293999,1.7431640625
,18.9641214,1.7333984375
,18.9692355,1.73828125
,19.0026756,1.748046875
,19.0244477,1.7822265625
,19.0315178,1.8115234375
,19.0682351,1.8408203125
,19.0688171,1.8603515625
,19.1041781,1.884765625
,19.109898,1.8994140625
,19.1314102,1.904296875
,19.1506652,1.9091796875
,19.186029,1.9140625
,19.1923257,1.9140625
,19.2401437,1.9140625
,19.2410009,1.904296875
,19.2525583,1.89453125
,19.2892525,1.875
,19.2899593,1.8701171875
,19.3250042,1.8701171875
,19.330933,1.865234375
,19.3668406,1.8603515625
,19.3726748,1.8505859375
,19.41221,1.845703125
,19.412977,1.8359375
,19.4483653,1.826171875
,19.4532269,1.8115234375
,19.4711013,1.806640625
,19.4908326,1.806640625
,19.5274398,1.8017578125
,19.5282492,1.796875
,19.5658475,1.787109375
,19.5864465,1.77734375
,19.5945706,1.7626953125
,19.6119465,1.7529296875
,19.6298753,1.73828125
,19.665566,1.728515625
,19.6899665,1.7138671875
,19.6906413,1.69921875
,19.7124214,1.6845703125
,19.7525923,1.6845703125
,19.7533444,1.7041015625
,19.7883768,1.7333984375
,19.7909874,1.7626953125
,19.8293715,1.7919921875
,19.8298428,1.8212890625
,19.8676134,1.8359375
,19.8684978,1.8505859375
,19.9079415,1.8505859375
,19.9292751,1.8603515625
,19.9297947,1.85546875
,19.965057,1.8505859375
,19.9854996,1.8408203125
,19.9925982,1.8310546875
,20.0091031,1.8212890625
,20.0491917,1.81640625
,20.0706996,1.81640625
,20.0714032,1.8115234375
,20.0907153,1.8115234375
,20.1248018,1.806640625
,20.1454796,1.8017578125
,20.1524778,1.796875
,20.1890388,1.7919921875
,20.1895074,1.7822265625
,20.2264775,1.77734375
,20.2325266,1.7724609375
,20.2524766,1.767578125
,20.273102,1.7626953125
,20.3073414,1.7578125
,20.3276031,1.7529296875
,20.3351499,1.748046875
,20.3495892,1.73828125
,20.3833426,1.73828125
,20.4045819,1.7333984375
,20.4116048,1.7236328125
,20.4318239,1.71875
,20.4543079,1.7138671875
,20.4883106,1.7138671875
,20.4944437,1.7333984375
,20.5307617,1.767578125
,20.5312131,1.806640625
,20.5501819,1.8408203125
,20.5927404,1.8701171875
,20.5931909,1.8896484375
,20.6117215,1.904296875
,20.6473315,1.9140625
,20.6535545,1.923828125
,20.688673,1.93359375
,20.7177968,1.9384765625
,20.7184571,1.9384765625
,20.7352639,1.93359375
,20.751156,1.923828125
,20.7842496,1.9189453125
,20.8050959,1.9140625
,20.8138085,1.9091796875
,20.8492723,1.904296875
,20.8551162,1.8994140625
,20.891474,1.8896484375
,20.8943403,1.884765625
,20.9102874,1.8701171875
,20.9447295,1.865234375
,20.9666417,1.85546875
,20.972865,1.8505859375
,21.0093671,1.8359375
,21.0153875,1.8310546875
,21.0331547,1.81640625
,21.0744767,1.806640625
,21.0749575,1.8017578125
,21.0909707,1.7919921875
,21.1272082,1.787109375
,21.1488506,1.77734375
,21.1532891,1.767578125
,21.1885662,1.7529296875
,21.1944533,1.7431640625
,21.2320188,1.728515625
,21.2349281,1.7236328125
,21.251368,1.728515625
,21.2919235,1.7578125
,21.2927733,1.7822265625
,21.3137565,1.8212890625
,21.3345999,1.8603515625
,21.3708738,1.884765625
,21.3743743,1.904296875
,21.4098823,1.9140625
,21.4153623,1.9287109375
,21.4642974,1.93359375
,21.4649738,1.9384765625
,21.4737743,1.9384765625
,21.4935828,1.9384765625
,21.5282487,1.93359375
,21.5337957,1.9287109375
,21.5709921,1.9189453125
,21.5740001,1.9140625
,21.620333,1.9091796875
,21.6208574,1.8994140625
,21.6416276,1.8896484375
,21.6544171,1.884765625
,21.6731134,1.8798828125
,21.6948686,1.865234375
,21.7313353,1.8505859375
,21.7350061,1.8408203125
,21.7568727,1.826171875
,21.7755483,1.8115234375
,21.811915,1.8017578125
,21.8124539,1.787109375
,21.8483689,1.77734375
,21.8542571,1.767578125
,21.8888058,1.7578125
,21.8934087,1.748046875
,21.9347215,1.73828125
,21.9353423,1.728515625
,21.9730413,1.7138671875
,21.9759951,1.7041015625
,22.0145308,1.689453125
,22.0149952,1.6796875
,22.0509824,1.669921875
,22.0535119,1.6943359375
,22.0913661,1.7236328125
,22.1115336,1.7724609375
,22.114248,1.806640625
,22.1517363,1.845703125
,22.1565415,1.8701171875
,22.1999851,1.8896484375
,22.2005444,1.904296875
,22.2151144,1.9189453125
,22.2357251,1.93359375
,22.2762752,1.9384765625
,22.2771009,1.9384765625
,22.3113061,1.9384765625
,22.31659,1.9287109375
,22.3546022,1.9189453125
,22.3833441,1.904296875
,22.3840026,1.89453125
,22.3949146,1.8896484375
,22.4463544,1.8798828125
,22.4468256,1.875
,22.4545019,1.8701171875
,22.4913667,1.85546875
,22.4966806,1.845703125
,22.5170506,1.8310546875
,22.5341029,1.8212890625
,22.5698477,1.81640625
,22.5743314,1.806640625
,22.6113397,1.796875
,22.6146169,1.787109375
,22.6624633,1.7724609375
,22.6629583,1.7626953125
,22.6836592,1.7529296875
,22.6986222,1.7431640625
,22.7348135,1.728515625
,22.7375471,1.7138671875
,22.7533853,1.7041015625
,22.7899483,1.6943359375
,22.8190588,1.689453125
,22.8197307,1.7138671875
,22.8365264,1.7431640625
,22.8724346,1.787109375
,22.8771799,1.8212890625
,22.9127105,1.845703125
,22.9161707,1.8603515625
,22.9352534,1.8798828125
,22.9707639,1.884765625
,22.9766713,1.8896484375
,23.0107134,1.8896484375
,23.0317773,1.8896484375
,23.0369472,1.8798828125
,23.056824,1.865234375
,23.0911853,1.85546875
,23.1121535,1.845703125
,23.112861,1.8408203125
,23.1605276,1.8359375
,23.1612004,1.8310546875
,23.1807933,1.826171875
,23.198153,1.8212890625
,23.2334768,1.806640625
,23.2359192,1.796875
,23.2717037,1.787109375
,23.2928989,1.77734375
,23.293597,1.767578125
,23.33117,1.7578125
,23.3391757,1.7529296875
,23.3576289,1.7431640625
,23.3935653,1.7333984375
,23.4009375,1.7236328125
,23.4189422,1.7138671875
,23.438516,1.69921875
,23.4751793,1.6943359375
,23.4758645,1.689453125
,23.5110292,1.708984375
,23.5171556,1.73828125
,23.5644362,1.7822265625
,23.5651315,1.8212890625
,23.5788776,1.85546875
,23.6133899,1.8798828125
,23.6334206,1.8896484375
,23.6390581,1.8994140625
,23.6558365,1.904296875
,23.692268,1.9140625
,23.6951985,1.9140625
,23.7325235,1.9091796875
,23.7530199,1.8994140625
,23.7583996,1.8896484375
,23.780555,1.8798828125
,23.8157567,1.875
,23.8162296,1.865234375
,23.8533454,1.865234375
,23.8569799,1.8603515625
,23.891696,1.8505859375
,23.9125865,1.8408203125
,23.9183608,1.8310546875
,23.9561348,1.81640625
,23.956601,1.806640625
,24.0011027,1.7919921875
,24.0016056,1.7822265625
,24.0221937,1.77734375
,24.0359185,1.7529296875
,24.0811051,1.7529296875
,24.0817764,1.7431640625
,24.1115973,1.73828125
,24.1194625,1.728515625
,24.1393124,1.7236328125
,24.1774048,1.7138671875
,24.1780826,1.71875
,24.1942048,1.7431640625
,24.2299699,1.7919921875
,24.2538069,1.8359375
,24.256434,1.8701171875
,24.2931865,1.8994140625
,24.2986453,1.9189453125
,24.3211311,1.93359375
,24.3377583,1.9482421875
,24.3614955,1.962890625
,24.3786925,1.9677734375
,24.3991732,1.9775390625
,24.4157822,1.9775390625
,24.4549509,1.9677734375
,24.4569558,1.9580078125
,24.4943447,1.9482421875
,24.5001311,1.9384765625
,24.5371343,1.9287109375
,24.5380098,1.923828125
,24.5565513,1.9140625
,24.5923926,1.904296875
,24.5978663,1.89453125
,24.6335409,1.8896484375
,24.6393147,1.875
,24.6733366,1.8603515625
,24.6786774,1.845703125
,24.7154166,1.8310546875
,24.7216122,1.81640625
,24.7426596,1.796875
,24.7580784,1.7822265625
,24.7785774,1.77734375
,24.814322,1.767578125
,24.8199223,1.7578125
,24.8556686,1.748046875
,24.8580804,1.7431640625
,24.8936412,1.7578125
,24.9145022,1.7822265625
,24.922491,1.8212890625
,24.9378623,1.85546875
,24.972473,1.89453125
,24.9784324,1.9189453125
,25.0158862,1.943359375
,25.0186785,1.9580078125
,25.054985,1.9677734375
,25.060794,1.9775390625
,25.09615,1.9873046875
,25.0969478,1.982421875
,25.1412662,1.982421875
,25.1417563,1.9775390625
,25.1594173,1.962890625
,25.1798398,1.953125
,25.2005674,1.9384765625
,25.2351616,1.9287109375
,25.2563176,1.9189453125
,25.2612794,1.9091796875
,25.2767093,1.8994140625
,25.3129709,1.8896484375
,25.3181218,1.875
,25.3534339,1.8603515625
,25.3747146,1.845703125
,25.3820627,1.8359375
,25.4012938,1.81640625
,25.4357152,1.806640625
,25.4403271,1.7919921875
,25.4811796,1.77734375
,25.4818799,1.7626953125
,25.4983942,1.7529296875
,25.5196636,1.7431640625
,25.5394252,1.73828125
,25.575046,1.7529296875
,25.5801315,1.77734375
,25.6163554,1.81640625
,25.6214069,1.85546875
,25.6564932,1.8896484375
,25.6773029,1.9189453125
,25.6777808,1.943359375
,25.7119415,1.9580078125
,25.7332513,1.97265625
,25.7406223,1.982421875
,25.7609311,1.9873046875
,25.7974206,1.9873046875
,25.8025817,1.982421875
,25.8386482,1.97265625
,25.8393138,1.9580078125
,25.8724028,1.9482421875
,25.9007259,1.9384765625
,25.9011973,1.9287109375
,25.9361859,1.9189453125
,25.9411819,1.9091796875
,25.9765629,1.89453125
,25.9820156,1.884765625
,25.9999536,1.865234375
,26.0354829,1.85546875
,26.0384633,1.8408203125
,26.075763,1.826171875
,26.0805371,1.8115234375
,26.1022097,1.8017578125
,26.1381299,1.7822265625
,26.1411685,1.767578125
,26.1766646,1.7529296875
,26.1970889,1.7431640625
,26.202279,1.73828125
,26.2223626,1.748046875
,26.2401809,1.77734375
,26.2760096,1.8115234375
,26.2960787,1.845703125
,26.3011092,1.8701171875
,26.3365801,1.8896484375
,26.3581043,1.904296875
,26.3654889,1.9189453125
,26.3798425,1.923828125
,26.417082,1.9384765625
,26.419653,1.9384765625
,26.4570593,1.9384765625
,26.4600189,1.9287109375
,26.4949278,1.9140625
,26.5160506,1.8994140625
,26.5240872,1.8896484375
,26.5597337,1.8798828125
,26.5603934,1.8701171875
,26.5981245,1.865234375
,26.5987951,1.85546875
,26.6361876,1.845703125
,26.6664675,1.8310546875
,26.6671305,1.8212890625
,26.682829,1.8115234375
,26.71769,1.796875
,26.7181465,1.787109375
,26.7599251,1.77734375
,26.7608372,1.748046875
,26.7806067,1.748046875
,26.8220121,1.73828125
,26.8224862,1.728515625
,26.8421607,1.7236328125
,26.8616682,1.71875
,26.8973729,1.7236328125
,26.9027027,1.7431640625
,26.9467077,1.7724609375
,26.9472053,1.8017578125
,26.9609397,1.826171875
,26.9962225,1.845703125
,27.0170158,1.8603515625
,27.0222652,1.875
,27.0566268,1.8896484375
,27.062777,1.89453125
,27.0988501,1.8994140625
,27.1041852,1.904296875
,27.1216838,1.8896484375
,27.1567148,1.8798828125
,27.1628611,1.8701171875
,27.1974513,1.8603515625
,27.2255097,1.8505859375
,27.2259778,1.845703125
,27.2436587,1.8359375
,27.2776173,1.8310546875
,27.2985995,1.81640625
,27.3020558,1.81640625
,27.3388149,1.806640625
,27.3395746,1.8017578125
,27.3763328,1.787109375
,27.4111215,1.77734375
,27.4117819,1.767578125
,27.4242219,1.7626953125
,27.4446031,1.7529296875
,27.4655417,1.7431640625
,27.501302,1.7236328125
,27.5021166,1.71875
,27.5227122,1.71875
,27.557546,1.7138671875
,27.5636362,1.7138671875
,27.6002694,1.728515625
,27.6050332,1.7529296875
,27.6422467,1.7822265625
,27.6427265,1.806640625
,27.690226,1.826171875
,27.6909105,1.8505859375
,27.7007886,1.8603515625
,27.7364817,1.8701171875
,27.7575418,1.8798828125
,27.7636089,1.8798828125
,27.8010625,1.8798828125
,27.8019172,1.875
,27.8388023,1.865234375
,27.8581557,1.8505859375
,27.8612275,1.845703125
,27.8981411,1.8359375
,27.9031509,1.8359375
,27.9411859,1.826171875
,27.941881,1.826171875
,27.9844922,1.81640625
,27.9849381,1.806640625
,28.0057082,1.796875
,28.0227502,1.7919921875
,28.0593822,1.77734375
,28.060152,1.77734375
,28.0974036,1.767578125
,28.1187748,1.7626953125
,28.1239286,1.748046875
,28.1603374,1.7431640625
,28.1908496,1.7333984375
,28.1913946,1.728515625
,28.2050047,1.7236328125
,28.2225591,1.728515625
,28.256795,1.7431640625
,28.2773775,1.767578125
,28.2848228,1.7919921875
,28.3324282,1.8115234375
,28.3331595,1.826171875
,28.3443605,1.8359375
,28.3819255,1.8408203125
,28.3874774,1.8505859375
,28.4035203,1.845703125
,28.4392693,1.8505859375
,28.4430988,1.8408203125
,28.4790093,1.8408203125
,28.4845431,1.8212890625
,28.5186169,1.81640625
,28.5389585,1.806640625
,28.5444187,1.8017578125
,28.562197,1.796875
,28.5996303,1.8017578125
,28.602271,1.7919921875
,28.6228197,1.7919921875
,28.6583678,1.7822265625
,28.6804559,1.77734375
,28.6845052,1.767578125
,28.7221138,1.767578125
,28.7413212,1.7578125
,28.7421216,1.7529296875
,28.7637468,1.748046875
,28.7841172,1.7431640625
,28.8289814,1.7333984375
,28.8294694,1.7333984375
,28.8453707,1.728515625
,28.8787932,1.7333984375
,28.900286,1.7529296875
,28.9067755,1.77734375
,28.9277927,1.796875
,28.9447144,1.8115234375
,28.9638438,1.826171875
,28.9833833,1.8359375
,29.028689,1.8408203125
,29.0293484,1.845703125
,29.0453264,1.845703125
,29.0800837,1.8408203125
,29.1009394,1.8359375
,29.1068749,1.826171875
,29.123815,1.8115234375
,29.1594144,1.806640625
,29.1642978,1.8017578125
,29.2020749,1.796875
,29.2051277,1.7919921875
,29.2265972,1.7919921875
,29.2653424,1.787109375
,29.2657895,1.7822265625
,29.2987719,1.7724609375
,29.3036549,1.7724609375
,29.338946,1.767578125
,29.3441039,1.767578125
,29.3888404,1.7626953125
,29.3896429,1.7529296875
,29.4101086,1.748046875
,29.4279946,1.73828125
,29.4622743,1.728515625
,29.466964,1.7236328125
,29.4880645,1.7138671875
,29.5052805,1.7138671875
,29.543279,1.748046875
,29.5439105,1.7822265625
,29.580111,1.806640625
,29.6014921,1.826171875
,29.6067952,1.845703125
,29.6434311,1.8505859375
,29.6490214,1.8603515625
,29.6846878,1.865234375
,29.6852674,1.865234375
,29.7055663,1.8701171875
,29.7399495,1.8701171875
,29.7602087,1.8701171875
,29.7667074,1.8603515625
,29.8024561,1.8505859375
,29.8069545,1.8408203125
,29.8426497,1.8310546875
,29.8431253,1.8212890625
,29.8781155,1.826171875
,29.8991256,1.81640625
,29.9062183,1.81640625
,29.9263938,1.806640625
,29.9622155,1.8017578125
,29.9835271,1.7919921875
,29.9886738,1.787109375
,30.024615500000003,1.7822265625
,30.025076499999997,1.7724609375
,30.062922999999998,1.767578125
,30.0636151,1.7626953125
,30.098621199999997,1.7578125
,30.119869299999998,1.748046875
,30.127595900000003,1.748046875
,30.1693426,1.748046875
,30.170018,1.7578125
,30.188337699999998,1.77734375
,30.2234792,1.7919921875
,30.224134399999997,1.81640625
,30.2573533,1.8408203125
,30.280217999999998,1.8603515625
,30.285562900000002,1.875
,30.324762800000002,1.884765625
,30.3275803,1.8896484375
,30.3729028,1.89453125
,30.373507600000003,1.89453125
,30.3878707,1.89453125
,30.4236165,1.884765625
,30.4243887,1.875
,30.4659428,1.8603515625
,30.4666024,1.85546875
,30.5153399,1.845703125
,30.516025499999998,1.8408203125
,30.5270443,1.8359375
,30.5630941,1.826171875
,30.566026800000003,1.8212890625
,30.607260699999998,1.81640625
,30.6079091,1.806640625
,30.640889700000002,1.806640625
,30.645603800000004,1.796875
,30.6799095,1.787109375
,30.7003112,1.7822265625
,30.708691899999998,1.7724609375
,30.748130000000003,1.767578125
,30.7485844,1.7626953125
,30.7656261,1.7626953125
,30.801687299999998,1.7578125
,30.807552899999997,1.7529296875
,30.828649400000003,1.748046875
,30.8487747,1.7431640625
,30.867483,1.7431640625
,30.9021452,1.7578125
,30.924362100000003,1.77734375
,30.9274676,1.8017578125
,30.963246599999998,1.826171875
,30.9845544,1.8408203125
,30.9852553,1.85546875
,31.019782399999997,1.865234375
,31.0399248,1.8798828125
,31.047925999999997,1.884765625
,31.0835103,1.8896484375
,31.103783900000003,1.8896484375
,31.1092486,1.8896484375
,31.126803600000002,1.8798828125
,31.1707247,1.875
,31.171453900000003,1.865234375
,31.1875789,1.85546875
,31.223045,1.8505859375
,31.228983,1.845703125
,31.2784342,1.8359375
,31.2790995,1.8359375
,31.299936799999998,1.826171875
,31.305211,1.8212890625
,31.341735900000003,1.81640625
,31.362135000000002,1.806640625
,31.367923500000003,1.8017578125
,31.4071341,1.7919921875
,31.407840999999998,1.787109375
,31.452971599999998,1.7822265625
,31.4539477,1.77734375
,31.4670105,1.7724609375
,31.514597700000003,1.767578125
,31.5150797,1.7626953125
,31.5261251,1.7626953125
,31.564118299999997,1.7529296875
,31.5672208,1.748046875
,31.602981,1.7431640625
,31.6236843,1.73828125
,31.6315686,1.7431640625
,31.667036000000003,1.7578125
,31.670093299999998,1.787109375
,31.6875072,1.806640625
,31.725625899999997,1.8310546875
,31.726300700000003,1.8505859375
,31.762106000000003,1.865234375
,31.783161900000003,1.875
,31.7904659,1.8896484375
,31.810031199999997,1.89453125
,31.845809000000003,1.8994140625
,31.846377099999998,1.8994140625
,31.882968499999997,1.8994140625
,31.8885207,1.8896484375
,31.9365648,1.884765625
,31.9372719,1.8798828125
,31.9495176,1.8701171875
,31.9850707,1.865234375
,31.990110799999997,1.8603515625
,32.0249991,1.8505859375
,32.0271953,1.845703125
,32.0651016,1.845703125
,32.068822,1.8408203125
,32.1065457,1.8359375
,32.1074299,1.8310546875
,32.1418378,1.8212890625
,32.1632287,1.81640625
,32.1725914,1.8115234375
,32.1866306,1.8017578125
,32.2330464,1.8017578125
,32.2337187,1.787109375
,32.2537523,1.7724609375
,32.2691262,1.77734375
,32.3057276,1.77734375
,32.3082529,1.77734375
,32.3444811,1.767578125
,32.3732206,1.767578125
,32.3739052,1.7626953125
,32.3929368,1.767578125
,32.4087405,1.787109375
,32.445619,1.81640625
,32.4486818,1.8408203125
,32.4861573,1.8603515625
,32.492304,1.8701171875
,32.5272247,1.8798828125
,32.5306551,1.884765625
,32.5667487,1.8896484375
,32.5717894,1.8896484375
,32.5888658,1.8896484375
,32.6237057,1.8896484375
,32.6291921,1.8798828125
,32.6646692,1.8701171875
,32.6697776,1.8603515625
,32.7035518,1.8505859375
,32.7243121,1.845703125
,32.7324524,1.8408203125
,32.7492874,1.8310546875
,32.793411,1.8310546875
,32.7941135,1.826171875
,32.8110689,1.826171875
,32.8313421,1.81640625
,32.8515877,1.8115234375
,32.8867717,1.806640625
,32.8892949,1.796875
,32.9230284,1.7919921875
,32.9430271,1.787109375
,32.953521,1.7724609375
,32.9702739,1.767578125
,33.0068903,1.767578125
,33.0099282,1.7626953125
,33.0487261,1.7578125
,33.0494106,1.7529296875
,33.0865782,1.748046875
,33.1054452,1.748046875
,33.1114559,1.7529296875
,33.129774,1.7724609375
,33.1497036,1.8017578125
,33.1859821,1.8212890625
,33.1888818,1.845703125
,33.2267072,1.8603515625
,33.2317015,1.8701171875
,33.252446,1.8798828125
,33.2897547,1.8798828125
,33.2928429,1.884765625
,33.3094227,1.884765625
,33.347627,1.884765625
,33.3483197,1.8798828125
,33.3848808,1.8701171875
,33.4056482,1.8603515625
,33.4106125,1.85546875
,33.461441,1.845703125
,33.462157,1.845703125
,33.4681568,1.8408203125
,33.4913615,1.8408203125
,33.5104802,1.8359375
,33.5454277,1.8310546875
,33.5693715,1.826171875
,33.5700215,1.8212890625
,33.6156424,1.81640625
,33.6163392,1.806640625
,33.6334535,1.8017578125
,33.6800946,1.7919921875
,33.6805612,1.787109375
,33.6896196,1.7822265625
,33.7284375,1.7822265625
,33.7291764,1.77734375
,33.7704691,1.7724609375
,33.771031,1.7626953125
,33.791944,1.7578125
,33.814228,1.748046875
,33.8340983,1.748046875
,33.8530152,1.748046875
,33.8960056,1.7578125
,33.8964955,1.787109375
,33.9116211,1.81640625
,33.9456265,1.845703125
,33.9665656,1.8701171875
,33.9707779,1.884765625
,34.0055029,1.89453125
,34.0260323,1.904296875
,34.0315612,1.9091796875
,34.050381,1.9140625
,34.0705971,1.9189453125
,34.1075531,1.923828125
,34.1101194,1.9140625
,34.1465908,1.904296875
,34.1667482,1.89453125
,34.1745721,1.884765625
,34.1937346,1.8798828125
,34.2103121,1.8701171875
,34.2460055,1.8701171875
,34.2513068,1.865234375
,34.3001353,1.865234375
,34.300784,1.85546875
,34.3126867,1.8505859375
,34.350429,1.8408203125
,34.3531697,1.8359375
,34.3906566,1.826171875
,34.3929743,1.8212890625
,34.4110079,1.8115234375
,34.4480593,1.8115234375
,34.4538531,1.8017578125
,34.4880943,1.8017578125
,34.4931877,1.796875
,34.5132544,1.7919921875
,34.5474631,1.787109375
,34.5694838,1.77734375
,34.5748675,1.7724609375
,34.5915408,1.7626953125
,34.6283146,1.7578125
,34.6313884,1.7529296875
,34.670233,1.7529296875
,34.6710912,1.767578125
,34.7195431,1.7919921875
,34.7202456,1.8212890625
,34.7338193,1.8505859375
,34.7522922,1.8701171875
,34.7701026,1.8896484375
,34.8078914,1.904296875
,34.8120317,1.9140625
,34.848035,1.923828125
,34.8680423,1.93359375
,34.8738268,1.9384765625
,34.9096885,1.93359375
,34.9134314,1.9287109375
,34.9304079,1.9189453125
,34.9683818,1.9140625
,34.9712798,1.89453125
,35.008092,1.89453125
,35.0139296,1.8896484375
,35.0337478,1.8896484375
,35.068799,1.884765625
,35.0746941,1.8798828125
,35.110635,1.8701171875
,35.1162501,1.865234375
,35.1338424,1.85546875
,35.1527608,1.845703125
,35.2011268,1.8408203125
,35.2017382,1.8359375
,35.2127999,1.8359375
,35.2495015,1.826171875
,35.2545945,1.8212890625
,35.2898474,1.81640625
,35.310746,1.8115234375
,35.3112267,1.8017578125
,35.3463393,1.8017578125
,35.367211,1.796875
,35.3733484,1.7919921875
,35.4093848,1.7822265625
,35.414288,1.77734375
,35.4492101,1.77734375
,35.4556381,1.767578125
,35.476628,1.7724609375
,35.4934936,1.787109375
,35.513897,1.8212890625
,35.5487109,1.8505859375
,35.5536442,1.8798828125
,35.5878897,1.8994140625
,35.6087765,1.9189453125
,35.614137,1.9287109375
,35.6643765,1.9384765625
,35.6648548,1.9482421875
,35.6858369,1.943359375
,35.6935559,1.9384765625
,35.730645,1.9482421875
,35.7340809,1.9482421875
,35.7688344,1.9482421875
,35.7742531,1.9384765625
,35.8103719,1.93359375
,35.8149722,1.9287109375
,35.8524338,1.923828125
,35.8806466,1.9189453125
,35.8811418,1.9140625
,35.8939361,1.9140625
,35.9285436,1.9091796875
,35.9486543,1.904296875
,35.9569356,1.89453125
,35.973846,1.8896484375
,36.0103575,1.8798828125
,36.0313515,1.875
,36.0318089,1.865234375
,36.0661356,1.8603515625
,36.0877376,1.85546875
,36.094812,1.8505859375
,36.1302043,1.8408203125
,36.1356765,1.8359375
,36.1749702,1.826171875
,36.1754219,1.81640625
,36.1967268,1.806640625
,36.214,1.796875
,36.2489037,1.796875
,36.2542962,1.8017578125
,36.2890937,1.8212890625
,36.3151869,1.845703125
,36.3156633,1.8798828125
,36.3621701,1.8994140625
,36.3628586,1.9140625
,36.3765473,1.923828125
,36.4242843,1.9384765625
,36.424731,1.943359375
,36.4443745,1.9482421875
,36.4524198,1.9482421875
,36.4899816,1.943359375
,36.5200842,1.9384765625
,36.5211629,1.9287109375
,36.5356505,1.923828125
,36.5703196,1.9140625
,36.5905004,1.9140625
,36.5913555,1.9091796875
,36.6416934,1.9091796875
,36.642349,1.904296875
,36.6634847,1.8994140625
,36.6767514,1.8896484375
,36.7128149,1.884765625
,36.7165174,1.8798828125
,36.7670343,1.865234375
,36.7674825,1.85546875
,36.7882795,1.8505859375
,36.793623,1.845703125
,36.8298223,1.8408203125
,36.8510151,1.8408203125
,36.8562874,1.8310546875
,36.8765022,1.826171875
,36.9111774,1.81640625
,36.9328006,1.8115234375
,36.9335023,1.806640625
,36.9693962,1.8017578125
,36.9753757,1.8017578125
,37.0184206,1.806640625
,37.0191012,1.826171875
,37.0344415,1.8603515625
,37.0732684,1.89453125
,37.0762137,1.9189453125
,37.1094334,1.943359375
,37.1306839,1.9580078125
,37.138433,1.97265625
,37.1554458,1.982421875
,37.1755687,1.9970703125
,37.2130262,2.001953125
,37.2137965,2.01171875
,37.2518947,2.0068359375
,37.2571771,2.001953125
,37.2946253,1.9873046875
,37.2964004,1.982421875
,37.3145781,1.97265625
,37.3632769,1.9677734375
,37.3638754,1.9677734375
,37.3933923,1.962890625
,37.3961189,1.9580078125
,37.432377,1.9482421875
,37.4362002,1.9384765625
,37.4725491,1.9287109375
,37.4931368,1.9189453125
,37.493824,1.9091796875
,37.529744,1.904296875
,37.5363081,1.89453125
,37.5737772,1.8896484375
,37.5769358,1.8798828125
,37.6136834,1.8701171875
,37.6182941,1.8603515625
,37.65589,1.85546875
,37.6565532,1.8408203125
,37.6760772,1.8359375
,37.7241089,1.8310546875
,37.7248178,1.806640625
,37.7362835,1.806640625
,37.7751964,1.8212890625
,37.7757579,1.8505859375
,37.8129758,1.8798828125
,37.8341814,1.9140625
,37.8403768,1.943359375
,37.8754667,1.962890625
,37.8760698,1.9775390625
,37.9269196,1.9970703125
,37.9273884,2.01171875
,37.9361802,2.0361328125
,37.9737031,2.05078125
,37.9766421,2.05078125
,38.0120646,2.0458984375
,38.0334792,2.03125
,38.0390002,2.0166015625
,38.0558204,2.001953125
,38.0896418,2.001953125
,38.1109534,1.9921875
,38.1188999,1.9873046875
,38.1377866,1.9775390625
,38.1718426,1.9677734375
,38.1927732,1.9580078125
,38.2006329,1.953125
,38.215422,1.9384765625
,38.2510304,1.9287109375
,38.2716767,1.9189453125
,38.2771266,1.9091796875
,38.3121079,1.89453125
,38.3331983,1.884765625
,38.3385448,1.875
,38.3609948,1.865234375
,38.3984495,1.8603515625
,38.3989205,1.8505859375
,38.42076,1.8310546875
,38.4380557,1.8212890625
,38.4577767,1.8212890625
,38.5094215,1.8115234375
,38.5100539,1.806640625
,38.5185459,1.8017578125
,38.5547929,1.806640625
,38.5607099,1.8310546875
,38.6025354,1.8701171875
,38.6029859,1.904296875
,38.6167615,1.93359375
,38.6532507,1.962890625
,38.6590757,1.9775390625
,38.6782746,1.9921875
,38.714404,2.001953125
,38.7191956,2.0166015625
,38.7382853,2.021484375
,38.7742563,2.021484375
,38.7945831,2.0166015625
,38.7979066,2.01171875
,38.8182912,2.001953125
,38.8539799,1.9970703125
,38.8589481,1.9873046875
,38.8953701,1.982421875
,38.8982641,1.97265625
,38.9344207,1.9677734375
,38.9549721,1.9580078125
,38.9554327,1.9580078125
,38.9921345,1.9482421875
,39.0250115,1.93359375
,39.0254853,1.923828125
,39.0401616,1.9091796875
,39.0757712,1.8994140625
,39.078695,1.8896484375
,39.1193959,1.8798828125
,39.1502785,1.8701171875
,39.1509727,1.8603515625
,39.1566184,1.8505859375
,39.1914419,1.8408203125
,39.2127316,1.8359375
,39.219667,1.826171875
,39.2390655,1.8115234375
,39.2744837,1.8017578125
,39.2816312,1.7919921875
,39.3176633,1.7822265625
,39.3232233,1.7724609375
,39.3390101,1.7822265625
,39.3598419,1.8212890625
,39.394232,1.8603515625
,39.3994472,1.904296875
,39.433418,1.9287109375
,39.4530074,1.9482421875
,39.4594738,1.962890625
,39.48161,1.97265625
,39.4972681,1.982421875
,39.5381646,1.9873046875
,39.5388663,1.9873046875
,39.5743867,1.982421875
,39.5803304,1.97265625
,39.6128495,1.9677734375
,39.6348836,1.953125
,39.6400588,1.943359375
,39.6769322,1.9384765625
,39.6775511,1.9287109375
,39.711943,1.9287109375
,39.7331321,1.923828125
,39.7407134,1.9189453125
,39.761122,1.904296875
,39.7950481,1.89453125
,39.8002291,1.884765625
,39.8529425,1.8701171875
,39.8536022,1.8603515625
,39.8625471,1.85546875
,39.8802177,1.8408203125
,39.9169685,1.8359375
,39.9199607,1.8310546875
,39.9546619,1.81640625
,39.9597087,1.806640625
,39.9976621,1.8017578125
,40.0008342,1.796875
,40.0380958,1.787109375
,40.0431117,1.796875
,40.0587689,1.8212890625
,40.0946919,1.8603515625
,40.1006055,1.89453125
,40.145388,1.9287109375
,40.1458622,1.9482421875
,40.1632339,1.9580078125
,40.1834151,1.962890625
,40.2183127,1.97265625
,40.2189912,1.97265625
,40.2554979,1.97265625
,40.2585766,1.97265625
,40.2957748,1.9580078125
,40.2998161,1.943359375
,40.3369294,1.93359375
,40.3419681,1.923828125
,40.3610564,1.9189453125
,40.4129299,1.9140625
,40.4135982,1.904296875
,40.4250734,1.8994140625
,40.4417845,1.8798828125
,40.4600258,1.875
,40.5067756,1.865234375
,40.5072458,1.8603515625
,40.537106,1.8505859375
,40.5422801,1.8408203125
,40.5844312,1.8310546875
,40.5853893,1.8212890625
,40.6031458,1.8115234375
,40.6197696,1.796875
,40.6527962,1.7919921875
,40.6738425,1.7822265625
,40.6809414,1.77734375
,40.7169548,1.7626953125
,40.7386442,1.7626953125
,40.7422611,1.77734375
,40.7786748,1.8115234375
,40.7794518,1.8505859375
,40.8124931,1.8896484375
,40.8328756,1.9189453125
,40.8433105,1.9384765625
,40.8615988,1.953125
,40.8966005,1.9677734375
,40.917007,1.9775390625
,40.9228474,1.982421875
,40.9605214,1.9873046875
,40.9610864,1.982421875
,41.0023464,1.982421875
,41.0030311,1.97265625
,41.0225401,1.962890625
,41.0575406,1.953125
,41.0636191,1.9482421875
,41.0834487,1.9384765625
,41.1213097,1.9287109375
,41.1219922,1.923828125
,41.1446378,1.904296875
,41.1605969,1.884765625
,41.2050295,1.8798828125
,41.2055178,1.875
,41.226491,1.865234375
,41.2423021,1.85546875
,41.278773,1.8408203125
,41.2832418,1.8359375
,41.3298738,1.8212890625
,41.3305711,1.8115234375
,41.3492173,1.796875
,41.3611889,1.787109375
,41.3953548,1.77734375
,41.4150409,1.767578125
,41.4242255,1.7578125
,41.4586975,1.7578125
,41.463724,1.7724609375
,41.4852191,1.806640625
,41.5004824,1.845703125
,41.537457,1.884765625
,41.5434816,1.9189453125
,41.5615625,1.943359375
,41.6071138,1.962890625
,41.6081415,1.97265625
,41.6239734,1.982421875
,41.6582421,1.9873046875
,41.679371,1.9970703125
,41.6798341,1.9921875
,41.7158178,1.9921875
,41.7481454,1.982421875
,41.7488573,1.9677734375
,41.7616808,1.9580078125
,41.7970971,1.9482421875
,41.8259551,1.9384765625
,41.8264092,1.9287109375
,41.8449388,1.9189453125
,41.8643028,1.9091796875
,41.9053913,1.8994140625
,41.9058883,1.884765625
,41.9224725,1.8798828125
,41.9585411,1.865234375
,41.9645249,1.85546875
,41.9845678,1.8408203125
,42.0208198,1.826171875
,42.0240102,1.81640625
,42.0617054,1.8115234375
,42.0625177,1.8017578125
,42.0988041,1.796875
,42.1017067,1.787109375
,42.1410817,1.77734375
,42.1718944,1.7626953125
,42.1725806,1.7529296875
,42.1839578,1.7431640625
,42.2345846,1.7431640625
,42.2352169,1.767578125
,42.2432742,1.8017578125
,42.2789573,1.845703125
,42.2823088,1.8798828125
,42.304556,1.904296875
,42.3451767,1.923828125
,42.3456832,1.9384765625
,42.3822837,1.9482421875
,42.3857414,1.9580078125
,42.4021157,1.9580078125
,42.4404861,1.9677734375
,42.4410725,1.962890625
,42.4767141,1.9580078125
,42.497605,1.9482421875
,42.5052024,1.9287109375
,42.5428688,1.9189453125
,42.5433365,1.9091796875
,42.578649,1.904296875
,42.6000412,1.89453125
,42.6072049,1.8896484375
,42.6226926,1.8798828125
,42.6576341,1.8701171875
,42.6788196,1.8603515625
,42.683865,1.8505859375
,42.7178148,1.8359375
,42.7394647,1.826171875
,42.7468119,1.81640625
,42.7815346,1.806640625
,42.7821543,1.7919921875
,42.8285574,1.787109375
,42.8292592,1.7822265625
,42.8457072,1.767578125
,42.8918019,1.7578125
,42.8924429,1.748046875
,42.9065192,1.73828125
,42.9404378,1.7431640625
,42.9610991,1.7724609375
,42.9617194,1.8017578125
,42.9835699,1.8359375
,43.0331391,1.8603515625
,43.033745,1.8798828125
,43.0432735,1.884765625
,43.0793073,1.8994140625
,43.0994648,1.904296875
,43.1044222,1.904296875
,43.1406231,1.904296875
,43.1606835,1.89453125
,43.1665275,1.8896484375
,43.2015328,1.8603515625
,43.2020222,1.85546875
,43.2482434,1.8505859375
,43.2487084,1.8505859375
,43.2690254,1.845703125
,43.2879072,1.8408203125
,43.3261449,1.8310546875
,43.3266154,1.8212890625
,43.3431358,1.8115234375
,43.3796082,1.806640625
,43.4037099,1.796875
,43.4043684,1.787109375
,43.4398382,1.77734375
,43.459362,1.7724609375
,43.4672166,1.7626953125
,43.4869071,1.7529296875
,43.527508,1.748046875
,43.5279727,1.73828125
,43.544025,1.7333984375
,43.578795,1.7236328125
,43.5988991,1.7236328125
,43.6071295,1.728515625
,43.6277321,1.748046875
,43.6471021,1.77734375
,43.6826423,1.8115234375
,43.6832944,1.8359375
,43.7203825,1.865234375
,43.7233054,1.8798828125
,43.7602381,1.8896484375
,43.7665976,1.8994140625
,43.8026892,1.8994140625
,43.8056919,1.904296875
,43.8418565,1.8994140625
,43.8468284,1.8994140625
,43.8682312,1.884765625
,43.8879077,1.865234375
,43.9051759,1.845703125
,43.9403181,1.8505859375
,43.9456865,1.8505859375
,43.9925787,1.8505859375
,43.9932805,1.845703125
,44.007883,1.8408203125
,44.0427018,1.8310546875
,44.048555,1.826171875
,44.0645139,1.8115234375
,44.0988645,1.8115234375
,44.1198504,1.8115234375
,44.1255011,1.8017578125
,44.1633911,1.7919921875
,44.181657,1.787109375
,44.187396,1.77734375
,44.2230081,1.767578125
,44.2290523,1.7626953125
,44.2445273,1.7529296875
,44.2793932,1.748046875
,44.3014643,1.73828125
,44.3049061,1.7333984375
,44.3526054,1.7431640625
,44.3532367,1.767578125
,44.382715,1.8017578125
,44.3879397,1.8310546875
,44.4243507,1.8603515625
,44.4251063,1.875
,44.4622037,1.89453125
,44.4662658,1.9091796875
,44.5018581,1.923828125
,44.5086654,1.9287109375
,44.5449234,1.9384765625
,44.5456808,1.9384765625
,44.5828728,1.93359375
,44.6166828,1.923828125
,44.6171549,1.9140625
,44.6265877,1.904296875
,44.6613363,1.8994140625
,44.6670702,1.89453125
,44.7034262,1.8896484375
,44.7059968,1.8798828125
,44.744345,1.875
,44.7489779,1.8701171875
,44.7841235,1.85546875
,44.7897513,1.845703125
,44.8034609,1.8359375
,44.8428489,1.826171875
,44.8459861,1.81640625
,44.8839132,1.8115234375
,44.8874467,1.8017578125
,44.9227483,1.7919921875
,44.9443503,1.7822265625
,44.9493211,1.77734375
,44.9659827,1.7626953125
,45.0024106,1.7626953125
,45.0050507,1.7529296875
,45.0398615,1.7431640625
,45.0616554,1.73828125
,45.0694377,1.728515625
,45.08905,1.728515625
,45.127894,1.748046875
,45.1287246,1.7822265625
,45.145173,1.81640625
,45.1805399,1.85546875
,45.2008979,1.8798828125
,45.2087333,1.8994140625
,45.2282726,1.9091796875
,45.2692979,1.9287109375
,45.2699614,1.93359375
,45.2903973,1.9384765625
,45.3113664,1.9384765625
,45.3300098,1.9384765625
,45.3456395,1.9287109375
,45.381171,1.923828125
,45.3866589,1.9140625
,45.4249469,1.904296875
,45.4566656,1.8994140625
,45.4573191,1.8896484375
,45.468683,1.884765625
,45.5055608,1.875
,45.5104057,1.8701171875
,45.5256668,1.8603515625
,45.5621718,1.8505859375
,45.5835596,1.8408203125
,45.5866079,1.8310546875
,45.6279205,1.8212890625
,45.6283806,1.8115234375
,45.6489323,1.8017578125
,45.6858625,1.7919921875
,45.6929476,1.787109375
,45.7074534,1.7724609375
,45.7537219,1.767578125
,45.7542156,1.7578125
,45.7683229,1.7529296875
,45.8045685,1.73828125
,45.8096547,1.728515625
,45.8465041,1.71875
,45.8513294,1.7236328125
,45.8669519,1.73828125
,45.9033753,1.7822265625
,45.9083706,1.8115234375
,45.9453877,1.845703125
,45.9634796,1.865234375
,45.9691958,1.8798828125
,46.0159035,1.884765625
,46.0164753,1.89453125
,46.0308529,1.8994140625
,46.0659767,1.89453125
,46.0863877,1.89453125
,46.0868787,1.884765625
,46.1257887,1.875
,46.1471798,1.8701171875
,46.1505747,1.865234375
,46.1872472,1.8603515625
,46.1900465,1.85546875
,46.2246337,1.845703125
,46.2453759,1.8408203125
,46.2488673,1.8310546875
,46.2688836,1.826171875
,46.3147579,1.81640625
,46.3153271,1.806640625
,46.3299085,1.796875
,46.3666534,1.787109375
,46.3699484,1.77734375
,46.4021934,1.7626953125
,46.424342,1.7578125
,46.4283162,1.7431640625
,46.4697428,1.73828125
,46.4704946,1.728515625
,46.4904607,1.71875
,46.5316115,1.708984375
,46.5323283,1.69921875
,46.5499053,1.689453125
,46.5933422,1.689453125
,46.5941635,1.7041015625
,46.6124071,1.728515625
,46.6290007,1.7529296875
,46.6641187,1.8017578125
,46.669884,1.8310546875
,46.7173054,1.8505859375
,46.7184249,1.865234375
,46.7469743,1.875
,46.7501185,1.884765625
,46.7882374,1.884765625
,46.7912011,1.8896484375
,46.8256858,1.884765625
,46.8303529,1.875
,46.8646575,1.8701171875
,46.8691795,1.85546875
,46.9045499,1.8505859375
,46.9250199,1.845703125
,46.9301342,1.8359375
,46.9650668,1.8310546875
,46.984554,1.826171875
,46.9873831,1.8115234375
,47.0244459,1.806640625
,47.0554798,1.796875
,47.0561706,1.7919921875
,47.0702694,1.77734375
,47.1173841,1.767578125
,47.1178546,1.7578125
,47.1390672,1.748046875
,47.1481754,1.73828125
,47.1955705,1.73828125
,47.1960362,1.728515625
,47.2094675,1.71875
,47.2450332,1.708984375
,47.2523629,1.69921875
,47.2706758,1.689453125
,47.3092449,1.689453125
,47.3123566,1.7138671875
,47.3518446,1.73828125
,47.3547909,1.7724609375
,47.3698649,1.8017578125
,47.4059546,1.8310546875
,47.4103536,1.8505859375
,47.4461414,1.865234375
,47.4512749,1.875
,47.4877968,1.884765625
,47.4913075,1.89453125
,47.5283319,1.8994140625
,47.5287932,1.89453125
,47.5638439,1.89453125
,47.5847113,1.884765625
,47.5922326,1.875
,47.6334767,1.8701171875
,47.6339511,1.8603515625
,47.6690385,1.8505859375
,47.6718756,1.845703125
,47.7110563,1.8359375
,47.7116829,1.826171875
,47.7307312,1.81640625
,47.7678408,1.806640625
,47.7728316,1.796875
,47.7919114,1.7822265625
,47.8285716,1.7724609375
,47.8310137,1.7578125
,47.880521,1.748046875
,47.8809797,1.73828125
,47.9018262,1.7333984375
,47.9120599,1.7236328125
,47.9318525,1.7138671875
,47.9661587,1.7041015625
,47.9711643,1.6943359375
,48.0229865,1.6845703125
,48.0235235,1.6748046875
,48.0352315,1.669921875
,48.0552068,1.6748046875
,48.1012073,1.7041015625
,48.1017132,1.7333984375
,48.1123397,1.7724609375
,48.1487698,1.8017578125
,48.1517535,1.8212890625
,48.1940498,1.8359375
,48.1945223,1.8505859375
,48.224549,1.8603515625
,48.232549,1.8701171875
,48.2728314,1.875
,48.2735091,1.8701171875
,48.3038761,1.8701171875
,48.3116792,1.8603515625
,48.3471198,1.8505859375
,48.3813393,1.8359375
,48.3819656,1.826171875
,48.3938674,1.81640625
,48.4319028,1.8115234375
,48.4323683,1.8017578125
,48.4748592,1.796875
,48.4756306,1.787109375
,48.4914654,1.77734375
,48.5262984,1.767578125
,48.5474755,1.7578125
,48.5546624,1.7431640625
,48.6007844,1.7333984375
,48.6014053,1.7236328125
,48.6114048,1.7138671875
,48.6470233,1.7041015625
,48.6529856,1.6845703125
,48.6725367,1.6845703125
,48.6920392,1.6796875
,48.7269423,1.6748046875
,48.7476984,1.6650390625
,48.7527801,1.6552734375
,48.789068,1.650390625
,48.8157501,1.640625
,48.8162052,1.6357421875
,48.8323634,1.650390625
,48.8797558,1.6748046875
,48.8805537,1.7138671875
,48.8951547,1.748046875
,48.9306874,1.7724609375
,48.9331481,1.787109375
,48.9682305,1.796875
,48.9879646,1.806640625
,48.9908648,1.8115234375
,49.0254154,1.8212890625
,49.0473991,1.8212890625
,49.0542777,1.8212890625
,49.0908476,1.81640625
,49.095541,1.8115234375
,49.1157892,1.796875
,49.1631804,1.787109375
,49.1637698,1.7822265625
,49.1709793,1.77734375
,49.2072034,1.7724609375
,49.2399415,1.7724609375
,49.2406671,1.767578125
,49.2552026,1.7626953125
,49.2922078,1.7578125
,49.2930652,1.748046875
,49.328478,1.7333984375
,49.3498883,1.7236328125
,49.356842,1.708984375
,49.3727611,1.689453125
,49.4101505,1.6943359375
,49.4154598,1.689453125
,49.4501807,1.689453125
,49.4551476,1.6796875
,49.4904292,1.6796875
,49.5115857,1.669921875
,49.5146776,1.6650390625
,49.550568,1.66015625
,49.5836965,1.650390625
,49.5842911,1.6455078125
,49.5947823,1.650390625
,49.6279535,1.6748046875
,49.6496102,1.69921875
,49.6553249,1.728515625
,49.6902014,1.7529296875
,49.7113223,1.767578125
,49.7121343,1.7724609375
,49.7532624,1.7822265625
,49.7541112,1.787109375
,49.7916122,1.7919921875
,49.7920584,1.7919921875
,49.8277142,1.787109375
,49.8486582,1.77734375
,49.8576101,1.767578125
,49.893496,1.7626953125
,49.8939437,1.748046875
,49.9306848,1.7529296875
,49.93498,1.7431640625
,49.9704417,1.7431640625
,49.976349,1.73828125
,50.0119122,1.7333984375
,50.0151967,1.7236328125
,50.0516393,1.7138671875
,50.0548033,1.7041015625
,50.0901144,1.69921875
,50.111471,1.6943359375
,50.1119339,1.689453125
,50.1521986,1.6845703125
,50.155437,1.6796875
,50.1898976,1.6748046875
,50.1955854,1.669921875
,50.232777,1.6650390625
,50.2385032,1.66015625
,50.2558242,1.66015625
,50.297441,1.6552734375
,50.2981286,1.6552734375
,50.3151449,1.650390625
,50.350807,1.6650390625
,50.3740167,1.6845703125
,50.3744849,1.71875
,50.4200547,1.748046875
,50.4204979,1.7724609375
,50.4416401,1.787109375
,50.4539422,1.8017578125
,50.4878211,1.806640625
,50.5088411,1.81640625
,50.5163594,1.8212890625
,50.5616929,1.8212890625
,50.5622694,1.81640625
,50.5771127,1.8115234375
,50.623581,1.8017578125
,50.6242245,1.787109375
,50.6343411,1.787109375
,50.669701,1.7822265625
,50.6754124,1.77734375
,50.7100283,1.7724609375
,50.7310563,1.767578125
,50.7360468,1.7626953125
,50.7710711,1.7578125
,50.7941943,1.7529296875
,50.7978758,1.7431640625
,50.8314214,1.73828125
,50.8519754,1.728515625
,50.8545945,1.7236328125
,50.8892149,1.71875
,50.910715,1.71875
,50.9172195,1.708984375
,50.954022,1.708984375
,50.9587264,1.69921875
,51.0002613,1.6943359375
,51.0009149,1.689453125
,51.0131056,1.6845703125
,51.0471866,1.6796875
,51.069003,1.6796875
,51.077832,1.6796875
,51.0980943,1.69921875
,51.1351064,1.7236328125
,51.1395755,1.7626953125
,51.1862956,1.787109375
,51.1867663,1.806640625
,51.1940414,1.826171875
,51.2314287,1.8359375
,51.236792,1.8505859375
,51.2723054,1.85546875
,51.2775227,1.8603515625
,51.3124444,1.865234375
,51.317997,1.865234375
,51.3358737,1.85546875
,51.3736811,1.8505859375
,51.3741519,1.8408203125
,51.4101339,1.8359375
,51.4298204,1.8310546875
,51.4366169,1.826171875
,51.4735362,1.8212890625
,51.4765432,1.81640625
,51.5135719,1.8115234375
,51.5344231,1.8017578125
,51.539813,1.796875
,51.554971,1.787109375
,51.5914262,1.787109375
,51.5960773,1.7822265625
,51.6292774,1.77734375
,51.6501316,1.767578125
,51.6574906,1.7626953125
,51.7022602,1.7529296875
,51.7029486,1.748046875
,51.7169885,1.7431640625
,51.7363731,1.73828125
,51.7708616,1.73828125
,51.7763009,1.7333984375
,51.8248469,1.728515625
,51.8253073,1.71875
,51.8376976,1.7138671875
,51.8742685,1.708984375
,51.8773573,1.728515625
,51.9126698,1.7578125
,51.9159277,1.7919921875
,51.9515913,1.8212890625
,51.9561117,1.8505859375
,51.9956734,1.8603515625
,52.016309,1.875
,52.0197405,1.8798828125
,52.0550485,1.884765625
,52.0581779,1.8896484375
,52.0788559,1.884765625
,52.1004515,1.8798828125
,52.1167366,1.865234375
,52.1692198,1.8701171875
,52.1696889,1.8701171875
,52.1798021,1.8701171875
,52.1996168,1.865234375
,52.247596,1.8603515625
,52.2482715,1.85546875
,52.258835,1.8505859375
,52.2781809,1.845703125
,52.2974947,1.845703125
,52.3337019,1.8408203125
,52.3369257,1.8359375
,52.3746846,1.826171875
,52.37842,1.8212890625
,52.4158553,1.8115234375
,52.418721,1.806640625
,52.4633624,1.8017578125
,52.4640343,1.7919921875
,52.4926624,1.787109375
,52.4981168,1.787109375
,52.5363707,1.77734375
,52.5369263,1.7724609375
,52.5850844,1.7626953125
,52.5855323,1.7578125
,52.5988374,1.748046875
,52.6159665,1.73828125
,52.6522937,1.73828125
,52.6572322,1.7431640625
,52.6915145,1.7724609375
,52.7122914,1.806640625
,52.7192542,1.8408203125
,52.7544619,1.875
,52.7593989,1.89453125
,52.7954793,1.9091796875
,52.8012275,1.9189453125
,52.8496482,1.9287109375
,52.8500972,1.93359375
,52.8578084,1.943359375
,52.8956873,1.9482421875
,52.9168906,1.943359375
,52.9175783,1.93359375
,52.9568342,1.923828125
,52.9784796,1.9140625
,52.9791599,1.9091796875
,52.9962228,1.8994140625
,53.0328915,1.8994140625
,53.0532395,1.89453125
,53.0583248,1.8896484375
,53.0795006,1.884765625
,53.114515,1.875
,53.120066,1.865234375
,53.1543667,1.85546875
,53.1758892,1.845703125
,53.1789475,1.8359375
,53.1983333,1.8310546875
,53.2342785,1.826171875
,53.2556791,1.81640625
,53.2603254,1.8115234375
,53.2802071,1.8017578125
,53.3175502,1.7919921875
,53.3198825,1.787109375
,53.3368466,1.7822265625
,53.3749823,1.77734375
,53.3785798,1.7724609375
,53.4148225,1.767578125
,53.4200076,1.767578125
,53.4400317,1.7822265625
,53.473116,1.81640625
,53.4939121,1.845703125
,53.4996926,1.8798828125
,53.5351599,1.89453125
,53.5552383,1.9140625
,53.5586311,1.9189453125
,53.5954348,1.9287109375
,53.5982309,1.93359375
,53.6339259,1.9384765625
,53.6545498,1.93359375
,53.6628023,1.9287109375
,53.6812523,1.9189453125
,53.7168213,1.9091796875
,53.7222285,1.904296875
,53.7386212,1.8994140625
,53.7737488,1.89453125
,53.7950267,1.89453125
,53.8001832,1.8896484375
,53.8193003,1.884765625
,53.855484,1.8798828125
,53.8746534,1.8701171875
,53.8820701,1.8603515625
,53.8996318,1.845703125
,53.936132,1.8408203125
,53.940137,1.8359375
,53.9597361,1.826171875
,53.9950612,1.81640625
,54.0260006,1.806640625
,54.026674,1.806640625
,54.0408331,1.796875
,54.0858615,1.7919921875
,54.0863042,1.7822265625
,54.106155,1.7822265625
,54.1182669,1.7724609375
,54.1535175,1.767578125
,54.1745443,1.7578125
,54.1809239,1.7529296875
,54.2016134,1.748046875
,54.2416286,1.767578125
,54.2421497,1.8017578125
,54.2768491,1.845703125
,54.2983872,1.8798828125
,54.299298,1.9140625
,54.3354074,1.93359375
,54.3406971,1.953125
,54.3780903,1.962890625
,54.3812033,1.97265625
,54.4028387,1.9775390625
,54.4382301,1.9775390625
,54.4438486,1.9775390625
,54.4596392,1.9677734375
,54.4962043,1.962890625
,54.5021283,1.953125
,54.5368286,1.9482421875
,54.5406302,1.9384765625
,54.5775466,1.93359375
,54.5828305,1.923828125
,54.6297619,1.9189453125
,54.6302867,1.904296875
,54.6394193,1.8994140625
,54.6759709,1.89453125
,54.6958896,1.884765625
,54.7021435,1.875
,54.7381332,1.865234375
,54.7439433,1.85546875
,54.762664,1.845703125
,54.8135644,1.8359375
,54.8142332,1.826171875
,54.825038,1.806640625
,54.843292,1.7919921875
,54.8619032,1.796875
,54.9056417,1.796875
,54.9062513,1.7919921875
,54.9259121,1.787109375
,54.9422883,1.77734375
,54.9773176,1.767578125
,54.9974381,1.7626953125
,55.0025602,1.7626953125
,55.0357282,1.77734375
,55.0399517,1.81640625
,55.07531,1.85546875
,55.0961537,1.8896484375
,55.1012231,1.9189453125
,55.1386041,1.9384765625
,55.1426863,1.953125
,55.1815582,1.9580078125
,55.1820806,1.962890625
,55.20119,1.97265625
,55.235856,1.9775390625
,55.2556432,1.9775390625
,55.2636249,1.97265625
,55.2841253,1.962890625
,55.3194373,1.9580078125
,55.3221947,1.943359375
,55.3583925,1.9384765625
,55.3783109,1.9287109375
,55.3810923,1.93359375
,55.430374,1.923828125
,55.4312521,1.923828125
,55.4442379,1.9140625
,55.4653094,1.904296875
,55.4855799,1.89453125
,55.5040789,1.884765625
,55.5247896,1.8701171875
,55.5431383,1.8505859375
,55.561397,1.8408203125
,55.5978196,1.8359375
,55.6004119,1.826171875
,55.6349454,1.8212890625
,55.6558425,1.81640625
,55.6647359,1.806640625
,55.7008398,1.796875
,55.7052708,1.787109375
,55.7546728,1.7822265625
,55.7553457,1.767578125
,55.7614548,1.7626953125
,55.8015745,1.7578125
,55.8022207,1.748046875
,55.837116,1.7431640625
,55.8589424,1.767578125
,55.8640961,1.8017578125
,55.8862674,1.845703125
,55.9022306,1.8798828125
,55.9214107,1.9140625
,55.9722465,1.9384765625
,55.9728145,1.9482421875
,55.9830605,1.962890625
,56.0336931,1.9677734375
,56.0340946,1.97265625
,56.0438182,1.9775390625
,56.0800604,1.97265625
,56.1004613,1.962890625
,56.1023589,1.9580078125
,56.1380618,1.9482421875
,56.1431888,1.943359375
,56.1782421,1.93359375
,56.2006359,1.923828125
,56.2051848,1.9189453125
,56.2397081,1.9091796875
,56.2454318,1.8994140625
,56.2845419,1.89453125
,56.3147055,1.884765625
,56.3153405,1.8701171875
,56.3243895,1.8603515625
,56.3613937,1.8505859375
,56.3633199,1.845703125
,56.4011988,1.8310546875
,56.4242714,1.826171875
,56.4248816,1.8212890625
,56.4716231,1.8115234375
,56.4721599,1.8017578125
,56.5021014,1.796875
,56.5029219,1.787109375
,56.5250452,1.7822265625
,56.5446175,1.7724609375
,56.5952106,1.7578125
,56.5956627,1.7529296875
,56.6052562,1.748046875
,56.6428324,1.7529296875
,56.6434788,1.77734375
,56.662532,1.8212890625
,56.6998786,1.8603515625
,56.7019146,1.89453125
,56.7368925,1.9140625
,56.7646898,1.9287109375
,56.7652883,1.93359375
,56.8113224,1.9384765625
,56.8119048,1.9384765625
,56.8420768,1.943359375
,56.8432266,1.9384765625
,56.8811088,1.93359375
,56.8852315,1.923828125
,56.9341265,1.9140625
,56.9348196,1.904296875
,56.9469814,1.89453125
,56.983208,1.89453125
,56.9874291,1.884765625
,57.0235963,1.875
,57.024318,1.875
,57.0603033,1.8701171875
,57.0643697,1.8603515625
,57.1077371,1.8505859375
,57.108581,1.8359375
,57.1267472,1.8310546875
,57.1620617,1.8212890625
,57.1666172,1.806640625
,57.1826827,1.787109375
,57.2335499,1.7822265625
,57.2341351,1.7822265625
,57.2455613,1.7724609375
,57.2811178,1.7626953125
,57.2851215,1.748046875
,57.3263932,1.73828125
,57.3269991,1.728515625
,57.3460474,1.73828125
,57.3647969,1.7578125
,57.4023614,1.8115234375
,57.4030162,1.845703125
,57.4406399,1.884765625
,57.4447694,1.9091796875
,57.4965164,1.9287109375
,57.4969178,1.9384765625
,57.5149317,1.943359375
,57.524477,1.9482421875
,57.5479161,1.953125
,57.568957,1.9384765625
,57.5849315,1.9287109375
,57.6199211,1.93359375
,57.6400422,1.93359375
,57.6450851,1.923828125
,57.6822019,1.9091796875
,57.7112029,1.904296875
,57.7117512,1.8994140625
,57.7287267,1.89453125
,57.7451366,1.8798828125
,57.767606,1.875
,57.7860881,1.8701171875
,57.8363204,1.85546875
,57.8370724,1.8408203125
,57.8465005,1.8310546875
,57.8672181,1.8212890625
,57.9049791,1.8115234375
,57.909242,1.806640625
,57.9245497,1.796875
,57.9712998,1.796875
,57.9717386,1.787109375
,57.9865843,1.77734375
,58.0325877,1.767578125
,58.0333856,1.7578125
,58.0485226,1.748046875
,58.0686193,1.73828125
,58.0852225,1.7431640625
,58.1054173,1.77734375
,58.1263233,1.81640625
,58.1708934,1.85546875
,58.1716828,1.884765625
,58.2025597,1.9140625
,58.2068169,1.93359375
,58.2478687,1.943359375
,58.2483089,1.953125
,58.2835036,1.9580078125
,58.3084528,1.962890625
,58.3091944,1.962890625
,58.3260557,1.962890625
,58.3606636,1.9580078125
,58.3821899,1.9482421875
,58.3865859,1.943359375
,58.4336113,1.9287109375
,58.4342798,1.923828125
,58.4619572,1.923828125
,58.4638094,1.9140625
,58.5014035,1.9140625
,58.507989,1.9091796875
,58.5433319,1.8994140625
,58.5486112,1.8896484375
,58.5850058,1.875
,58.589057,1.865234375
,58.6329448,1.8505859375
,58.6338078,1.8359375
,58.6474967,1.8212890625
,58.6666503,1.8115234375
,58.7030091,1.806640625
,58.7063745,1.8017578125
,58.7419466,1.7919921875
,58.7616901,1.77734375
,58.7666817,1.767578125
,58.8012639,1.7529296875
,58.8353528,1.73828125
,58.8358739,1.7333984375
,58.8481166,1.7236328125
,58.8662247,1.7236328125
,58.9129011,1.7431640625
,58.9133286,1.7822265625
,58.9262011,1.826171875
,58.9600937,1.8603515625
,58.9926912,1.8994140625
,58.9933231,1.9189453125
,59.0091255,1.9384765625
,59.0267427,1.9482421875
,59.069315,1.9677734375
,59.06986,1.97265625
,59.0895603,1.982421875
,59.1079549,1.982421875
,59.1456993,1.9775390625
,59.1497542,1.962890625
,59.17141,1.9482421875
,59.2087759,1.9384765625
,59.2092926,1.9287109375
,59.2260219,1.923828125
,59.2611801,1.9189453125
,59.2871544,1.9091796875
,59.2878748,1.8994140625
,59.322459,1.8896484375
,59.342106,1.8701171875
,59.3481419,1.8603515625
,59.3826508,1.8408203125
,59.3847526,1.8310546875
,59.4204653,1.8212890625
,59.4426448,1.8115234375
,59.4491717,1.796875
,59.4843178,1.7919921875
,59.4886156,1.7822265625
,59.522624,1.7724609375
,59.5493703,1.7578125
,59.5497904,1.7431640625
,59.5674745,1.7333984375
,59.6127413,1.7236328125
,59.6131251,1.7138671875
,59.6277062,1.7041015625
,59.6739573,1.7236328125
,59.6744653,1.7578125
,59.7042371,1.8017578125
,59.7106683,1.8408203125
,59.7446109,1.875
,59.766511,1.89453125
,59.7671277,1.9091796875
,59.8024523,1.923828125
,59.8272021,1.923828125
,59.8290418,1.923828125
,59.864356,1.923828125
,59.869441,1.9189453125
,59.9041378,1.9091796875
,59.9248168,1.89453125
,59.9269061,1.8798828125
,59.9621045,1.875
,59.9690057,1.865234375
,60.0163748,1.865234375
,60.0170201,1.85546875
,60.029225,1.8505859375
,60.0762951,1.8408203125
,60.076817,1.8310546875
,60.0966371,1.8115234375
,60.1090957,1.806640625
,60.1282946,1.796875
,60.1685022,1.787109375
,60.1693714,1.77734375
,60.1896935,1.767578125
,60.2255266,1.7578125
,60.2323326,1.748046875
,60.2512314,1.73828125
,60.2717441,1.728515625
,60.2940817,1.708984375
,60.3090645,1.6943359375
,60.3464628,1.6943359375
,60.3468441,1.69921875
,60.3821189,1.7236328125
,60.4026955,1.7626953125
,60.4105386,1.806640625
,60.4455549,1.8505859375
,60.4669044,1.8798828125
,60.4731335,1.8994140625
,60.4888661,1.9140625
,60.5378481,1.93359375
,60.5382334,1.943359375
,60.5493496,1.9482421875
,60.5993314,1.9482421875
,60.5998395,1.943359375
,60.6293896,1.93359375
,60.6317633,1.9189453125
,60.6484758,1.9091796875
,60.683639,1.8994140625
,60.6886636,1.8994140625
,60.7239758,1.89453125
,60.7445707,1.8896484375
,60.7506954,1.8798828125
,60.7876999,1.875
,60.791806,1.8603515625
,60.827325,1.845703125
,60.8278842,1.826171875
,60.8635555,1.81640625
,60.8901883,1.806640625
,60.891034,1.796875
,60.9233564,1.7919921875
,60.9435842,1.7822265625
,60.9504166,1.77734375
,60.9991414,1.7626953125
,60.9996234,1.7578125
,61.0282435,1.7333984375
,61.0286658,1.7236328125
,61.0651014,1.71875
,61.0888058,1.7138671875
,61.0893565,1.7041015625
,61.1229783,1.71875
,61.1454935,1.748046875
,61.1535591,1.7919921875
,61.1732937,1.8310546875
,61.2095444,1.8701171875
,61.21014,1.89453125
,61.2455554,1.9189453125
,61.2780951,1.93359375
,61.2788611,1.9482421875
,61.2917235,1.953125
,61.3296234,1.962890625
,61.3305595,1.962890625
,61.3648705,1.962890625
,61.3856033,1.953125
,61.387642,1.9482421875
,61.4203099,1.9384765625
,61.4418818,1.9287109375
,61.4503086,1.9189453125
,61.4864773,1.9140625
,61.5091748,1.904296875
,61.511715,1.89453125
,61.5565685,1.884765625
,61.5572104,1.8701171875
,61.5774247,1.8603515625
,61.5906636,1.8505859375
,61.6349427,1.8359375
,61.6353776,1.8212890625
,61.6537546,1.8115234375
,61.6867421,1.8017578125
,61.6908017,1.787109375
,61.7243054,1.77734375
,61.7465866,1.767578125
,61.7546687,1.7578125
,61.7708951,1.7431640625
,61.807746,1.7431640625
,61.8104005,1.728515625
,61.8478384,1.7236328125
,61.8518561,1.708984375
,61.8900223,1.7041015625
,61.8919919,1.708984375
,61.9296235,1.7431640625
,61.94917,1.77734375
,61.9510694,1.826171875
,61.9854449,1.8603515625
,62.007650600000005,1.8896484375
,62.012867299999996,1.904296875
,62.0500007,1.923828125
,62.054906200000005,1.9384765625
,62.0966107,1.943359375
,62.097118800000004,1.953125
,62.1103255,1.9482421875
,62.1453183,1.9482421875
,62.1493258,1.943359375
,62.1853761,1.93359375
,62.2070959,1.9189453125
,62.214373800000004,1.9091796875
,62.2334041,1.8994140625
,62.267392799999996,1.89453125
,62.287578999999994,1.8896484375
,62.289576600000004,1.8896484375
,62.323501300000004,1.8798828125
,62.3439487,1.8701171875
,62.3519352,1.8603515625
,62.3864535,1.845703125
,62.4069078,1.8359375
,62.4132381,1.8212890625
,62.4527442,1.8115234375
,62.482157599999994,1.796875
,62.4827009,1.787109375
,62.491998499999994,1.7724609375
,62.526459900000006,1.7724609375
,62.5473422,1.7578125
,62.554763300000005,1.7529296875
,62.5737494,1.7431640625
,62.610733100000004,1.7333984375
,62.61531239999999,1.7236328125
,62.636673200000004,1.7236328125
,62.6517044,1.73828125
,62.70053420000001,1.77734375
,62.701136399999996,1.8212890625
,62.7119938,1.8505859375
,62.7607179,1.875
,62.7613211,1.8896484375
,62.78193159999999,1.8994140625
,62.795674899999995,1.904296875
,62.815873800000006,1.9140625
,62.8322855,1.9140625
,62.8680748,1.9140625
,62.87097850000001,1.9140625
,62.9056099,1.904296875
,62.92688029999999,1.8896484375
,62.9344646,1.8798828125
,62.98421999999999,1.8701171875
,62.9848229,1.865234375
,62.994221800000005,1.8603515625
,63.0150883,1.8505859375
,63.0353319,1.8310546875
,63.053080300000005,1.8115234375
,63.092609499999995,1.81640625
,63.093297500000006,1.8115234375
,63.130765800000006,1.8017578125
,63.1315328,1.796875
,63.166861499999996,1.7919921875
,63.1872877,1.77734375
,63.195581700000005,1.7724609375
,63.213414799999995,1.7578125
,63.248443699999996,1.7529296875
,63.2533713,1.7431640625
,63.2878814,1.7333984375
,63.2931705,1.7236328125
,63.3292393,1.71875
,63.3593908,1.7138671875
,63.359996300000006,1.7236328125
,63.3765511,1.748046875
,63.3926922,1.787109375
,63.429198400000004,1.8310546875
,63.433690799999994,1.8603515625
,63.469551499999994,1.8896484375
,63.4760184,1.904296875
,63.4960579,1.9189453125
,63.5320225,1.923828125
,63.5348616,1.9287109375
,63.5761868,1.93359375
,63.57656969999999,1.943359375
,63.592032599999996,1.9384765625
,63.6262715,1.93359375
,63.6479703,1.923828125
,63.6542759,1.9091796875
,63.690502300000006,1.8994140625
,63.696051999999995,1.89453125
,63.73226390000001,1.8896484375
,63.736692000000005,1.8798828125
,63.7712248,1.8603515625
,63.773990999999995,1.85546875
,63.810830300000006,1.8505859375
,63.815488099999996,1.8408203125
,63.865895800000004,1.8359375
,63.8665139,1.826171875
,63.874353600000006,1.81640625
,63.9116453,1.8017578125
,63.9171795,1.7919921875
,63.9341189,1.7822265625
,63.9749379,1.77734375
,63.975742499999996,1.7724609375
,63.99628010000001,1.7626953125
,64.0152407,1.7529296875
,64.049398,1.73828125
,64.0708534,1.728515625
,64.0760879,1.71875
,64.0978039,1.708984375
,64.1123784,1.7138671875
,64.1461788,1.748046875
,64.1671039,1.787109375
,64.175325,1.8310546875
,64.2239934,1.8603515625
,64.2245203,1.8896484375
,64.2363533,1.904296875
,64.2720745,1.9189453125
,64.2773268,1.9287109375
,64.2946541,1.9384765625
,64.3133137,1.9482421875
,64.3475347,1.953125
,64.3698108,1.953125
,64.3782159,1.943359375
,64.396381,1.93359375
,64.4169317,1.923828125
,64.4529768,1.9140625
,64.4572562,1.904296875
,64.5027311,1.8994140625
,64.5033944,1.884765625
,64.5332882,1.8798828125
,64.5342243,1.8701171875
,64.5696545,1.865234375
,64.5906404,1.8505859375
,64.5970353,1.845703125
,64.6158649,1.8359375
,64.6521804,1.8212890625
,64.6587258,1.8115234375
,64.6745813,1.796875
,64.710392,1.7919921875
,64.7159921,1.7822265625
,64.7524528,1.7724609375
,64.755304,1.7626953125
,64.8006661,1.7529296875
,64.8013821,1.73828125
,64.8182661,1.7236328125
,64.8335787,1.7138671875
,64.8696564,1.708984375
,64.8903816,1.7041015625
,64.8954521,1.7138671875
,64.9339518,1.748046875
,64.9348989,1.787109375
,64.9726989,1.8310546875
,64.9778003,1.865234375
,65.0127358,1.8896484375
,65.0132848,1.904296875
,65.049139,1.9189453125
,65.0698689,1.93359375
,65.0761634,1.9384765625
,65.1216866,1.943359375
,65.1224356,1.953125
,65.1378492,1.943359375
,65.173677,1.93359375
,65.2008938,1.9189453125
,65.2017211,1.9091796875
,65.2144857,1.8994140625
,65.2510789,1.8994140625
,65.2801152,1.89453125
,65.2805905,1.884765625
,65.2978224,1.875
,65.3340759,1.865234375
,65.3372036,1.8505859375
,65.373604,1.8359375
,65.3788591,1.8212890625
,65.3953395,1.8115234375
,65.4376597,1.8017578125
,65.4383725,1.7919921875
,65.4574916,1.7822265625
,65.4930327,1.7724609375
,65.4987062,1.7626953125
,65.5473252,1.7529296875
,65.547908,1.73828125
,65.5591124,1.728515625
,65.5772645,1.7138671875
,65.6136227,1.708984375
,65.6143213,1.708984375
,65.6489795,1.728515625
,65.6701094,1.7578125
,65.678146,1.796875
,65.7145388,1.8310546875
,65.7199189,1.85546875
,65.7353082,1.875
,65.7723141,1.8896484375
,65.7750905,1.884765625
,65.8095428,1.8994140625
,65.8303246,1.904296875
,65.8374431,1.9091796875
,65.8576708,1.8994140625
,65.8927204,1.89453125
,65.9223591,1.884765625
,65.9228296,1.875
,65.9388038,1.865234375
,65.95672,1.8603515625
,65.9907703,1.85546875
,66.0124398,1.8505859375
,66.0171477,1.845703125
,66.0559916,1.8310546875
,66.0599416,1.8212890625
,66.080219,1.806640625
,66.1250948,1.7919921875
,66.1257875,1.77734375
,66.1374491,1.77734375
,66.186128,1.767578125
,66.1866028,1.7578125
,66.1967925,1.748046875
,66.2349368,1.73828125
,66.2551327,1.7236328125
,66.2582412,1.7138671875
,66.2944915,1.69921875
,66.2973615,1.689453125
,66.3351775,1.6796875
,66.3358891,1.6796875
,66.3705741,1.6943359375
,66.3908919,1.7236328125
,66.3980812,1.7724609375
,66.4360596,1.8115234375
,66.4656131,1.8505859375
,66.4660814,1.875
,66.4819786,1.8798828125
,66.4971337,1.884765625
,66.5169818,1.9091796875
,66.5532181,1.923828125
,66.5724659,1.93359375
,66.5799068,1.9384765625
,66.6142296,1.9384765625
,66.6197131,1.9287109375
,66.6544564,1.9189453125
,66.6749615,1.9140625
,66.6754794,1.9091796875
,66.7111805,1.904296875
,66.7310994,1.8994140625
,66.7385998,1.89453125
,66.7729966,1.8798828125
,66.7948942,1.8701171875
,66.8011694,1.85546875
,66.8408843,1.8408203125
,66.8412718,1.826171875
,66.8576773,1.8115234375
,66.8930953,1.8017578125
,66.9126902,1.787109375
,66.9185843,1.77734375
,66.9516893,1.767578125
,66.97884,1.7578125
,66.9794098,1.7431640625
,67.0173423,1.7333984375
,67.0177569,1.7138671875
,67.0511109,1.708984375
,67.0735304,1.69921875
,67.0788492,1.69921875
,67.1002399,1.708984375
,67.1357069,1.73828125
,67.1401139,1.77734375
,67.1830341,1.8212890625
,67.1836291,1.85546875
,67.2002509,1.875
,67.2363884,1.89453125
,67.2369879,1.9091796875
,67.2735446,1.9287109375
,67.2784759,1.9384765625
,67.3141523,1.943359375
,67.338686,1.9482421875
,67.3392891,1.943359375
,67.3846193,1.93359375
,67.3853045,1.9189453125
,67.4060151,1.904296875
,67.4184416,1.8994140625
,67.4534631,1.8896484375
,67.4750151,1.884765625
,67.4788655,1.8798828125
,67.5275886,1.865234375
,67.528039,1.8505859375
,67.5493365,1.8359375
,67.5617012,1.826171875
,67.5778443,1.806640625
,67.6138243,1.796875
,67.6351491,1.7822265625
,67.6399043,1.767578125
,67.6778638,1.7529296875
,67.6786158,1.748046875
,67.7157255,1.7333984375
,67.7364495,1.71875
,67.7371477,1.7041015625
,67.7719799,1.69921875
,67.7939342,1.6796875
,67.8016607,1.669921875
,67.8195449,1.66015625
,67.8689333,1.66015625
,67.8694044,1.6845703125
,67.8893209,1.71875
,67.9019095,1.767578125
,67.9465851,1.806640625
,67.9470541,1.8359375
,67.9577952,1.8603515625
,67.9787851,1.8798828125
,68.0253931,1.8896484375
,68.0258834,1.904296875
,68.04692,1.9140625
,68.0622519,1.9189453125
,68.1036471,1.9140625
,68.104118,1.9091796875
,68.1380527,1.89453125
,68.1387367,1.8798828125
,68.1810061,1.8701171875
,68.1814835,1.8603515625
,68.200971,1.85546875
,68.2371634,1.8505859375
,68.242728,1.8408203125
,68.27672,1.8310546875
,68.2971803,1.81640625
,68.2998498,1.8017578125
,68.3202967,1.7919921875
,68.3556291,1.77734375
,68.3586605,1.7626953125
,68.3961868,1.7529296875
,68.4020571,1.73828125
,68.4435231,1.7236328125
,68.4439829,1.71875
,68.4735557,1.7041015625
,68.479179,1.689453125
,68.5150569,1.6748046875
,68.5200275,1.650390625
,68.5557416,1.6455078125
,68.5775988,1.640625
,68.5807007,1.6552734375
,68.6197991,1.6845703125
,68.623121,1.728515625
,68.6610013,1.767578125
,68.6616985,1.8017578125
,68.6793649,1.8212890625
,68.7239926,1.845703125
,68.7246387,1.85546875
,68.7553006,1.8701171875
,68.7632582,1.8798828125
,68.7828772,1.8798828125
,68.8207974,1.8701171875
,68.8215128,1.8603515625
,68.8588339,1.8505859375
,68.8595351,1.8359375
,68.8962962,1.8310546875
,68.9016903,1.826171875
,68.9384835,1.8212890625
,68.9424778,1.8115234375
,68.9786338,1.806640625
,68.9841386,1.7919921875
,69.0192384,1.7822265625
,69.0199425,1.767578125
,69.0546954,1.7578125
,69.0758588,1.748046875
,69.0818062,1.73828125
,69.1206115,1.728515625
,69.1210847,1.71875
,69.1606542,1.7041015625
,69.1632571,1.6943359375
,69.2008257,1.6796875
,69.2017482,1.669921875
,69.2392483,1.650390625
,69.2712099,1.650390625
,69.2718864,1.669921875
,69.28144,1.7041015625
,69.318077,1.748046875
,69.3475312,1.7822265625
,69.348175,1.8115234375
,69.3646136,1.8359375
,69.4002909,1.8505859375
,69.4061609,1.865234375
,69.4218878,1.875
,69.4582347,1.884765625
,69.4886855,1.8896484375
,69.4893416,1.89453125
,69.5040387,1.8798828125
,69.5242914,1.8701171875
,69.5593813,1.85546875
,69.5647608,1.845703125
,69.5795671,1.8359375
,69.6156282,1.8359375
,69.6218334,1.826171875
,69.6582659,1.8212890625
,69.6625595,1.806640625
,69.7013997,1.796875
,69.7020967,1.7822265625
,69.7396031,1.7724609375
,69.7598378,1.7626953125
,69.760286,1.7529296875
,69.7989635,1.7431640625
,69.8204068,1.7333984375
,69.8210296,1.7236328125
,69.8601748,1.7138671875
,69.881934,1.69921875
,69.8854014,1.6845703125
,69.9209216,1.669921875
,69.9267642,1.66015625
,69.9451886,1.6552734375
,69.9796964,1.66015625
,69.9808491,1.689453125
,70.0154233,1.7236328125
,70.0374942,1.7578125
,70.0427753,1.787109375
,70.076872,1.806640625
,70.0976357,1.826171875
,70.1050435,1.8359375
,70.1536009,1.8505859375
,70.1542771,1.8603515625
,70.161759,1.8701171875
,70.1964797,1.8701171875
,70.2187711,1.8701171875
,70.2240667,1.8603515625
,70.2602635,1.8505859375
,70.2669485,1.8359375
,70.2865431,1.826171875
,70.3020162,1.81640625
,70.3213991,1.8115234375
,70.357006,1.8017578125
,70.377789,1.796875
,70.3836602,1.7822265625
,70.434181,1.7724609375
,70.4348645,1.7578125
,70.4455765,1.748046875
,70.4845312,1.7333984375
,70.4851873,1.71875
,70.5024967,1.7138671875
,70.5381503,1.7041015625
,70.5434433,1.6943359375
,70.5797418,1.6845703125
,70.5848987,1.6748046875
,70.6236925,1.6650390625
,70.6533381,1.650390625
,70.6540547,1.640625
,70.6652633,1.640625
,70.704571,1.650390625
,70.7051084,1.669921875
,70.7248407,1.7041015625
,70.7451991,1.73828125
,70.7827581,1.7724609375
,70.783435,1.7919921875
,70.8193669,1.8115234375
,70.8403724,1.8212890625
,70.8484387,1.8310546875
,70.8636779,1.8359375
,70.8843257,1.845703125
,70.9043492,1.8408203125
,70.939056,1.8408203125
,70.9451987,1.826171875
,70.9837023,1.8115234375
,70.9847377,1.796875
,71.0242916,1.7919921875
,71.024986,1.7822265625
,71.044091,1.7724609375
,71.0906325,1.767578125
,71.0913267,1.7578125
,71.1040944,1.748046875
,71.1390409,1.73828125
,71.160137,1.728515625
,71.1674541,1.7236328125
,71.2024064,1.708984375
,71.2030575,1.69921875
,71.2480504,1.6943359375
,71.2487119,1.6845703125
,71.2645562,1.6796875
,71.3081177,1.669921875
,71.3088856,1.66015625
,71.3296935,1.6552734375
,71.3469251,1.6455078125
,71.3828645,1.630859375
,71.3875137,1.6259765625
,71.4209522,1.62109375
,71.4421981,1.6162109375
,71.4428912,1.630859375
,71.4886214,1.6552734375
,71.4892217,1.6943359375
,71.510076,1.728515625
,71.5263318,1.7578125
,71.5626344,1.7724609375
,71.58147,1.7919921875
,71.583202,1.8017578125
,71.6182815,1.81640625
,71.6390514,1.8212890625
,71.6479453,1.826171875
,71.6818794,1.8212890625
,71.6859358,1.8115234375
,71.7223154,1.8017578125
,71.7436095,1.7919921875
,71.7486904,1.77734375
,71.7638274,1.767578125
,71.7853971,1.767578125
,71.8193016,1.767578125
,71.8400563,1.7626953125
,71.8454543,1.7529296875
,71.8815138,1.748046875
,71.8873382,1.73828125
,71.92271,1.728515625
,71.9280838,1.71875
,71.9488709,1.69921875
,71.9854876,1.689453125
,71.9866754,1.6845703125
,72.0062402,1.689453125
,72.0413187,1.6845703125
,72.0466798,1.6796875
,72.0854609,1.6796875
,72.0884959,1.669921875
,72.1225578,1.66015625
,72.1434248,1.6552734375
,72.143873,1.6552734375
,72.1772766,1.6748046875
,72.1983784,1.6943359375
,72.2061033,1.7236328125
,72.2525355,1.748046875
,72.2532359,1.7724609375
,72.2675748,1.7822265625
,72.3083337,1.796875
,72.3090196,1.8017578125
,72.3259741,1.8017578125
,72.3453455,1.806640625
,72.3875817,1.8017578125
,72.3881124,1.7919921875
,72.4349828,1.7822265625
,72.4356719,1.7724609375
,72.4485736,1.7626953125
,72.4862273,1.7578125
,72.4869412,1.7529296875
,72.5063295,1.7529296875
,72.542036,1.748046875
,72.5452518,1.748046875
,72.5878733,1.7431640625
,72.5884087,1.73828125
,72.6094986,1.728515625
,72.6301372,1.7236328125
,72.6649371,1.7138671875
,72.6672565,1.708984375
,72.7009665,1.69921875
,72.7205735,1.6943359375
,72.7259533,1.689453125
,72.7601802,1.6845703125
,72.7808042,1.6796875
,72.7890059,1.6748046875
,72.8245344,1.6845703125
,72.8301544,1.69921875
,72.8657813,1.728515625
,72.8662481,1.7529296875
,72.9014814,1.787109375
,72.9221279,1.8017578125
,72.9270827,1.8212890625
,72.9650543,1.826171875
,72.9657794,1.8310546875
,73.0034006,1.8310546875
,73.0094374,1.8310546875
,73.0435996,1.8310546875
,73.0632499,1.8212890625
,73.0662844,1.8115234375
,73.1016722,1.806640625
,73.1065486,1.8017578125
,73.1538182,1.796875
,73.1544994,1.7919921875
,73.1733812,1.787109375
,73.190853,1.7822265625
,73.2059189,1.7724609375
,73.2464197,1.7724609375
,73.2468917,1.767578125
,73.2797096,1.7626953125
,73.3005651,1.7578125
,73.3076973,1.7529296875
,73.3571074,1.748046875
,73.3577274,1.73828125
,73.3878373,1.73828125
,73.3883019,1.728515625
,73.434286,1.7236328125
,73.4349176,1.71875
,73.4655085,1.728515625
,73.4660795,1.73828125
,73.4889757,1.767578125
,73.5098688,1.8017578125
,73.5468071,1.826171875
,73.5496983,1.8505859375
,73.5846968,1.8701171875
,73.6062531,1.884765625
,73.6069768,1.89453125
,73.6494441,1.9091796875
,73.6501188,1.9140625
,73.6987898,1.923828125
,73.6994334,1.9189453125
,73.7096339,1.9140625
,73.7449582,1.904296875
,73.7777609,1.8896484375
,73.7784435,1.8798828125
,73.7884474,1.875
,73.8256575,1.8701171875
,73.829391,1.8701171875
,73.8488097,1.8603515625
,73.8851014,1.85546875
,73.9175025,1.8505859375
,73.9182016,1.8408203125
,73.9288437,1.8310546875
,73.9646369,1.8212890625
,73.972864,1.81640625
,73.9897725,1.7919921875
,74.0084318,1.7919921875
,74.0299728,1.787109375
,74.0645417,1.7822265625
,74.0695531,1.7724609375
,74.1069641,1.767578125
,74.1098595,1.767578125
,74.1452493,1.787109375
,74.1491805,1.8115234375
,74.168967,1.845703125
,74.2152743,1.865234375
,74.2159739,1.89453125
,74.2297651,1.9091796875
,74.2781503,1.923828125
,74.2786834,1.93359375
,74.3090806,1.9384765625
,74.3096783,1.9482421875
,74.3273267,1.9482421875
,74.3633987,1.953125
,74.3689012,1.9482421875
,74.4057776,1.9384765625
,74.4112722,1.9287109375
,74.4304555,1.9189453125
,74.4505298,1.9091796875
,74.471876,1.904296875
,74.4880708,1.89453125
,74.5238391,1.89453125
,74.5289838,1.8896484375
,74.5738746,1.875
,74.574544,1.865234375
,74.5940647,1.85546875
,74.6121091,1.845703125
,74.6473382,1.8310546875
,74.6522862,1.8212890625
,74.6726461,1.8115234375
,74.692593,1.787109375
,74.7088394,1.767578125
,74.7463122,1.7724609375
,74.7487606,1.767578125
,74.7845113,1.7724609375
,74.8048017,1.787109375
,74.8104405,1.81640625
,74.8482093,1.8408203125
,74.8685473,1.875
,74.8721318,1.8994140625
,74.88863,1.9140625
,74.9305205,1.93359375
,74.9309909,1.9482421875
,74.9684677,1.9580078125
,74.9691649,1.9677734375
,75.0096396,1.9677734375
,75.0406353,1.9677734375
,75.0412201,1.9580078125
,75.0492507,1.9482421875
,75.0850231,1.9384765625
,75.0906393,1.9287109375
,75.1258245,1.923828125
,75.132191,1.9140625
,75.1520196,1.904296875
,75.1878081,1.8994140625
,75.1933109,1.884765625
,75.2275486,1.8701171875
,75.2295398,1.85546875
,75.2643757,1.8505859375
,75.2726785,1.8359375
,75.2917904,1.8212890625
,75.3113615,1.806640625
,75.3465989,1.8017578125
,75.3515437,1.7822265625
,75.4015467,1.7724609375
,75.4020356,1.7578125
,75.4131994,1.748046875
,75.430931,1.73828125
,75.4669365,1.7431640625
,75.4699902,1.7578125
,75.5233149,1.7919921875
,75.5240144,1.81640625
,75.5328372,1.8408203125
,75.5693284,1.865234375
,75.572939,1.8798828125
,75.6164094,1.89453125
,75.6170734,1.8994140625
,75.6301314,1.9189453125
,75.6650054,1.9287109375
,75.6866743,1.93359375
,75.6921387,1.9287109375
,75.7408543,1.9189453125
,75.7412981,1.9091796875
,75.7534304,1.8994140625
,75.7708216,1.884765625
,75.8054888,1.8798828125
,75.8357481,1.875
,75.8362022,1.865234375
,75.8509118,1.85546875
,75.890049,1.845703125
,75.8906585,1.8359375
,75.9279335,1.8212890625
,75.9334977,1.8115234375
,75.9493145,1.796875
,75.9888312,1.787109375
,75.9894199,1.7724609375
,76.028128,1.767578125
,76.0336617,1.7529296875
,76.0525024,1.7431640625
,76.0989235,1.728515625
,76.0993858,1.71875
,76.1134354,1.7041015625
,76.1518627,1.6943359375
,76.1524143,1.6845703125
,76.1728294,1.6845703125
,76.1920662,1.7041015625
,76.2134796,1.728515625
,76.2330997,1.7578125
,76.270218,1.7822265625
,76.2707371,1.8017578125
,76.3168639,1.81640625
,76.317503,1.826171875
,76.3387066,1.8408203125
,76.3518919,1.8505859375
,76.388183,1.85546875
,76.3913084,1.865234375
,76.4297664,1.8603515625
,76.4332755,1.8505859375
,76.4680474,1.845703125
,76.4885736,1.8310546875
,76.4957437,1.8212890625
,76.511886,1.8115234375
,76.5461396,1.8115234375
,76.5665894,1.8017578125
,76.5715256,1.796875
,76.606737,1.787109375
,76.631673,1.7822265625
,76.6322182,1.7724609375
,76.6684218,1.7626953125
,76.6888193,1.7529296875
,76.6920886,1.7431640625
,76.7280894,1.73828125
,76.7317622,1.728515625
,76.7699559,1.7236328125
,76.7706291,1.71875
,76.8074615,1.708984375
,76.8283427,1.69921875
,76.8336891,1.6943359375
,76.8812799,1.6845703125
,76.8817791,1.6796875
,76.902743,1.6748046875
,76.9128506,1.6748046875
,76.9470024,1.6796875
,76.9513771,1.69921875
,76.9868183,1.728515625
,77.0083036,1.7578125
,77.0165015,1.77734375
,77.0361952,1.796875
,77.0525488,1.8115234375
,77.0880372,1.826171875
,77.0927322,1.8359375
,77.1290239,1.8408203125
,77.1341759,1.8505859375
,77.1700106,1.845703125
,77.1748612,1.845703125
,77.2253733,1.8359375
,77.2260748,1.826171875
,77.233784,1.81640625
,77.2544107,1.81640625
,77.2906813,1.8115234375
,77.2937732,1.8115234375
,77.3340396,1.806640625
,77.3345907,1.8017578125
,77.3696047,1.7919921875
,77.3745906,1.787109375
,77.3946378,1.77734375
,77.4171611,1.767578125
,77.4364316,1.7529296875
,77.4524897,1.7529296875
,77.4895843,1.7578125
,77.5106038,1.7578125
,77.5163119,1.7529296875
,77.5357095,1.748046875
,77.5729936,1.748046875
,77.5738052,1.73828125
,77.612055,1.7333984375
,77.6125188,1.7236328125
,77.6324373,1.7236328125
,77.6682635,1.7236328125
,77.6893401,1.728515625
,77.6943022,1.748046875
,77.7312291,1.7724609375
,77.7342486,1.806640625
,77.7718212,1.826171875
,77.8003794,1.8408203125
,77.8008239,1.8505859375
,77.8141948,1.8603515625
,77.8342671,1.865234375
,77.8694366,1.8701171875
,77.8955724,1.8701171875
,77.8962655,1.865234375
,77.9153937,1.8603515625
,77.9582477,1.85546875
,77.958929,1.845703125
,77.9733117,1.845703125
,78.0084529,1.8408203125
,78.030078,1.8408203125
,78.035177,1.8310546875
,78.0830476,1.8310546875
,78.0841891,1.826171875
,78.0966279,1.81640625
,78.1148513,1.8115234375
,78.1474362,1.8017578125
,78.1682824,1.796875
,78.174421,1.787109375
,78.2240135,1.787109375
,78.2246909,1.7822265625
,78.2542922,1.7822265625
,78.2547434,1.77734375
,78.2910653,1.7724609375
,78.3192837,1.7626953125
,78.3199759,1.7626953125
,78.333608,1.7529296875
,78.3846308,1.7529296875
,78.3853345,1.7578125
,78.3962807,1.7724609375
,78.4320467,1.8017578125
,78.437742,1.826171875
,78.4579309,1.8505859375
,78.4766757,1.865234375
,78.5116255,1.875
,78.5120991,1.8798828125
,78.5473027,1.884765625
,78.5681313,1.8798828125
,78.5772967,1.884765625
,78.5940372,1.875
,78.6296164,1.865234375
,78.651408,1.85546875
,78.6573842,1.845703125
,78.6738771,1.8408203125
,78.7105328,1.8408203125
,78.7130348,1.8408203125
,78.7463289,1.8408203125
,78.7660346,1.8359375
,78.7747039,1.826171875
,78.8123217,1.8212890625
,78.81623,1.8115234375
,78.8549625,1.8115234375
,78.8587812,1.8017578125
,78.8940126,1.796875
,78.921701,1.7919921875
,78.9223797,1.7919921875
,78.9355851,1.787109375
,78.9830895,1.787109375
,78.9837895,1.7822265625
,78.9965569,1.77734375
,79.0332111,1.77734375
,79.0385265,1.7822265625
,79.0748614,1.8017578125
,79.0753175,1.8212890625
,79.1052242,1.85546875
,79.1156236,1.875
,79.149235,1.8896484375
,79.1699746,1.89453125
,79.1772824,1.904296875
,79.2162148,1.904296875
,79.216914,1.9140625
,79.261162,1.9091796875
,79.2616151,1.9091796875
,79.2767433,1.8994140625
,79.313178,1.8896484375
,79.3160086,1.8798828125
,79.3544668,1.875
,79.3853275,1.8701171875
,79.3858049,1.865234375
,79.3974022,1.8603515625
,79.415119,1.85546875
,79.4626311,1.85546875
,79.46309,1.8505859375
,79.4765879,1.845703125
,79.5266573,1.8359375
,79.5273366,1.8310546875
,79.5567667,1.8212890625
,79.5572315,1.81640625
,79.6026747,1.806640625
,79.603131,1.806640625
,79.6325016,1.796875
,79.6356029,1.7919921875
,79.6562307,1.7919921875
,79.6907197,1.7822265625
,79.7120623,1.7822265625
,79.7178876,1.787109375
,79.7529817,1.806640625
,79.7583693,1.8310546875
,79.7955497,1.85546875
,79.7960344,1.875
,79.832456,1.89453125
,79.8355496,1.904296875
,79.8725118,1.9140625
,79.8991008,1.9189453125
,79.8995984,1.9189453125
,79.9349303,1.923828125
,79.9377552,1.923828125
,79.9727472,1.9140625
,79.9763384,1.9140625
,80.0111412,1.904296875
,80.0321673,1.89453125
,80.0383363,1.8896484375
,80.0731703,1.8798828125
,80.0782795,1.875
,80.1145562,1.8701171875
,80.1351681,1.865234375
,80.1390604,1.85546875
,80.1601836,1.8359375
,80.1779062,1.8212890625
,80.2132832,1.826171875
,80.21808,1.826171875
,80.2560694,1.8212890625
,80.2568115,1.81640625
,80.2978899,1.8115234375
,80.2984399,1.806640625
,80.3191787,1.8017578125
,80.3562516,1.7919921875
,80.3567144,1.7822265625
,80.3942504,1.77734375
,80.3974278,1.7724609375
,80.4333791,1.77734375
,80.4392026,1.787109375
,80.4597292,1.8115234375
,80.4956014,1.8310546875
,80.4991535,1.85546875
,80.533961,1.8701171875
,80.5356899,1.8896484375
,80.5694634,1.8994140625
,80.5907304,1.904296875
,80.5981426,1.904296875
,80.6349642,1.9091796875
,80.6399285,1.9091796875
,80.6770729,1.904296875
,80.6820742,1.89453125
,80.6987147,1.8798828125
,80.7329737,1.875
,80.7379358,1.865234375
,80.7788468,1.865234375
,80.7793791,1.85546875
,80.8005516,1.85546875
,80.835405,1.8505859375
,80.8405978,1.8408203125
,80.860404,1.8310546875
,80.8951342,1.81640625
,80.9167716,1.8115234375
,80.9173645,1.806640625
,80.9535116,1.8017578125
,80.9589829,1.796875
,80.9937936,1.7919921875
,81.0149256,1.787109375
,81.0205269,1.787109375
,81.0564708,1.7822265625
,81.0612402,1.77734375
,81.0794617,1.7724609375
,81.1152465,1.7724609375
,81.1208273,1.767578125
,81.1389466,1.7626953125
,81.1747947,1.7578125
,81.1952474,1.7578125
,81.2001005,1.7724609375
,81.2348261,1.796875
,81.2557827,1.8212890625
,81.2586455,1.8505859375
,81.2782991,1.8701171875
,81.3135426,1.8798828125
,81.3179611,1.8896484375
,81.353887,1.8994140625
,81.3749844,1.904296875
,81.3822087,1.904296875
,81.4016632,1.8994140625
,81.4193091,1.89453125
,81.4550109,1.8896484375
,81.4581322,1.8798828125
,81.4957131,1.865234375
,81.5016109,1.8603515625
,81.5375239,1.85546875
,81.5383318,1.8505859375
,81.5745368,1.8505859375
,81.59511,1.845703125
,81.6019373,1.8359375
,81.6403039,1.826171875
,81.6409879,1.81640625
,81.6758845,1.8115234375
,81.6788607,1.806640625
,81.715955,1.8017578125
,81.7189472,1.7919921875
,81.7558728,1.7822265625
,81.7769786,1.7724609375
,81.7821721,1.7724609375
,81.7982321,1.7626953125
,81.8358384,1.7578125
,81.8386333,1.7578125
,81.8743646,1.7529296875
,81.8791569,1.7431640625
,81.9157958,1.7431640625
,81.937249,1.748046875
,81.9427117,1.7578125
,81.9623045,1.787109375
,81.9781027,1.8115234375
,82.0136066,1.8359375
,82.0348871,1.85546875
,82.0408449,1.865234375
,82.0786128,1.875
,82.0790827,1.875
,82.1194848,1.875
,82.1406521,1.875
,82.1413589,1.8701171875
,82.1603874,1.865234375
,82.1980267,1.85546875
,82.2187596,1.8408203125
,82.2192294,1.8359375
,82.2552215,1.8310546875
,82.2767846,1.826171875
,82.2816667,1.8212890625
,82.3222237,1.81640625
,82.3229186,1.806640625
,82.3515857,1.8017578125
,82.3608194,1.7919921875
,82.3808747,1.787109375
,82.4012697,1.7822265625
,82.4371787,1.7822265625
,82.4400469,1.7724609375
,82.4794444,1.767578125
,82.5007142,1.7626953125
,82.5014107,1.7529296875
,82.5213455,1.748046875
,82.5425709,1.748046875
,82.5777108,1.7431640625
,82.5800258,1.73828125
,82.616566,1.73828125
,82.6236992,1.73828125
,82.6426014,1.7578125
,82.6626514,1.77734375
,82.6982882,1.806640625
,82.6987607,1.8212890625
,82.7379202,1.8408203125
,82.7418947,1.85546875
,82.7610928,1.8603515625
,82.7951109,1.865234375
,82.8156368,1.8701171875
,82.8217933,1.8701171875
,82.860059,1.865234375
,82.8609609,1.865234375
,82.8854596,1.8505859375
,82.9044656,1.8310546875
,82.9204024,1.8115234375
,82.9536747,1.8212890625
,82.9754075,1.8212890625
,82.9826519,1.8212890625
,83.0233021,1.8212890625
,83.0239919,1.81640625
,83.0712362,1.81640625
,83.0719311,1.8115234375
,83.0797007,1.806640625
,83.1155203,1.806640625
,83.1359543,1.8017578125
,83.1410741,1.796875
,83.1786374,1.7919921875
,83.1816168,1.787109375
,83.2173772,1.7822265625
,83.2375013,1.7724609375
,83.2457468,1.767578125
,83.2616382,1.7578125
,83.2972953,1.7578125
,83.3033474,1.7529296875
,83.3363718,1.7578125
,83.3418735,1.767578125
,83.3779875,1.7919921875
,83.3843808,1.81640625
,83.4217314,1.8408203125
,83.4224179,1.85546875
,83.4410671,1.875
,83.4757057,1.884765625
,83.4973905,1.89453125
,83.5004274,1.8994140625
,83.5380328,1.8994140625
,83.5426555,1.8994140625
,83.5776999,1.89453125
,83.5988159,1.8896484375
,83.6044933,1.8798828125
,83.639648,1.8701171875
,83.6401075,1.8603515625
,83.6614337,1.8603515625
,83.7100271,1.85546875
,83.7104991,1.85546875
,83.7295595,1.8505859375
,83.7440873,1.8408203125
,83.7798826,1.8310546875
,83.7844916,1.826171875
,83.8026014,1.81640625
,83.8224167,1.8115234375
,83.84201,1.806640625
,83.8779293,1.8017578125
,83.8842872,1.796875
,83.9042267,1.787109375
,83.9406157,1.7822265625
,83.9453311,1.7724609375
,83.9812931,1.767578125
,83.9817498,1.7578125
,84.0198441,1.7578125
,84.0223664,1.7529296875
,84.0573854,1.7529296875
,84.0780452,1.7626953125
,84.0837449,1.7919921875
,84.1315635,1.81640625
,84.1320335,1.845703125
,84.1627478,1.865234375
,84.1636829,1.875
,84.1816588,1.89453125
,84.2255688,1.8994140625
,84.2260079,1.904296875
,84.2445633,1.9091796875
,84.280685,1.9091796875
,84.2836968,1.904296875
,84.3183736,1.8994140625
,84.3386596,1.884765625
,84.3472008,1.875
,84.3638034,1.865234375
,84.3997963,1.8603515625
,84.4023159,1.85546875
,84.439157,1.85546875
,84.4450033,1.845703125
,84.488851,1.8408203125
,84.489549,1.8359375
,84.506637,1.8212890625
,84.5260851,1.81640625
,84.5428668,1.8017578125
,84.5632556,1.796875
,84.5997132,1.7919921875
,84.629445,1.787109375
,84.630235,1.77734375
,84.6472543,1.7724609375
,84.6678254,1.7626953125
,84.6861324,1.7529296875
,84.7020112,1.7431640625
,84.7376644,1.7431640625
,84.7581005,1.7333984375
,84.7637865,1.728515625
,84.8000843,1.73828125
,84.82131,1.7529296875
,84.8244449,1.7822265625
,84.8610698,1.806640625
,84.8663358,1.8359375
,84.882886,1.8505859375
,84.9175146,1.8701171875
,84.9226965,1.8798828125
,84.959509,1.8896484375
,84.9646232,1.89453125
,84.998913,1.8994140625
,85.0198024,1.8994140625
,85.0277318,1.89453125
,85.0461425,1.884765625
,85.080671,1.8798828125
,85.1014288,1.865234375
,85.1020048,1.8701171875
,85.1460841,1.8701171875
,85.1467628,1.865234375
,85.1830537,1.8603515625
,85.1842376,1.8505859375
,85.2239353,1.845703125
,85.2246103,1.8310546875
,85.2613142,1.8212890625
,85.2830402,1.8115234375
,85.2837441,1.8017578125
,85.3198942,1.796875
,85.3254486,1.787109375
,85.3602204,1.77734375
,85.3813085,1.7724609375
,85.3863573,1.7626953125
,85.4074163,1.7529296875
,85.4273005,1.748046875
,85.4435554,1.73828125
,85.4813519,1.7333984375
,85.4848822,1.7236328125
,85.5226466,1.7236328125
,85.5253613,1.7333984375
,85.5628039,1.7626953125
,85.5685086,1.787109375
,85.5881967,1.8115234375
,85.6049198,1.8310546875
,85.6410463,1.8505859375
,85.6432026,1.8505859375
,85.6802475,1.865234375
,85.6856574,1.8798828125
,85.723332,1.884765625
,85.7240044,1.8896484375
,85.7611159,1.8896484375
,85.7814061,1.8798828125
,85.7896431,1.8701171875
,85.8238114,1.8603515625
,85.8242651,1.85546875
,85.8605821,1.8505859375
,85.8816513,1.8505859375
,85.8850924,1.845703125
,85.9219271,1.8359375
,85.9422283,1.8310546875
,85.9482279,1.8212890625
,85.9843935,1.8115234375
,85.9849458,1.8017578125
,86.020505,1.7919921875
,86.0234414,1.787109375
,86.0604525,1.77734375
,86.081597,1.7724609375
,86.0870437,1.7626953125
,86.1074894,1.7529296875
,86.1412506,1.7431640625
,86.1622048,1.7333984375
,86.1655692,1.7236328125
,86.2050687,1.71875
,86.2061566,1.7138671875
,86.2521311,1.708984375
,86.2527244,1.7138671875
,86.2680861,1.73828125
,86.303332,1.767578125
,86.3087553,1.796875
,86.3298166,1.81640625
,86.3665829,1.826171875
,86.3672635,1.8408203125
,86.3855937,1.8603515625
,86.4225061,1.875
,86.4254831,1.884765625
,86.4691788,1.8896484375
,86.4696156,1.884765625
,86.4903934,1.8798828125
,86.5094837,1.865234375
,86.5472676,1.8603515625
,86.5479895,1.8505859375
,86.594981,1.845703125
,86.5956684,1.8408203125
,86.6071733,1.8408203125
,86.6451465,1.8310546875
,86.6456493,1.826171875
,86.6878386,1.81640625
,86.6885134,1.806640625
,86.7109471,1.796875
,86.7284863,1.787109375
,86.7458553,1.7822265625
,86.7957483,1.7724609375
,86.7964387,1.7626953125
,86.8085868,1.7529296875
,86.8281616,1.748046875
,86.8655186,1.7333984375
,86.8684483,1.728515625
,86.8862658,1.71875
,86.9068575,1.7138671875
,86.9273094,1.7041015625
,86.966845,1.69921875
,86.9680507,1.689453125
,87.0155301,1.6845703125
,87.0161232,1.6845703125
,87.0288971,1.708984375
,87.0645153,1.7431640625
,87.0698092,1.77734375
,87.1070013,1.806640625
,87.1074816,1.8212890625
,87.143963,1.8408203125
,87.1470936,1.85546875
,87.1830376,1.8701171875
,87.204265,1.875
,87.209015,1.884765625
,87.2306614,1.884765625
,87.2655254,1.8798828125
,87.2662043,1.8701171875
,87.3114949,1.865234375
,87.3121817,1.85546875
,87.3420334,1.8505859375
,87.3483431,1.845703125
,87.3861702,1.8408203125
,87.3887992,1.8359375
,87.4255301,1.826171875
,87.4305402,1.8212890625
,87.4468653,1.8115234375
,87.481986,1.8017578125
,87.5028685,1.7919921875
,87.5081153,1.787109375
,87.5455654,1.77734375
,87.5504085,1.767578125
,87.5915666,1.7578125
,87.5921441,1.748046875
,87.6068838,1.73828125
,87.6436818,1.73828125
,87.6470178,1.728515625
,87.6683252,1.728515625
,87.7185232,1.71875
,87.7192248,1.708984375
,87.7483631,1.69921875
,87.7488166,1.689453125
,87.7857689,1.689453125
,87.7911609,1.7041015625
,87.8282164,1.73828125
,87.8289515,1.767578125
,87.8734043,1.806640625
,87.8740937,1.826171875
,87.8909545,1.8408203125
,87.9092613,1.8505859375
,87.9451951,1.85546875
,87.9507397,1.8603515625
,87.987773,1.865234375
,87.9929235,1.8603515625
,88.0083312,1.8505859375
,88.0596956,1.845703125
,88.0603827,1.8359375
,88.0682855,1.8310546875
,88.1029119,1.826171875
,88.1240354,1.826171875
,88.131964,1.81640625
,88.1709894,1.8115234375
,88.1716809,1.806640625
,88.1886011,1.806640625
,88.2242994,1.796875
,88.2291809,1.7919921875
,88.2796993,1.7822265625
,88.2802841,1.7724609375
,88.3094621,1.7626953125
,88.3099116,1.7578125
,88.3454663,1.7529296875
,88.3728982,1.73828125
,88.3733433,1.7236328125
,88.3876328,1.7041015625
,88.4332436,1.7041015625
,88.4337752,1.7041015625
,88.4546916,1.7041015625
,88.4695868,1.71875
,88.5124327,1.7431640625
,88.5129424,1.77734375
,88.546517,1.806640625
,88.5469747,1.8310546875
,88.5840146,1.8505859375
,88.6046166,1.8603515625
,88.6101699,1.865234375
,88.6313116,1.875
,88.6820318,1.875
,88.6827458,1.8701171875
,88.6923415,1.865234375
,88.7274593,1.85546875
,88.7279077,1.845703125
,88.7476913,1.8408203125
,88.7917304,1.8359375
,88.7923507,1.8359375
,88.812517,1.8310546875
,88.8322134,1.826171875
,88.8517004,1.81640625
,88.8726988,1.806640625
,88.8891081,1.796875
,88.9247041,1.7919921875
,88.9297693,1.787109375
,88.963248,1.7822265625
,88.9942546,1.7724609375
,88.9949961,1.7626953125
,89.0113973,1.7529296875
,89.0314317,1.7431640625
,89.0687206,1.73828125
,89.0717888,1.7236328125
,89.1077505,1.708984375
,89.1082385,1.7041015625
,89.1308259,1.7138671875
,89.1820467,1.7431640625
,89.1827272,1.7822265625
,89.1913689,1.8212890625
,89.2287555,1.85546875
,89.2342228,1.875
,89.269412,1.89453125
,89.2735968,1.904296875
,89.2902633,1.9140625
,89.3256539,1.923828125
,89.3308932,1.9287109375
,89.3663816,1.93359375
,89.371962,1.923828125
,89.4095618,1.9189453125
,89.4126981,1.904296875
,89.4504432,1.89453125
,89.4512535,1.884765625
,89.4701912,1.884765625
,89.505809,1.8798828125
,89.5107268,1.875
,89.5452582,1.865234375
,89.5672276,1.85546875
,89.5724727,1.845703125
,89.6097368,1.8359375
,89.6126088,1.826171875
,89.629631,1.8115234375
,89.6664163,1.806640625
,89.6710411,1.796875
,89.7100926,1.7919921875
,89.7107935,1.7822265625
,89.7472946,1.77734375
,89.7522731,1.767578125
,89.7743487,1.7578125
,89.8099761,1.7431640625
,89.8124173,1.73828125
,89.8314558,1.73828125
,89.8814665,1.767578125
,89.8819194,1.8017578125
,89.8925482,1.845703125
,89.9288829,1.8798828125
,89.9350287,1.8994140625
,89.9516944,1.9189453125
,89.9914865,1.9287109375
,90.0217104,1.943359375
,90.0224059,1.9482421875
,90.0292679,1.9580078125
,90.0697666,1.962890625
,90.0704905,1.962890625
,90.1060919,1.953125
,90.1270801,1.943359375
,90.1318272,1.9287109375
,90.1679457,1.9189453125
,90.188142,1.9140625
,90.1911828,1.9091796875
,90.2382932,1.904296875
,90.2394476,1.8994140625
,90.2534833,1.89453125
,90.2890312,1.884765625
,90.2919679,1.8701171875
,90.3298192,1.85546875
,90.3350455,1.845703125
,90.3515775,1.8310546875
,90.3713927,1.826171875
,90.4058683,1.81640625
,90.4255936,1.806640625
,90.4317021,1.796875
,90.4690917,1.7822265625
,90.4721777,1.7724609375
,90.5082692,1.7626953125
,90.5136963,1.7529296875
,90.5504947,1.73828125
,90.555982,1.728515625
,90.5736932,1.71875
,90.5913667,1.71875
,90.6273604,1.73828125
,90.6484278,1.77734375
,90.6536952,1.81640625
,90.6908921,1.85546875
,90.6971837,1.884765625
,90.7158078,1.9091796875
,90.7313446,1.9189453125
,90.7671132,1.9384765625
,90.7727475,1.9482421875
,90.809605,1.9580078125
,90.8127058,1.962890625
,90.8624268,1.962890625
,90.8628726,1.9580078125
,90.8826295,1.953125
,90.8957071,1.943359375
,90.9105712,1.9287109375
,90.9555141,1.9287109375
,90.9561971,1.9189453125
,90.976705,1.9140625
,90.9940118,1.9091796875
,91.0312852,1.8994140625
,91.0354155,1.8896484375
,91.0704074,1.8798828125
,91.0709208,1.865234375
,91.1062822,1.85546875
,91.1263991,1.8310546875
,91.1321299,1.826171875
,91.1685053,1.8115234375
,91.1741026,1.8017578125
,91.2110525,1.796875
,91.2157896,1.7822265625
,91.2534671,1.7724609375
,91.2544087,1.7626953125
,91.2923342,1.7578125
,91.2931434,1.748046875
,91.3279897,1.7431640625
,91.3334605,1.728515625
,91.3545753,1.7236328125
,91.3918024,1.71875
,91.3948903,1.7333984375
,91.4307661,1.767578125
,91.4375216,1.8115234375
,91.4529899,1.845703125
,91.4880301,1.884765625
,91.493402,1.9091796875
,91.5148867,1.93359375
,91.5623294,1.9482421875
,91.562846,1.9580078125
,91.575517,1.9677734375
,91.6124939,1.9677734375
,91.6158569,1.97265625
,91.6323919,1.962890625
,91.6686436,1.9580078125
,91.6739524,1.953125
,91.7083541,1.943359375
,91.7298733,1.93359375
,91.7340019,1.9287109375
,91.7709181,1.923828125
,91.7760595,1.9189453125
,91.7962105,1.9140625
,91.8175651,1.89453125
,91.8574776,1.8798828125
,91.8581592,1.8701171875
,91.8751164,1.865234375
,91.8946581,1.8603515625
,91.9348555,1.85546875
,91.9355553,1.845703125
,91.9816341,1.8359375
,91.9820793,1.826171875
,92.0032473,1.81640625
,92.013026,1.806640625
,92.0478207,1.8017578125
,92.0685332,1.787109375
,92.0765036,1.77734375
,92.0968318,1.767578125
,92.1312016,1.7578125
,92.1371346,1.7724609375
,92.1843688,1.806640625
,92.1849404,1.8408203125
,92.1924176,1.8701171875
,92.2278448,1.8994140625
,92.263257,1.9140625
,92.2643703,1.923828125
,92.2761372,1.93359375
,92.2968289,1.9384765625
,92.332172,1.943359375
,92.3348708,1.9384765625
,92.3529575,1.9287109375
,92.3884237,1.9189453125
,92.4093712,1.9091796875
,92.4179372,1.904296875
,92.434446,1.89453125
,92.4707299,1.8896484375
,92.4917205,1.884765625
,92.4976038,1.875
,92.541505,1.865234375
,92.5422123,1.85546875
,92.5579485,1.845703125
,92.5733354,1.826171875
,92.6101558,1.8212890625
,92.6155254,1.8115234375
,92.6525642,1.8017578125
,92.6554648,1.7919921875
,92.6920968,1.7822265625
,92.6975877,1.767578125
,92.7354141,1.7578125
,92.7358721,1.7431640625
,92.7750431,1.73828125
,92.7757297,1.728515625
,92.8116687,1.7333984375
,92.8166283,1.7529296875
,92.8561175,1.787109375
,92.8568272,1.826171875
,92.9028626,1.8603515625
,92.9033913,1.884765625
,92.914132,1.8994140625
,92.9655216,1.9189453125
,92.9660147,1.9287109375
,92.9763177,1.93359375
,93.0143798,1.943359375
,93.0150583,1.9384765625
,93.0532866,1.93359375
,93.0588642,1.9287109375
,93.0760484,1.9140625
,93.0958726,1.904296875
,93.1322544,1.8994140625
,93.135282,1.8896484375
,93.1693876,1.884765625
,93.1900219,1.875
,93.1960987,1.8701171875
,93.2324857,1.85546875
,93.237307,1.8408203125
,93.2600869,1.826171875
,93.2958722,1.81640625
,93.2966463,1.8017578125
,93.3163297,1.796875
,93.3505416,1.7919921875
,93.3713213,1.7822265625
,93.377193,1.767578125
,93.4133368,1.7578125
,93.4191999,1.7431640625
,93.4654536,1.73828125
,93.4661745,1.7236328125
,93.4765312,1.7138671875
,93.4944698,1.7138671875
,93.5327244,1.7333984375
,93.5382995,1.7724609375
,93.5758223,1.8115234375
,93.5764868,1.8505859375
,93.6124655,1.8798828125
,93.6335834,1.8994140625
,93.6368906,1.9140625
,93.6725902,1.93359375
,93.6749509,1.943359375
,93.7093387,1.9580078125
,93.7301006,1.962890625
,93.737666,1.962890625
,93.7739959,1.9580078125
,93.778782,1.9482421875
,93.8155294,1.93359375
,93.8161035,1.9189453125
,93.840518,1.9189453125
,93.8581675,1.89453125
,93.8986642,1.89453125
,93.8991709,1.884765625
,93.9182956,1.8798828125
,93.9535006,1.865234375
,93.958393,1.85546875
,93.9938835,1.8359375
,94.0261687,1.8212890625
,94.0268478,1.806640625
,94.038311,1.796875
,94.0865454,1.7822265625
,94.0870213,1.7724609375
,94.0989438,1.7626953125
,94.1193581,1.7529296875
,94.1549504,1.73828125
,94.1593097,1.7236328125
,94.196358,1.7138671875
,94.1968266,1.69921875
,94.2319199,1.689453125
,94.2571567,1.6845703125
,94.2579258,1.69921875
,94.3057254,1.7333984375
,94.3068335,1.7724609375
,94.3209014,1.81640625
,94.3654106,1.8505859375
,94.3660086,1.8798828125
,94.3756122,1.904296875
,94.4129266,1.9287109375
,94.4181108,1.9384765625
,94.4537923,1.9482421875
,94.4599985,1.9580078125
,94.4801636,1.962890625
,94.5225901,1.9580078125
,94.5230848,1.9482421875
,94.5419208,1.9384765625
,94.5603452,1.9140625
,94.5771548,1.89453125
,94.6135565,1.89453125
,94.6192373,1.89453125
,94.6545384,1.8896484375
,94.6596055,1.8798828125
,94.6947388,1.865234375
,94.6992765,1.8505859375
,94.7344295,1.8359375
,94.7581225,1.8212890625
,94.7588318,1.806640625
,94.7793448,1.7919921875
,94.8159847,1.77734375
,94.8167884,1.767578125
,94.869283,1.7529296875
,94.8699332,1.7431640625
,94.8997583,1.728515625
,94.9002087,1.71875
,94.9328848,1.7041015625
,94.9628916,1.6943359375
,94.9633859,1.6845703125
,94.9795248,1.6943359375
,95.0263803,1.71875
,95.0270488,1.7578125
,95.047272,1.8017578125
,95.0615312,1.8310546875
,95.0980782,1.865234375
,95.0987673,1.8798828125
,95.134039,1.904296875
,95.1379016,1.9189453125
,95.1825434,1.93359375
,95.1832499,1.9384765625
,95.1985246,1.943359375
,95.2422496,1.943359375
,95.2427978,1.93359375
,95.2635801,1.923828125
,95.2834547,1.9140625
,95.2992601,1.904296875
,95.3336993,1.8994140625
,95.3382555,1.89453125
,95.3755335,1.89453125
,95.3967941,1.884765625
,95.400159,1.875
,95.4364791,1.8603515625
,95.4421128,1.845703125
,95.4758157,1.8310546875
,95.4971929,1.81640625
,95.497661,1.806640625
,95.5323053,1.796875
,95.5539242,1.7822265625
,95.5599482,1.767578125
,95.5973228,1.7529296875
,95.6012402,1.73828125
,95.623281,1.7236328125
,95.637191,1.7138671875
,95.66994,1.7041015625
,95.6915309,1.7138671875
,95.7011136,1.7333984375
,95.7196742,1.7724609375
,95.770579,1.8115234375
,95.7712755,1.845703125
,95.780443,1.865234375
,95.8318064,1.8798828125
,95.8324869,1.8896484375
,95.8409915,1.904296875
,95.8608222,1.904296875
,95.8805932,1.9091796875
,95.9156562,1.9091796875
,95.9198469,1.8994140625
,95.9592246,1.8896484375
,95.9599157,1.8798828125
,95.9958187,1.8701171875
,96.0172948,1.865234375
,96.0231917,1.8603515625
,96.0401135,1.85546875
,96.0790549,1.845703125
,96.0795206,1.8408203125
,96.1136458,1.8310546875
,96.1444544,1.8212890625
,96.1449251,1.8115234375
,96.1634666,1.796875
,96.1838021,1.787109375
,96.1995947,1.7724609375
,96.2373115,1.767578125
,96.2406174,1.7578125
,96.2794152,1.748046875
,96.2801186,1.73828125
,96.3175004,1.728515625
,96.3221704,1.7236328125
,96.3609303,1.7333984375
,96.3619638,1.767578125
,96.3802491,1.8017578125
,96.4154298,1.845703125
,96.4208326,1.8798828125
,96.4413626,1.904296875
,96.4612825,1.9189453125
,96.4961877,1.93359375
,96.5168077,1.943359375
,96.5229706,1.953125
,96.5401256,1.9580078125
,96.5755096,1.9580078125
,96.5783882,1.953125
,96.6169294,1.9384765625
,96.6198671,1.9287109375
,96.6555146,1.923828125
,96.6758049,1.9189453125
,96.6831022,1.9091796875
,96.7202408,1.904296875
,96.7225181,1.8896484375
,96.7577884,1.8798828125
,96.7860828,1.865234375
,96.7866924,1.85546875
,96.8004891,1.8408203125
,96.8487174,1.8310546875
,96.8494267,1.8212890625
,96.8629016,1.806640625
,96.9124312,1.7919921875
,96.9129693,1.7822265625
,96.9182867,1.767578125
,96.9546688,1.7626953125
,96.9752471,1.7578125
,96.9834284,1.7578125
,97.0023983,1.77734375
,97.0391752,1.8115234375
,97.0419258,1.8505859375
,97.0830342,1.8798828125
,97.0837751,1.9091796875
,97.1032265,1.93359375
,97.1467749,1.9580078125
,97.1473804,1.97265625
,97.1607978,1.9921875
,97.2088133,2.001953125
,97.2094483,2.0068359375
,97.2388276,2.0068359375
,97.2441939,1.9970703125
,97.265085,1.982421875
,97.2858279,1.9580078125
,97.3213805,1.943359375
,97.3218982,1.9384765625
,97.3585945,1.9384765625
,97.3617697,1.9287109375
,97.399725,1.9189453125
,97.4037022,1.9091796875
,97.4402008,1.8994140625
,97.4453585,1.884765625
,97.4878676,1.8701171875
,97.4885672,1.85546875
,97.5028179,1.845703125
,97.5509669,1.8310546875
,97.5516653,1.8212890625
,97.5626331,1.806640625
,97.5984716,1.787109375
,97.6042904,1.77734375
,97.638302,1.7578125
,97.6589145,1.748046875
,97.6594752,1.7431640625
,97.7041425,1.767578125
,97.7046036,1.8017578125
,97.7232728,1.8408203125
,97.7656175,1.875
,97.7660705,1.9091796875
,97.7864713,1.9287109375
,97.8052069,1.9580078125
,97.8207471,1.97265625
,97.859809,1.9921875
,97.8626077,2.0068359375
,97.908331,2.0166015625
,97.9088666,2.0166015625
,97.9241142,2.0166015625
,97.9600657,2.01171875
,97.9658302,1.9970703125
,98.0009305,1.982421875
,98.0059788,1.97265625
,98.0410299,1.962890625
,98.041483,1.953125
,98.0782721,1.943359375
,98.0832794,1.93359375
,98.1169383,1.9189453125
,98.1383868,1.904296875
,98.1459314,1.884765625
,98.1645735,1.865234375
,98.1986586,1.8505859375
,98.2221833,1.8359375
,98.2230099,1.8212890625
,98.2591531,1.8115234375
,98.2621499,1.796875
,98.3145251,1.7822265625
,98.3149848,1.7626953125
,98.3455343,1.7529296875
,98.3460002,1.73828125
,98.3793981,1.728515625
,98.3992035,1.7333984375
,98.4017229,1.767578125
,98.4371323,1.8017578125
,98.4581539,1.8408203125
,98.4643766,1.8701171875
,98.5002048,1.8994140625
,98.5054316,1.9140625
,98.5433036,1.9384765625
,98.5442232,1.9482421875
,98.594097,1.9677734375
,98.5947851,1.9775390625
,98.6030749,1.982421875
,98.6556376,1.9775390625
,98.6562567,1.9677734375
,98.6667876,1.953125
,98.6867239,1.9384765625
,98.7224432,1.9287109375
,98.7253669,1.9189453125
,98.746651,1.904296875
,98.7641321,1.89453125
,98.8105135,1.884765625
,98.8112286,1.8701171875
,98.824207,1.8603515625
,98.8599404,1.8408203125
