fs,t,y
51.532562964460816,0.1439499999999998,2.470703125
,0.19174490000000022,2.4755859375
,0.1921191000000002,2.48046875
,0.20529999999999982,2.509765625
,0.2226967000000002,2.5390625
,0.25987530000000003,2.6025390625
,0.26017709999999994,2.646484375
,0.29494109999999996,2.6904296875
,0.3161586999999999,2.71484375
,0.3238352,2.75390625
,0.35897140000000016,2.7685546875
,0.37852569999999996,2.783203125
,0.3856807999999998,2.79296875
,0.4028041,2.7783203125
,0.4539884999999999,2.7734375
,0.4542459000000001,2.7587890625
,0.4648118000000001,2.7587890625
,0.4837060000000002,2.7392578125
,0.5308739,2.734375
,0.5310795000000001,2.7197265625
,0.5456248000000001,2.71484375
,0.5654724,2.7001953125
,0.5850051000000001,2.6611328125
,0.6203470000000002,2.6123046875
,0.6208406000000002,2.6318359375
,0.6570789000000001,2.6318359375
,0.6836012,2.6318359375
,0.6838085999999999,2.6220703125
,0.7307182000000001,2.6171875
,0.7311209999999999,2.607421875
,0.746108,2.5830078125
,0.7924416000000001,2.568359375
,0.79285,2.548828125
,0.8046017000000001,2.5439453125
,0.8239396999999999,2.5341796875
,0.8581056,2.5439453125
,0.8636794999999999,2.5244140625
,0.8980695000000001,2.509765625
,0.9183246999999999,2.4951171875
,0.9270679,2.48046875
,0.9422730000000001,2.4658203125
,0.9785735999999998,2.4658203125
,0.9835864000000001,2.4560546875
,1.0190852000000001,2.4609375
,1.0382403,2.490234375
,1.044861,2.509765625
,1.0850288,2.548828125
,1.0852491,2.5927734375
,1.13001,2.646484375
,1.1305496000000002,2.67578125
,1.1524071999999999,2.71484375
,1.1639685000000002,2.7294921875
,1.206591,2.7490234375
,1.206969,2.744140625
,1.2237743,2.744140625
,1.2669622,2.7294921875
,1.2672574,2.7197265625
,1.2839664000000002,2.7001953125
,1.3300481,2.6953125
,1.3302656000000002,2.67578125
,1.344979,2.6953125
,1.3906988999999998,2.7001953125
,1.3910730999999998,2.6953125
,1.4054872999999999,2.6904296875
,1.4403807999999998,2.67578125
,1.4461344999999999,2.666015625
,1.4672310999999998,2.646484375
,1.5144544999999998,2.5830078125
,1.5146549999999999,2.568359375
,1.5260881999999998,2.568359375
,1.5442497,2.5634765625
,1.5914492999999998,2.5537109375
,1.5917325999999998,2.5390625
,1.6070612,2.5341796875
,1.6549489,2.5146484375
,1.6551650000000002,2.5
,1.6673528000000002,2.4951171875
,1.6838464000000002,2.4755859375
,1.7310279999999998,2.4755859375
,1.7312973,2.4609375
,1.7447078,2.4560546875
,1.7916278,2.4365234375
,1.7919806999999999,2.4267578125
,1.8075306000000002,2.4072265625
,1.8557233000000002,2.4072265625
,1.8560441,2.3974609375
,1.8635999,2.44140625
,1.8986418999999999,2.4658203125
,1.9325465999999998,2.529296875
,1.9328713999999998,2.568359375
,1.9467237000000002,2.6123046875
,1.9945008,2.6318359375
,1.994805,2.666015625
,2.0093907,2.6806640625
,2.0236792,2.6806640625
,2.0709223999999997,2.6953125
,2.0711519000000003,2.6904296875
,2.0863037999999996,2.685546875
,2.1324337,2.666015625
,2.1327542,2.6611328125
,2.147685,2.646484375
,2.1829242000000004,2.6416015625
,2.1831258,2.6318359375
,2.2148779999999997,2.63671875
,2.2386752000000003,2.6318359375
,2.2439928,2.63671875
,2.2849899000000002,2.6220703125
,2.2852505,2.6123046875
,2.3062619,2.6025390625
,2.3476201000000003,2.578125
,2.3478446,2.5634765625
,2.3778965000000003,2.548828125
,2.3864026000000003,2.548828125
,2.4244963999999998,2.529296875
,2.4247778,2.5341796875
,2.4595247999999996,2.5244140625
,2.4665203,2.51953125
,2.4862007000000004,2.5048828125
,2.5230958,2.5
,2.5255802999999997,2.48046875
,2.5624117,2.470703125
,2.5626163999999996,2.4560546875
,2.5853991,2.451171875
,2.6266113000000004,2.44140625
,2.6268203999999997,2.451171875
,2.6549918999999997,2.451171875
,2.6674688,2.4462890625
,2.7168349999999997,2.4658203125
,2.7170474000000002,2.4755859375
,2.7298048,2.509765625
,2.7464890000000004,2.5341796875
,2.7647999,2.578125
,2.8009974,2.59765625
,2.8060329,2.6220703125
,2.8572248,2.626953125
,2.8574646,2.63671875
,2.8669613,2.626953125
,2.9051248999999997,2.6318359375
,2.9056089,2.6171875
,2.9483432,2.6220703125
,2.9486036,2.626953125
,2.9827841,2.6171875
,2.9860784999999996,2.6123046875
,3.0216182,2.607421875
,3.0412472,2.6123046875
,3.0474990999999996,2.6025390625
,3.0888036999999997,2.59765625
,3.0890458,2.5830078125
,3.1092357,2.578125
,3.1278425,2.5048828125
,3.1469986,2.529296875
,3.1668646000000003,2.5244140625
,3.2136603,2.5244140625
,3.214079,2.509765625
,3.2282400000000004,2.5
,3.2653875,2.4853515625
,3.2683251999999996,2.4853515625
,3.3065325000000003,2.4755859375
,3.3069455999999997,2.4609375
,3.3424243000000002,2.4609375
,3.3469157000000003,2.4560546875
,3.3808616000000002,2.451171875
,3.4029578999999996,2.44140625
,3.4078386,2.4462890625
,3.4298393999999996,2.44140625
,3.474722,2.44140625
,3.4750037999999996,2.4462890625
,3.4875787000000003,2.4755859375
,3.5239651,2.509765625
,3.5286179000000004,2.568359375
,3.5491092999999996,2.6025390625
,3.5857555000000003,2.646484375
,3.5861542,2.6806640625
,3.6292578000000004,2.6953125
,3.6296508999999997,2.71484375
,3.6493116,2.71484375
,3.6823223,2.7294921875
,3.6867813,2.7197265625
,3.7260559000000004,2.7099609375
,3.7264562000000003,2.6953125
,3.7618009,2.685546875
,3.7833444,2.666015625
,3.7896197999999996,2.6708984375
,3.8048762,2.65625
,3.8493244000000004,2.666015625
,3.8496134,2.6611328125
,3.8666174,2.6611328125
,3.9011426,2.63671875
,3.9206448,2.646484375
,3.9278975000000003,2.63671875
,3.9610198,2.6171875
,3.9809823,2.607421875
,3.9907233,2.5830078125
,4.0262181,2.51953125
,4.0266182,2.509765625
,4.0623291,2.51953125
,4.0827142,2.509765625
,4.0876054,2.5048828125
,4.1303381,2.4951171875
,4.1306899,2.490234375
,4.1592466,2.4755859375
,4.1681283,2.48046875
,4.2067011,2.4658203125
,4.2070321,2.470703125
,4.2418943,2.4755859375
,4.2686556,2.4658203125
,4.2688625,2.470703125
,4.289616,2.470703125
,4.3243564,2.5048828125
,4.3302903,2.5439453125
,4.3755773,2.5927734375
,4.3759949,2.626953125
,4.3873126,2.67578125
,4.4379754,2.7099609375
,4.4384346,2.7587890625
,4.450243,2.7783203125
,4.4704569,2.79296875
,4.4892512,2.7880859375
,4.5234506,2.783203125
,4.5450568,2.7587890625
,4.5453679,2.7685546875
,4.5818833,2.763671875
,4.6066374,2.75390625
,4.6068463,2.7587890625
,4.6543391,2.7490234375
,4.6546765,2.75390625
,4.6736605,2.744140625
,4.6905784,2.7392578125
,4.7058463,2.7294921875
,4.7401602,2.7294921875
,4.7616978,2.71484375
,4.7666626,2.705078125
,4.8000517,2.685546875
,4.8198358,2.6708984375
,4.8293641,2.6416015625
,4.8703757,2.6220703125
,4.8708832,2.6025390625
,4.8898439,2.5732421875
,4.9232377,2.5537109375
,4.9433518,2.529296875
,4.9488205,2.5390625
,4.9693183,2.5244140625
,4.9871291,2.51953125
,5.020001,2.4951171875
,5.0402344,2.4853515625
,5.0496087,2.4658203125
,5.0851785,2.4560546875
,5.0862037,2.4365234375
,5.1076441,2.44140625
,5.12895,2.44140625
,5.1638906,2.4658203125
,5.1686123,2.4853515625
,5.2117016,2.5390625
,5.2119433,2.59765625
,5.2320176,2.63671875
,5.2679875,2.6708984375
,5.268237,2.685546875
,5.3065767,2.7197265625
,5.3068303,2.7294921875
,5.35364,2.744140625
,5.3540254,2.734375
,5.3835838,2.724609375
,5.391713,2.7001953125
,5.4271424,2.685546875
,5.4275543,2.666015625
,5.4765149,2.6904296875
,5.4767104,2.685546875
,5.4900018,2.6904296875
,5.5103056,2.6904296875
,5.5306012,2.6806640625
,5.5514432,2.6708984375
,5.5991469,2.646484375
,5.5994088,2.6318359375
,5.6063481,2.6123046875
,5.6402487,2.6025390625
,5.661838,2.5830078125
,5.6702407,2.5732421875
,5.7038901,2.5537109375
,5.7086349,2.5439453125
,5.7431384,2.51953125
,5.763953,2.5048828125
,5.771405,2.4853515625
,5.8075747,2.470703125
,5.8079891,2.4462890625
,5.8461664,2.451171875
,5.8465838,2.4462890625
,5.8816627,2.4365234375
,5.9018892,2.4267578125
,5.9089228,2.4072265625
,5.9442906,2.3974609375
,5.9635088,2.3828125
,5.970513,2.3779296875
,5.9867712,2.3779296875
,6.034298700000001,2.3974609375
,6.0345748,2.431640625
,6.0655912,2.4755859375
,6.0701509,2.5146484375
,6.1049445,2.5634765625
,6.113078099999999,2.5927734375
,6.158642499999999,2.626953125
,6.1589001,2.6513671875
,6.1678633000000005,2.6513671875
,6.204300999999999,2.6611328125
,6.2091788999999995,2.65625
,6.2521933,2.6611328125
,6.2525847,2.646484375
,6.2825103,2.63671875
,6.291651999999999,2.6171875
,6.328701499999999,2.6171875
,6.328987100000001,2.59765625
,6.3749538,2.6123046875
,6.3752113999999995,2.607421875
,6.3904172,2.607421875
,6.434991999999999,2.5927734375
,6.4352301999999995,2.587890625
,6.451170100000001,2.568359375
,6.485733099999999,2.578125
,6.5054728,2.568359375
,6.5145798,2.55859375
,6.532776,2.5
,6.5506347,2.451171875
,6.5852869,2.470703125
,6.5897618,2.48046875
,6.626101800000001,2.48046875
,6.6309077,2.48046875
,6.6657250999999995,2.4755859375
,6.6873062,2.4609375
,6.6924537,2.451171875
,6.7089111,2.4365234375
,6.7420762,2.4462890625
,6.762225900000001,2.4365234375
,6.769252099999999,2.431640625
,6.801989600000001,2.4462890625
,6.824142500000001,2.4462890625
,6.832494199999999,2.4755859375
,6.8683988,2.5048828125
,6.874015699999999,2.5439453125
,6.8894561,2.578125
,6.931089500000001,2.6220703125
,6.9314362,2.646484375
,6.9648959999999995,2.6708984375
,6.972929499999999,2.666015625
,7.008341700000001,2.6806640625
,7.0133019999999995,2.6708984375
,7.0491443,2.6708984375
,7.049560700000001,2.6513671875
,7.083352700000001,2.646484375
,7.1042565,2.63671875
,7.111781199999999,2.6416015625
,7.1327788000000005,2.6513671875
,7.1511727,2.63671875
,7.1954058,2.63671875
,7.195683300000001,2.626953125
,7.2137987,2.6171875
,7.229599,2.6025390625
,7.264162000000001,2.607421875
,7.2844172,2.5927734375
,7.2889906,2.587890625
,7.3230489,2.5732421875
,7.3433875,2.55859375
,7.3520482000000005,2.5390625
,7.3876832,2.5244140625
,7.407272900000001,2.5048828125
,7.413230799999999,2.4462890625
,7.4587906,2.451171875
,7.4590289,2.4365234375
,7.4787053,2.4462890625
,7.4902438,2.4462890625
,7.523211,2.4560546875
,7.5434926,2.44140625
,7.552144800000001,2.44140625
,7.585344900000001,2.431640625
,7.6057846,2.431640625
,7.6083806,2.44140625
,7.645141799999999,2.4853515625
,7.6649519999999995,2.51953125
,7.6712992,2.5732421875
,7.7054095,2.6123046875
,7.726073700000001,2.65625
,7.7331872,2.6806640625
,7.770123,2.71484375
,7.788953299999999,2.7294921875
,7.789202100000001,2.724609375
,7.824151799999999,2.734375
,7.845028900000001,2.724609375
,7.851552399999999,2.71484375
,7.888427999999999,2.6953125
,7.8930892,2.6904296875
,7.9277607,2.6806640625
,7.932938,2.6708984375
,7.949362000000001,2.65625
,7.9873957,2.6611328125
,8.0197376,2.65625
,8.0201258,2.666015625
,8.0315818,2.65625
,8.0645072,2.646484375
,8.0845417,2.63671875
,8.0914328,2.6171875
,8.1265097,2.59765625
,8.1484514,2.5732421875
,8.1486492,2.568359375
,8.1825498,2.5439453125
,8.2026947,2.5390625
,8.2135866,2.5146484375
,8.2338809,2.5048828125
,8.2692131,2.4853515625
,8.2720313,2.4755859375
,8.3080721,2.4609375
,8.3433488,2.451171875
,8.343605,2.4365234375
,8.3516621,2.4365234375
,8.3899488,2.421875
,8.4203663,2.4267578125
,8.4206207,2.4267578125
,8.4358936,2.421875
,8.4556321,2.44140625
,8.4969914,2.4658203125
,8.4972308,2.509765625
,8.5111791,2.5537109375
,8.544895,2.6171875
,8.5682176,2.666015625
,8.5709553,2.7099609375
,8.6057551,2.7294921875
,8.6345561,2.7490234375
,8.6348542,2.7490234375
,8.6726077,2.7490234375
,8.673023,2.734375
,8.6917901,2.7294921875
,8.7304451,2.724609375
,8.7306927,2.7001953125
,8.7758946,2.6953125
,8.7762089,2.6806640625
,8.8070489,2.685546875
,8.8161596,2.67578125
,8.8337017,2.6708984375
,8.8516907,2.6513671875
,8.8864207,2.6513671875
,8.890638,2.63671875
,8.9291407,2.6318359375
,8.9348611,2.6123046875
,8.9531865,2.59765625
,8.9889713,2.5732421875
,8.994229,2.55859375
,9.0109341,2.5341796875
,9.0316013,2.548828125
,9.0665947,2.5439453125
,9.0856994,2.4755859375
,9.0925902,2.48046875
,9.1332917,2.48046875
,9.1338456,2.4755859375
,9.1535017,2.4609375
,9.1869204,2.451171875
,9.2072081,2.44140625
,9.2175293,2.431640625
,9.230547,2.412109375
,9.2652218,2.4169921875
,9.2881091,2.4169921875
,9.2928688,2.4462890625
,9.3294281,2.4658203125
,9.334975,2.509765625
,9.3560256,2.55859375
,9.3914351,2.5927734375
,9.3968687,2.626953125
,9.4106552,2.646484375
,9.4443751,2.6806640625
,9.4654176,2.6904296875
,9.4747279,2.7001953125
,9.4958594,2.685546875
,9.514193,2.6806640625
,9.5512946,2.6611328125
,9.5538066,2.6611328125
,9.5730102,2.6416015625
,9.6131997,2.6513671875
,9.6134795,2.6513671875
,9.659829,2.6513671875
,9.6602357,2.63671875
,9.6739461,2.6416015625
,9.7084913,2.6416015625
,9.7306184,2.6220703125
,9.7351837,2.607421875
,9.7530052,2.587890625
,9.7872914,2.587890625
,9.7941086,2.5732421875
,9.8317182,2.568359375
,9.831972,2.5537109375
,9.8684717,2.5390625
,9.8888155,2.51953125
,9.8958984,2.5048828125
,9.9154334,2.48046875
,9.953236,2.4267578125
,9.9536279,2.4169921875
,9.9792856,2.4267578125
,9.9938823,2.4365234375
,10.0315833,2.4267578125
,10.0360815,2.421875
,10.0871952,2.4072265625
,10.0874321,2.4169921875
,10.0974326,2.421875
,10.1334892,2.4365234375
,10.1342499,2.4560546875
,10.1537051,2.5048828125
,10.185827,2.5439453125
,10.2072055,2.587890625
,10.2134099,2.6171875
,10.258218,2.646484375
,10.2584791,2.6513671875
,10.2872213,2.65625
,10.291295,2.6416015625
,10.3270803,2.646484375
,10.3503534,2.6416015625
,10.3553608,2.6171875
,10.374984,2.6123046875
,10.4092549,2.59765625
,10.4318809,2.587890625
,10.4348435,2.578125
,10.4693984,2.578125
,10.4909558,2.568359375
,10.4926341,2.578125
,10.5139648,2.568359375
,10.5361479,2.5634765625
,10.5715393,2.5537109375
,10.5765249,2.5634765625
,10.6104405,2.5537109375
,10.6176192,2.548828125
,10.65317,2.5439453125
,10.6535604,2.51953125
,10.6881851,2.529296875
,10.7092908,2.51953125
,10.7146776,2.51953125
,10.7506254,2.5
,10.7547856,2.4951171875
,10.7904377,2.4755859375
,10.8108703,2.470703125
,10.8171821,2.451171875
,10.8522385,2.4462890625
,10.8524831,2.431640625
,10.8727098,2.44140625
,10.9091044,2.4462890625
,10.9284751,2.4658203125
,10.9360542,2.4853515625
,10.9855739,2.5341796875
,10.985812,2.5830078125
,10.9981562,2.6171875
,11.0492336,2.646484375
,11.049484,2.666015625
,11.0560956,2.6904296875
,11.0911329,2.7099609375
,11.0953876,2.724609375
,11.1308109,2.724609375
,11.1510964,2.7197265625
,11.1579579,2.705078125
,11.2026758,2.7001953125
,11.2031064,2.6806640625
,11.2145294,2.685546875
,11.2358861,2.685546875
,11.2540747,2.685546875
,11.2894272,2.685546875
,11.3092546,2.6708984375
,11.3178723,2.6611328125
,11.3538626,2.646484375
,11.3601112,2.6416015625
,11.3757677,2.6171875
,11.3925918,2.6220703125
,11.4354338,2.6025390625
,11.4357,2.587890625
,11.4822977,2.5634765625
,11.4826358,2.55859375
,11.4963098,2.529296875
,11.5310921,2.51953125
,11.5529414,2.4951171875
,11.5533524,2.4951171875
,11.5885749,2.4853515625
,11.6091577,2.4951171875
,11.6169669,2.490234375
,11.6361225,2.48046875
,11.6824824,2.470703125
,11.6827239,2.451171875
,11.6987003,2.44140625
,11.735622,2.4267578125
,11.7404105,2.4267578125
,11.7553766,2.4267578125
,11.7763279,2.470703125
,11.8141144,2.509765625
,11.8144501,2.568359375
,11.8550107,2.6123046875
,11.8554308,2.6708984375
,11.9011277,2.7001953125
,11.9013678,2.7392578125
,11.9207926,2.75390625
,11.9362517,2.75390625
,11.9710462,2.7685546875
,11.9757825,2.7685546875
,12.0144404,2.7685546875
,12.0174548,2.75390625
,12.0513647,2.744140625
,12.073246,2.7294921875
,12.0793927,2.724609375
,12.0958906,2.7197265625
,12.1361903,2.7294921875
,12.1365821,2.7294921875
,12.1816789,2.734375
,12.1822517,2.724609375
,12.1966142,2.71484375
,12.2302042,2.6904296875
,12.2493968,2.67578125
,12.2605072,2.65625
,12.2763485,2.626953125
,12.3217533,2.6171875
,12.3220078,2.59765625
,12.3376037,2.5830078125
,12.3848763,2.5634765625
,12.3852865,2.5537109375
,12.4142121,2.5341796875
,12.4183788,2.5244140625
,12.4419207,2.5
,12.4608322,2.44140625
,12.4769199,2.392578125
,12.4945094,2.421875
,12.5289613,2.421875
,12.549339,2.4267578125
,12.5560106,2.421875
,12.5944881,2.4169921875
,12.5974244,2.421875
,12.6486117,2.4462890625
,12.6489695,2.5
,12.6800251,2.548828125
,12.6802702,2.626953125
,12.6970352,2.6806640625
,12.71891,2.734375
,12.7552489,2.7587890625
,12.7588056,2.7880859375
,12.7959439,2.802734375
,12.7988518,2.8125
,12.8145467,2.802734375
,12.8483652,2.8076171875
,12.8687186,2.79296875
,12.8758232,2.7978515625
,12.9258537,2.7880859375
,12.9260929,2.7685546875
,12.9483936,2.75390625
,12.9605617,2.744140625
,13.0048025,2.734375
,13.0052272,2.7197265625
,13.017106,2.71484375
,13.0669191,2.7001953125
,13.0673078,2.685546875
,13.0960558,2.666015625
,13.100166,2.646484375
,13.1190343,2.6171875
,13.1576858,2.607421875
,13.1579704,2.5830078125
,13.1781227,2.5732421875
,13.2116686,2.5732421875
,13.2174504,2.548828125
,13.2549096,2.5390625
,13.2576506,2.5146484375
,13.2917682,2.5048828125
,13.3130508,2.4853515625
,13.3183721,2.4658203125
,13.3538957,2.4462890625
,13.3748623,2.4365234375
,13.3772169,2.412109375
,13.4126609,2.421875
,13.4178722,2.40234375
,13.4527676,2.412109375
,13.4576659,2.4169921875
,13.4942856,2.451171875
,13.5161342,2.4755859375
,13.52057,2.529296875
,13.5620009,2.5732421875
,13.5624085,2.6025390625
,13.578421,2.646484375
,13.5975768,2.6708984375
,13.6378634,2.685546875
,13.6381013,2.685546875
,13.658409,2.6953125
,13.6909654,2.6904296875
,13.7117255,2.6806640625
,13.7168531,2.666015625
,13.753974,2.6611328125
,13.7863267,2.6611328125
,13.7867213,2.666015625
,13.7980663,2.6611328125
,13.8333705,2.65625
,13.8406257,2.6611328125
,13.8775925,2.646484375
,13.8795425,2.6416015625
,13.8971131,2.6220703125
,13.9320949,2.6171875
,13.9523681,2.59765625
,13.9588846,2.5830078125
,13.993099,2.568359375
,14.012812799999999,2.548828125
,14.0199426,2.5244140625
,14.055309399999999,2.509765625
,14.0797779,2.4853515625
,14.0800899,2.4853515625
,14.113301400000001,2.4755859375
,14.118537199999999,2.4658203125
,14.1554368,2.4462890625
,14.1607506,2.451171875
,14.204068500000002,2.451171875
,14.2043091,2.431640625
,14.2225958,2.421875
,14.241733499999999,2.412109375
,14.283032200000001,2.421875
,14.2832957,2.431640625
,14.2999385,2.470703125
,14.3352213,2.5146484375
,14.34045,2.5634765625
,14.3745711,2.607421875
,14.3951241,2.6513671875
,14.4001418,2.666015625
,14.4352747,2.6904296875
,14.455789800000002,2.6953125
,14.456191100000002,2.7099609375
,14.5011774,2.7197265625
,14.501549700000002,2.705078125
,14.5476515,2.6904296875
,14.548053800000002,2.67578125
,14.560732999999999,2.6708984375
,14.5957264,2.6611328125
,14.6148843,2.6611328125
,14.617344200000002,2.646484375
,14.6393892,2.65625
,14.675020199999999,2.6513671875
,14.679590099999999,2.666015625
,14.712842899999998,2.65625
,14.733825499999998,2.646484375
,14.7413685,2.626953125
,14.778218299999999,2.607421875
,14.778456899999998,2.587890625
,14.798804100000002,2.5830078125
,14.832687700000001,2.568359375
,14.8375494,2.548828125
,14.8710998,2.5390625
,14.8933578,2.5244140625
,14.899759,2.509765625
,14.936043000000002,2.4853515625
,14.9659819,2.4755859375
,14.966187600000001,2.4560546875
,14.983560700000002,2.4072265625
,15.000963899999999,2.3583984375
,15.034785200000002,2.3828125
,15.039606200000001,2.3828125
,15.074919900000001,2.4072265625
,15.0946542,2.4267578125
,15.1002111,2.4560546875
,15.135544,2.5146484375
,15.1561655,2.55859375
,15.160726100000002,2.607421875
,15.196873,2.646484375
,15.198842899999999,2.705078125
,15.231276300000001,2.734375
,15.2513641,2.763671875
,15.260587000000001,2.7734375
,15.2967726,2.7783203125
,15.301741400000001,2.763671875
,15.3518634,2.75390625
,15.352233600000002,2.7294921875
,15.361933700000002,2.7294921875
,15.380553599999999,2.7197265625
,15.4147875,2.71484375
,15.419304799999999,2.705078125
,15.4606776,2.7099609375
,15.460875600000001,2.705078125
,15.482250100000002,2.6904296875
,15.524211900000001,2.67578125
,15.524413800000001,2.65625
,15.539755799999998,2.6416015625
,15.5848437,2.626953125
,15.5850465,2.6123046875
,15.604953900000002,2.587890625
,15.6231482,2.568359375
,15.641956100000002,2.5439453125
,15.6792899,2.5244140625
,15.679623200000002,2.5048828125
,15.726130399999999,2.509765625
,15.7265345,2.5
,15.7418366,2.490234375
,15.7787239,2.490234375
,15.78095,2.470703125
,15.817812,2.4560546875
,15.8206424,2.4365234375
,15.8563494,2.4267578125
,15.878494700000001,2.412109375
,15.883510900000001,2.40234375
,15.8986622,2.3876953125
,15.9332919,2.40234375
,15.956763500000001,2.4169921875
,15.9635152,2.4658203125
,15.982532899999999,2.5
,16.0189003,2.5537109375
,16.0235374,2.5927734375
,16.0653663,2.63671875
,16.0657137,2.65625
,16.0818247,2.6953125
,16.1182592,2.71484375
,16.1227247,2.724609375
,16.1414208,2.724609375
,16.1769562,2.7197265625
,16.1814302,2.705078125
,16.2220389,2.6904296875
,16.252512,2.6904296875
,16.2532501,2.6806640625
,16.2581978,2.685546875
,16.2990718,2.685546875
,16.3294121,2.685546875
,16.3296548,2.67578125
,16.3428345,2.6708984375
,16.3631049,2.6513671875
,16.4055635,2.63671875
,16.4058076,2.6171875
,16.4275826,2.5927734375
,16.4433127,2.5830078125
,16.4797558,2.568359375
,16.4801565,2.55859375
,16.5150228,2.5390625
,16.5452606,2.5244140625
,16.5455153,2.5048828125
,16.5916936,2.4951171875
,16.5920944,2.4755859375
,16.6007623,2.4755859375
,16.6375059,2.4609375
,16.640581,2.4560546875
,16.6797935,2.4365234375
,16.6827201,2.4267578125
,16.7167433,2.40234375
,16.7373889,2.412109375
,16.7459416,2.421875
,16.7641868,2.421875
,16.8071716,2.4462890625
,16.8074211,2.4853515625
,16.8235251,2.548828125
,16.8429916,2.607421875
,16.8783494,2.646484375
,16.8809796,2.65625
,16.9169229,2.67578125
,16.9453719,2.67578125
,16.9456118,2.6806640625
,16.9590701,2.67578125
,16.9939759,2.685546875
,17.0139444,2.6708984375
,17.0212658,2.6611328125
,17.0568687,2.6611328125
,17.0849191,2.646484375
,17.0853361,2.6416015625
,17.1198151,2.6318359375
,17.1222667,2.626953125
,17.1570367,2.6123046875
,17.1616339,2.6123046875
,17.1965986,2.6025390625
,17.2175723,2.5927734375
,17.2251004,2.5732421875
,17.2437848,2.568359375
,17.2877078,2.548828125
,17.2886164,2.5341796875
,17.3002084,2.5146484375
,17.3496994,2.5048828125
,17.3500414,2.490234375
,17.3805463,2.4853515625
,17.3808092,2.4755859375
,17.4161255,2.451171875
,17.4371332,2.44140625
,17.4441991,2.4267578125
,17.4651184,2.421875
,17.4808914,2.4072265625
,17.5175789,2.412109375
,17.5226929,2.3388671875
,17.5644636,2.3583984375
,17.5648635,2.36328125
,17.5988368,2.3828125
,17.6034048,2.3974609375
,17.6424065,2.44140625
,17.6647519,2.470703125
,17.6651506,2.509765625
,17.700766,2.55859375
,17.7205705,2.5830078125
,17.7208977,2.6123046875
,17.7582578,2.6318359375
,17.7829385,2.65625
,17.7831866,2.646484375
,17.8304321,2.6416015625
,17.8306703,2.6318359375
,17.8507273,2.6220703125
,17.8625519,2.6123046875
,17.8973358,2.6171875
,17.9023206,2.607421875
,17.9526469,2.6123046875
,17.9530451,2.6171875
,17.9639613,2.6171875
,18.0004331,2.6025390625
,18.0029951,2.6025390625
,18.0381302,2.5927734375
,18.0589056,2.5732421875
,18.0639201,2.5732421875
,18.1105671,2.5537109375
,18.1109002,2.548828125
,18.1236664,2.529296875
,18.1578401,2.51953125
,18.1782219,2.5
,18.1846052,2.490234375
,18.2172286,2.4755859375
,18.2224001,2.4755859375
,18.2607171,2.4658203125
,18.2611143,2.4755859375
,18.2957702,2.4609375
,18.3170283,2.4560546875
,18.3241954,2.451171875
,18.3724571,2.44140625
,18.3726964,2.44140625
,18.3866338,2.431640625
,18.4368154,2.412109375
,18.4372237,2.4365234375
,18.4431768,2.4951171875
,18.477929,2.5439453125
,18.4836958,2.59765625
,18.5287765,2.6318359375
,18.5291721,2.6708984375
,18.5454531,2.6904296875
,18.580343,2.7099609375
,18.6015671,2.7099609375
,18.6019676,2.7197265625
,18.636865,2.7099609375
,18.6570302,2.7099609375
,18.6633139,2.7001953125
,18.6858043,2.685546875
,18.7221111,2.67578125
,18.7271801,2.6708984375
,18.7611645,2.6708984375
,18.761414,2.6611328125
,18.7850718,2.6806640625
,18.8043099,2.67578125
,18.8549976,2.6806640625
,18.8553998,2.6708984375
,18.8646743,2.6611328125
,18.9161153,2.6416015625
,18.9163696,2.6220703125
,18.9223861,2.5927734375
,18.9433222,2.587890625
,18.979923,2.5830078125
,18.9840199,2.5634765625
,19.0172694,2.548828125
,19.0373653,2.529296875
,19.0465445,2.5244140625
,19.0854353,2.5048828125
,19.0856756,2.5
,19.1056925,2.4755859375
,19.124871,2.48046875
,19.142516,2.4658203125
,19.1742326,2.4658203125
,19.1958785,2.451171875
,19.204971,2.4462890625
,19.2401695,2.44140625
,19.2472691,2.451171875
,19.2673307,2.470703125
,19.2881902,2.5244140625
,19.3094647,2.5830078125
,19.3243012,2.6220703125
,19.3663317,2.6806640625
,19.3667254,2.724609375
,19.4134189,2.7587890625
,19.4138224,2.7734375
,19.4272796,2.79296875
,19.4758451,2.7880859375
,19.4761032,2.7880859375
,19.484268,2.7734375
,19.5045357,2.7685546875
,19.5402495,2.7587890625
,19.5688813,2.7587890625
,19.5691988,2.7490234375
,19.5894746,2.744140625
,19.6090401,2.744140625
,19.6284657,2.7294921875
,19.6623575,2.7294921875
,19.6625974,2.705078125
,19.6982149,2.705078125
,19.7242169,2.6806640625
,19.7245227,2.666015625
,19.7702047,2.6416015625
,19.7706155,2.626953125
,19.7863376,2.6025390625
,19.8237358,2.587890625
,19.82398,2.568359375
,19.8586408,2.5634765625
,19.8630896,2.5537109375
,19.910015,2.5439453125
,19.9102523,2.51953125
,19.9400358,2.5146484375
,19.9471642,2.5
,19.9684318,2.470703125
,20.0161546,2.4560546875
,20.0165341,2.431640625
,20.0273741,2.431640625
,20.04679,2.36328125
,20.0652672,2.3876953125
,20.1083173,2.3974609375
,20.1085699,2.421875
,20.1448329,2.4609375
,20.1466948,2.509765625
,20.1818091,2.5537109375
,20.2019962,2.607421875
,20.2051075,2.6416015625
,20.2404623,2.6806640625
,20.2451095,2.7197265625
,20.2960586,2.7294921875
,20.2963137,2.7392578125
,20.3077557,2.734375
,20.3443271,2.734375
,20.3472891,2.7197265625
,20.3813272,2.71484375
,20.4012946,2.6953125
,20.4059254,2.7001953125
,20.4511128,2.6953125
,20.4515347,2.705078125
,20.4681545,2.6904296875
,20.5134526,2.685546875
,20.513884,2.6708984375
,20.5276319,2.6611328125
,20.5432207,2.63671875
,20.5789432,2.6318359375
,20.6055579,2.6220703125
,20.605807,2.59765625
,20.653506,2.578125
,20.6537593,2.5537109375
,20.6679348,2.5439453125
,20.7154913,2.51953125
,20.7157407,2.5
,20.7251475,2.4755859375
,20.7616814,2.470703125
,20.7821229,2.4658203125
,20.7855445,2.4560546875
,20.8249788,2.4462890625
,20.8566563,2.4462890625
,20.8570824,2.44140625
,20.8685755,2.4365234375
,20.9054903,2.431640625
,20.9103719,2.412109375
,20.9295815,2.353515625
,20.9464407,2.3095703125
,20.9832453,2.3583984375
,20.9858984,2.3876953125
,21.0204318,2.44140625
,21.0404002,2.4853515625
,21.0481738,2.5439453125
,21.0892976,2.5830078125
,21.0896154,2.626953125
,21.1204428,2.6513671875
,21.1273729,2.6806640625
,21.1653428,2.6953125
,21.165598,2.705078125
,21.2002047,2.6953125
,21.2201145,2.685546875
,21.2285621,2.67578125
,21.2746662,2.65625
,21.2749123,2.6513671875
,21.2864466,2.63671875
,21.3067769,2.6416015625
,21.3288815,2.63671875
,21.3483423,2.646484375
,21.3697572,2.6416015625
,21.4135361,2.63671875
,21.413863,2.6220703125
,21.4298127,2.607421875
,21.4475603,2.5830078125
,21.4818011,2.578125
,21.4848131,2.55859375
,21.523185,2.5439453125
,21.5538724,2.5390625
,21.5541828,2.51953125
,21.5673214,2.5048828125
,21.6147533,2.4853515625
,21.615142,2.4755859375
,21.6457131,2.4609375
,21.6461126,2.4609375
,21.6806496,2.451171875
,21.7008581,2.4462890625
,21.7063957,2.4267578125
,21.755117,2.421875
,21.7555127,2.40234375
,21.7857949,2.40234375
,21.7890632,2.392578125
,21.82391,2.3974609375
,21.8460308,2.4169921875
,21.8464506,2.48046875
,21.8799437,2.5390625
,21.9019313,2.578125
,21.9080432,2.6220703125
,21.9538573,2.6513671875
,21.9540938,2.67578125
,21.9712112,2.6806640625
,22.0067543,2.6904296875
,22.0070403,2.67578125
,22.043614,2.6806640625
,22.0461885,2.6708984375
,22.0951575,2.666015625
,22.0954148,2.6513671875
,22.1100158,2.6513671875
,22.1596337,2.6318359375
,22.159891,2.63671875
,22.1712787,2.63671875
,22.1880295,2.6220703125
,22.2224898,2.6220703125
,22.2284109,2.6123046875
,22.2477297,2.607421875
,22.2832767,2.5927734375
,22.3056774,2.578125
,22.3106746,2.5537109375
,22.3463878,2.5390625
,22.3467546,2.5146484375
,22.381275,2.5146484375
,22.4029355,2.5
,22.4093968,2.4951171875
,22.4279543,2.48046875
,22.468665,2.4755859375
,22.4986249,2.4560546875
,22.4988785,2.451171875
,22.5113233,2.4365234375
,22.5254503,2.421875
,22.5606711,2.421875
,22.5816494,2.412109375
,22.5882326,2.40234375
,22.6256243,2.392578125
,22.6304204,2.3876953125
,22.6680098,2.3876953125
,22.6683082,2.4072265625
,22.7164185,2.431640625
,22.7168168,2.470703125
,22.7474047,2.51953125
,22.7479161,2.5830078125
,22.7701309,2.6318359375
,22.7886383,2.6708984375
,22.822578,2.7099609375
,22.8423759,2.724609375
,22.8494096,2.734375
,22.8831879,2.7392578125
,22.9032781,2.75390625
,22.9092186,2.744140625
,22.9284696,2.7490234375
,22.9491736,2.744140625
,22.986356,2.7490234375
,22.9882591,2.734375
,23.0254542,2.734375
,23.0303319,2.7197265625
,23.067371,2.7197265625
,23.0676926,2.7001953125
,23.086741,2.7001953125
,23.1224077,2.685546875
,23.1430877,2.6806640625
,23.1506579,2.666015625
,23.1868992,2.646484375
,23.1911944,2.626953125
,23.2378632,2.6025390625
,23.2381151,2.5830078125
,23.2473281,2.55859375
,23.2847507,2.5537109375
,23.2871595,2.5341796875
,23.3229623,2.51953125
,23.3424885,2.509765625
,23.3497723,2.4951171875
,23.3947522,2.48046875
,23.3956535,2.4755859375
,23.4100812,2.4609375
,23.4437441,2.40234375
,23.4532147,2.373046875
,23.4685251,2.3291015625
,23.5036723,2.36328125
,23.5237199,2.3681640625
,23.531232,2.3828125
,23.5663262,2.3876953125
,23.5715108,2.421875
,23.6102392,2.451171875
,23.6314711,2.5146484375
,23.6316774,2.578125
,23.6495287,2.65625
,23.689228,2.7001953125
,23.6895116,2.7490234375
,23.7331752,2.7734375
,23.7334944,2.802734375
,23.7670695,2.8076171875
,23.7715069,2.8173828125
,23.8057203,2.8076171875
,23.8272168,2.79296875
,23.8275249,2.7880859375
,23.8635256,2.783203125
,23.8862412,2.7685546875
,23.8902888,2.7587890625
,23.9333889,2.7587890625
,23.9335927,2.7490234375
,23.9523309,2.744140625
,23.9678638,2.7294921875
,24.0095462,2.724609375
,24.0098743,2.705078125
,24.0442812,2.7001953125
,24.0717559,2.67578125
,24.0720698,2.65625
,24.1182246,2.63671875
,24.1186271,2.607421875
,24.1326118,2.578125
,24.1492225,2.548828125
,24.1935,2.5390625
,24.1939223,2.51953125
,24.2100053,2.5048828125
,24.2478609,2.4853515625
,24.2500684,2.470703125
,24.2844355,2.4462890625
,24.3189005,2.4365234375
,24.3192961,2.4169921875
,24.3356097,2.3681640625
,24.3500354,2.36328125
,24.3688343,2.373046875
,24.402178,2.36328125
,24.4227433,2.3681640625
,24.4313083,2.3681640625
,24.4671044,2.36328125
,24.4717477,2.3828125
,24.5090628,2.40234375
,24.5139757,2.451171875
,24.5293467,2.5
,24.562046,2.578125
,24.5830406,2.6318359375
,24.5915,2.685546875
,24.640344,2.7099609375
,24.6406047,2.744140625
,24.65193,2.7490234375
,24.685513,2.7587890625
,24.7061832,2.744140625
,24.7087559,2.7490234375
,24.7443582,2.75390625
,24.7648961,2.7392578125
,24.7708954,2.734375
,24.8131461,2.7197265625
,24.8134239,2.71484375
,24.8488681,2.7001953125
,24.8541392,2.7001953125
,24.8700075,2.6806640625
,24.9056006,2.6806640625
,24.9117816,2.6708984375
,24.9331332,2.67578125
,24.9529092,2.6611328125
,24.9984664,2.65625
,24.9987791,2.6318359375
,25.0113396,2.6171875
,25.0462422,2.5830078125
,25.0510763,2.578125
,25.0930903,2.568359375
,25.0933267,2.548828125
,25.1110786,2.5341796875
,25.1571746,2.51953125
,25.1574139,2.5048828125
,25.1748587,2.4853515625
,25.1915247,2.470703125
,25.2331098,2.451171875
,25.2334011,2.4365234375
,25.2536918,2.421875
,25.270471,2.4169921875
,25.3052711,2.412109375
,25.3252884,2.421875
,25.3299921,2.4365234375
,25.3671094,2.4755859375
,25.3874181,2.529296875
,25.3942639,2.5732421875
,25.4277587,2.626953125
,25.4488334,2.6611328125
,25.4491588,2.71484375
,25.4842271,2.7392578125
,25.5052935,2.763671875
,25.5132839,2.7587890625
,25.5522196,2.763671875
,25.5524815,2.744140625
,25.5873679,2.734375
,25.6066514,2.7099609375
,25.6088992,2.71484375
,25.631433,2.705078125
,25.666986,2.7099609375
,25.6720126,2.6953125
,25.6951847,2.7001953125
,25.7116197,2.6904296875
,25.7471962,2.67578125
,25.7691134,2.65625
,25.7693677,2.6416015625
,25.8170819,2.626953125
,25.8174837,2.607421875
,25.831162,2.587890625
,25.8649817,2.5732421875
,25.8853695,2.5537109375
,25.8960536,2.5244140625
,25.9394942,2.509765625
,25.9398346,2.4853515625
,25.9544621,2.490234375
,25.971769,2.4169921875
,26.0076349,2.4267578125
,26.011707,2.44140625
,26.0457791,2.431640625
,26.0667573,2.431640625
,26.0750752,2.412109375
,26.1103518,2.4072265625
,26.1130217,2.4072265625
,26.1479434,2.421875
,26.1702347,2.4462890625
,26.1708434,2.5048828125
,26.2049509,2.5634765625
,26.224603,2.63671875
,26.2331773,2.6953125
,26.2689205,2.75390625
,26.2754963,2.7880859375
,26.3109398,2.822265625
,26.3112664,2.83203125
,26.3457574,2.861328125
,26.3735048,2.8759765625
,26.3738463,2.861328125
,26.394388,2.8515625
,26.4149499,2.83203125
,26.4510591,2.822265625
,26.4565898,2.8125
,26.4893625,2.8076171875
,26.4896928,2.79296875
,26.528431,2.79296875
,26.5323571,2.783203125
,26.5541819,2.7783203125
,26.5900653,2.75390625
,26.5922091,2.734375
,26.6268912,2.705078125
,26.6466779,2.6806640625
,26.6552174,2.6611328125
,26.6733221,2.626953125
,26.7075377,2.607421875
,26.7121607,2.5830078125
,26.7474606,2.568359375
,26.7679392,2.548828125
,26.7723405,2.529296875
,26.8249885,2.5048828125
,26.8252757,2.4853515625
,26.8351107,2.4658203125
,26.8705409,2.3974609375
,26.8707944,2.3876953125
,26.9068191,2.3876953125
,26.9304157,2.3828125
,26.9347731,2.3779296875
,26.9788783,2.373046875
,26.9792788,2.3974609375
,26.9953581,2.4365234375
,27.0288443,2.48046875
,27.050539,2.548828125
,27.0508187,2.6123046875
,27.0853832,2.6953125
,27.1059521,2.7490234375
,27.1139799,2.8076171875
,27.1474521,2.8466796875
,27.1680219,2.8759765625
,27.1758788,2.8857421875
,27.2147515,2.890625
,27.2150338,2.880859375
,27.2507996,2.880859375
,27.2510909,2.8662109375
,27.2862894,2.861328125
,27.30678,2.8515625
,27.3156954,2.83203125
,27.3642268,2.822265625
,27.3644647,2.802734375
,27.3758614,2.7880859375
,27.3928938,2.763671875
,27.4439358,2.75390625
,27.44432,2.734375
,27.4564151,2.71484375
,27.4750248,2.6806640625
,27.5075932,2.666015625
,27.5276981,2.6318359375
,27.5343985,2.607421875
,27.5766396,2.568359375
,27.5769438,2.5537109375
,27.5943659,2.5244140625
,27.6299831,2.509765625
,27.6345445,2.490234375
,27.6847231,2.4609375
,27.6849928,2.4365234375
,27.6952164,2.412109375
,27.7466334,2.392578125
,27.746973,2.373046875
,27.7568403,2.353515625
,27.7731604,2.333984375
,27.8222801,2.32421875
,27.8225195,2.3193359375
,27.8371974,2.3193359375
,27.8855691,2.333984375
,27.8858255,2.3779296875
,27.8962173,2.4267578125
,27.9339732,2.5048828125
,27.9357426,2.587890625
,27.9545291,2.646484375
,27.9902221,2.71484375
,27.9966152,2.763671875
,28.0154814,2.8125
,28.0507066,2.8369140625
,28.056092,2.8564453125
,28.1043255,2.8466796875
,28.1046758,2.841796875
,28.1141708,2.8173828125
,28.1669011,2.822265625
,28.1671506,2.802734375
,28.1753396,2.7978515625
,28.2115618,2.7783203125
,28.2161849,2.7734375
,28.2519722,2.7490234375
,28.2570493,2.7392578125
,28.3068133,2.7197265625
,28.3072428,2.6904296875
,28.3143578,2.6806640625
,28.3494305,2.65625
,28.3542031,2.6318359375
,28.3878748,2.5927734375
,28.4080148,2.5732421875
,28.4154798,2.5390625
,28.4516432,2.51953125
,28.4519488,2.4853515625
,28.48607,2.470703125
,28.5065506,2.451171875
,28.5147441,2.4462890625
,28.5502615,2.4267578125
,28.5550283,2.412109375
,28.5907843,2.40234375
,28.6181738,2.3779296875
,28.6185681,2.3681640625
,28.6520757,2.3486328125
,28.6597949,2.3388671875
,28.6742482,2.3388671875
,28.7091478,2.3828125
,28.7289301,2.421875
,28.735825,2.4951171875
,28.7702367,2.548828125
,28.7914936,2.6220703125
,28.7983859,2.666015625
,28.8484581,2.7197265625
,28.8487038,2.744140625
,28.8560214,2.7783203125
,28.8914069,2.7783203125
,28.8935764,2.783203125
,28.9281625,2.7783203125
,28.9482347,2.75390625
,28.9573358,2.744140625
,29.0030998,2.724609375
,29.0033407,2.7099609375
,29.0142687,2.705078125
,29.066637,2.7294921875
,29.0670893,2.734375
,29.0761918,2.734375
,29.1122317,2.724609375
,29.116585,2.7099609375
,29.1591731,2.6806640625
,29.1595726,2.666015625
,29.1752934,2.626953125
,29.2096044,2.6123046875
,29.2133472,2.6025390625
,29.2472828,2.5732421875
,29.2679883,2.548828125
,29.2749829,2.5146484375
,29.3089868,2.5
,29.3286816,2.4755859375
,29.3383308,2.451171875
,29.358199,2.4267578125
,29.3802834,2.3583984375
,29.395062,2.3046875
,29.4377326,2.333984375
,29.4380725,2.333984375
,29.4720815,2.3388671875
,29.4768681,2.34375
,29.5116583,2.36328125
,29.5325373,2.3876953125
,29.5396203,2.470703125
,29.5599381,2.548828125
,29.5764757,2.6171875
,29.6244606,2.705078125
,29.6246996,2.7685546875
,29.6353405,2.8271484375
,29.6869274,2.8662109375
,29.6873188,2.900390625
,29.7163805,2.91015625
,29.719209,2.9150390625
,29.7358984,2.8955078125
,29.7779988,2.8857421875
,29.778243,2.8662109375
,29.7967207,2.8564453125
,29.831892,2.8369140625
,29.8366611,2.822265625
,29.8709062,2.8076171875
,29.8919739,2.783203125
,29.8989585,2.763671875
,29.9170513,2.734375
,29.9657563,2.7294921875
,29.9661688,2.7001953125
,29.9769444,2.6708984375
,30.012779700000003,2.63671875
,30.017017000000003,2.607421875
,30.0573221,2.568359375
,30.057729100000003,2.548828125
,30.074902700000003,2.509765625
,30.0958093,2.4951171875
,30.131913500000003,2.48046875
,30.136564999999997,2.4658203125
,30.179569800000003,2.431640625
,30.179879800000002,2.4267578125
,30.19977,2.412109375
,30.2346497,2.3876953125
,30.2387224,2.3681640625
,30.2610248,2.3486328125
,30.2801695,2.3291015625
,30.2958906,2.314453125
,30.3359636,2.3046875
,30.336221100000003,2.2998046875
,30.357234400000003,2.294921875
,30.3919644,2.3095703125
,30.4148487,2.353515625
,30.420647799999998,2.4072265625
,30.4569847,2.5048828125
,30.457276399999998,2.59765625
,30.5070031,2.7001953125
,30.507334200000003,2.7978515625
,30.5176066,2.8564453125
,30.538521099999997,2.9150390625
,30.5724461,2.94921875
,30.577240699999997,2.9833984375
,30.6126152,2.9833984375
,30.632416900000003,2.9833984375
,30.6370394,2.958984375
,30.679550499999998,2.94921875
,30.679952299999997,2.9248046875
,30.6990349,2.9150390625
,30.718168400000003,2.890625
,30.7565935,2.87109375
,30.785327199999998,2.841796875
,30.785567299999997,2.822265625
,30.796453800000002,2.7880859375
,30.831456000000003,2.783203125
,30.8363484,2.7587890625
,30.8711501,2.7197265625
,30.891725800000003,2.6904296875
,30.897744099999997,2.646484375
,30.9415785,2.607421875
,30.941989,2.568359375
,30.960449699999998,2.5341796875
,30.9768283,2.490234375
,31.0114109,2.470703125
,31.016151,2.4462890625
,31.0503133,2.431640625
,31.0704068,2.4072265625
,31.0770748,2.412109375
,31.111356899999997,2.3876953125
,31.130660300000002,2.3779296875
,31.1398656,2.3681640625
,31.1759999,2.333984375
,31.2032404,2.314453125
,31.2034837,2.2900390625
,31.218420100000003,2.2900390625
,31.2554625,2.275390625
,31.258024,2.275390625
,31.2927556,2.28515625
,31.3130502,2.333984375
,31.319899900000003,2.392578125
,31.3541893,2.4853515625
,31.3764903,2.568359375
,31.3768787,2.6708984375
,31.4237044,2.7490234375
,31.424026499999997,2.822265625
,31.453961800000002,2.8662109375
,31.461194499999998,2.9150390625
,31.4786327,2.9345703125
,31.515846600000003,2.9345703125
,31.5360563,2.9248046875
,31.541910299999998,2.8955078125
,31.559766699999997,2.8759765625
,31.593998399999997,2.8515625
,31.598555400000002,2.841796875
,31.639041499999998,2.8173828125
,31.6394638,2.7978515625
,31.660902399999998,2.7734375
,31.6959042,2.7490234375
,31.6963188,2.7197265625
,31.732405999999997,2.7099609375
,31.7520654,2.6806640625
,31.758861500000002,2.65625
,31.796169499999998,2.6318359375
,31.8010289,2.5927734375
,31.8208262,2.5537109375
,31.856522599999998,2.5048828125
,31.8605918,2.4755859375
,31.881678700000002,2.4365234375
,31.9013646,2.36328125
,31.919458300000002,2.294921875
,31.956001899999997,2.3046875
,31.9585778,2.2998046875
,31.9924643,2.3095703125
,32.0133322,2.294921875
,32.0206264,2.294921875
,32.0559023,2.275390625
,32.0762465,2.2607421875
,32.0764847,2.2314453125
,32.1124138,2.24609375
,32.1319455,2.24609375
,32.1395767,2.2412109375
,32.1601401,2.2412109375
,32.1975083,2.2607421875
,32.2028422,2.314453125
,32.2392199,2.3779296875
,32.2396583,2.470703125
,32.2750001,2.548828125
,32.2783865,2.6416015625
,32.3190293,2.71484375
,32.3194198,2.7783203125
,32.339056,2.8173828125
,32.3750209,2.8515625
,32.3933857,2.8515625
,32.4028985,2.8515625
,32.4235874,2.8466796875
,32.4387496,2.8125
,32.4720979,2.7978515625
,32.4922623,2.7734375
,32.4999282,2.7685546875
,32.5352693,2.7490234375
,32.5401577,2.734375
,32.5772565,2.71484375
,32.5810187,2.7001953125
,32.597231,2.6708984375
,32.6330159,2.6708984375
,32.6378519,2.6513671875
,32.6742414,2.626953125
,32.6785756,2.59765625
,32.7153394,2.568359375
,32.736648,2.5341796875
,32.7431522,2.5146484375
,32.762314,2.490234375
,32.8004426,2.4560546875
,32.8028655,2.4365234375
,32.8202755,2.412109375
,32.8557533,2.3974609375
,32.8607723,2.3828125
,32.8945192,2.3779296875
,32.9158525,2.36328125
,32.9236327,2.3486328125
,32.9600662,2.3388671875
,32.9604859,2.3193359375
,33.0032475,2.3046875
,33.0036353,2.3193359375
,33.0216315,2.333984375
,33.0580952,2.3681640625
,33.060133,2.431640625
,33.0968966,2.490234375
,33.1015376,2.5830078125
,33.1364662,2.65625
,33.1566963,2.744140625
,33.1601549,2.79296875
,33.2045704,2.8515625
,33.2048346,2.8857421875
,33.2207198,2.91015625
,33.2654237,2.9052734375
,33.2656895,2.900390625
,33.2821143,2.8759765625
,33.3175855,2.8564453125
,33.3178388,2.83203125
,33.3545492,2.822265625
,33.3586146,2.802734375
,33.3914716,2.802734375
,33.4136282,2.7978515625
,33.4218682,2.7783203125
,33.4584459,2.763671875
,33.4896995,2.7294921875
,33.49002,2.7001953125
,33.4996253,2.666015625
,33.5356562,2.646484375
,33.5384412,2.6123046875
,33.5718317,2.587890625
,33.594836,2.548828125
,33.6019778,2.5244140625
,33.6428656,2.4853515625
,33.6431692,2.470703125
,33.6814011,2.451171875
,33.6818118,2.431640625
,33.7184466,2.421875
,33.7522255,2.3876953125
,33.7525735,2.3828125
,33.7633966,2.3583984375
,33.7822272,2.3583984375
,33.8171583,2.34375
,33.8220809,2.32421875
,33.8561623,2.3046875
,33.8771718,2.3046875
,33.8795265,2.32421875
,33.9145459,2.392578125
,33.9217735,2.4658203125
,33.9579684,2.5634765625
,33.9606908,2.6513671875
,34.0015306,2.744140625
,34.0339562,2.8125
,34.0342498,2.8857421875
,34.0443351,2.939453125
,34.0608713,2.9638671875
,34.112215,2.98828125
,34.1127065,2.9931640625
,34.119496,2.9833984375
,34.155445,2.958984375
,34.1751817,2.94921875
,34.1844036,2.919921875
,34.2042288,2.91015625
,34.2179991,2.880859375
,34.2660032,2.8662109375
,34.266389,2.8515625
,34.2951237,2.841796875
,34.3007375,2.8173828125
,34.3357636,2.7880859375
,34.3583913,2.763671875
,34.3639857,2.71484375
,34.4038753,2.67578125
,34.4041284,2.63671875
,34.4260588,2.6123046875
,34.4412966,2.5146484375
,34.4768743,2.5048828125
,34.4810911,2.48046875
,34.5167732,2.4658203125
,34.5371138,2.431640625
,34.5420196,2.4169921875
,34.5941859,2.392578125
,34.5974886,2.3779296875
,34.6008792,2.353515625
,34.6336875,2.34375
,34.6544941,2.3193359375
,34.6612345,2.314453125
,34.6965712,2.2998046875
,34.7158531,2.2802734375
,34.7256113,2.265625
,34.7619167,2.255859375
,34.7664051,2.2705078125
,34.7835382,2.3046875
,34.8168245,2.3876953125
,34.8215551,2.470703125
,34.8560393,2.55859375
,34.8862402,2.6416015625
,34.8866075,2.71484375
,34.9192231,2.7685546875
,34.9247112,2.822265625
,34.94092,2.8466796875
,34.9808716,2.8759765625
,34.9813073,2.890625
,35.0158893,2.8759765625
,35.035736,2.8662109375
,35.0452302,2.8369140625
,35.0646439,2.8173828125
,35.1037651,2.7880859375
,35.1040538,2.7734375
,35.137169,2.744140625
,35.1402219,2.734375
,35.1748067,2.71484375
,35.1945355,2.7197265625
,35.2014064,2.6953125
,35.2420498,2.6708984375
,35.2735631,2.63671875
,35.2739059,2.6025390625
,35.2855039,2.5537109375
,35.3058899,2.490234375
,35.3500548,2.431640625
,35.3504038,2.412109375
,35.3628654,2.412109375
,35.4126499,2.40234375
,35.4129083,2.392578125
,35.424686,2.373046875
,35.4597664,2.3583984375
,35.4642916,2.3388671875
,35.4979752,2.32421875
,35.5185818,2.3095703125
,35.5231424,2.2998046875
,35.56669,2.28515625
,35.5669431,2.2802734375
,35.5876705,2.2607421875
,35.6060109,2.24609375
,35.6241292,2.24609375
,35.6568256,2.2216796875
,35.6779179,2.24609375
,35.6829143,2.275390625
,35.7166115,2.3486328125
,35.7366174,2.4072265625
,35.7416946,2.48046875
,35.7788624,2.5341796875
,35.7995392,2.607421875
,35.8066937,2.65625
,35.8428484,2.705078125
,35.8432467,2.724609375
,35.8798543,2.75390625
,35.8845246,2.763671875
,35.9039266,2.763671875
,35.9381247,2.744140625
,35.9585661,2.7294921875
,35.966309,2.71484375
,36.0152681,2.6953125
,36.0156978,2.685546875
,36.0225272,2.666015625
,36.0593595,2.6611328125
,36.0619451,2.6513671875
,36.0964077,2.646484375
,36.1166434,2.6220703125
,36.1235772,2.6025390625
,36.1723736,2.5732421875
,36.1727687,2.548828125
,36.1867597,2.5146484375
,36.223818,2.5
,36.2241984,2.470703125
,36.2605197,2.4560546875
,36.2646047,2.4462890625
,36.2984927,2.4267578125
,36.3183561,2.412109375
,36.3259641,2.392578125
,36.3467548,2.3779296875
,36.3834189,2.3583984375
,36.3840783,2.3486328125
,36.4238159,2.32421875
,36.4242094,2.3193359375
,36.4734461,2.2998046875
,36.473742,2.2998046875
,36.5037829,2.28515625
,36.5041251,2.2802734375
,36.5384067,2.275390625
,36.5581705,2.294921875
,36.5623632,2.32421875
,36.6008863,2.392578125
,36.6034965,2.4658203125
,36.6428543,2.509765625
,36.6616666,2.568359375
,36.6637606,2.6025390625
,36.7042871,2.63671875
,36.7069753,2.646484375
,36.7517275,2.65625
,36.7520791,2.646484375
,36.765433,2.6513671875
,36.7863436,2.6416015625
,36.8066556,2.626953125
,36.8257732,2.6171875
,36.874653,2.6171875
,36.875069,2.607421875
,36.8880845,2.6025390625
,36.9094052,2.6025390625
,36.9246001,2.5830078125
,36.9448079,2.5830078125
,36.9631508,2.5732421875
,36.9986308,2.568359375
,37.0190941,2.5439453125
,37.0240068,2.5341796875
,37.0575907,2.509765625
,37.077299,2.490234375
,37.0868626,2.4609375
,37.1350832,2.451171875
,37.1353733,2.421875
,37.1444058,2.421875
,37.1826004,2.4072265625
,37.1830162,2.40234375
,37.2176082,2.3828125
,37.2377627,2.3876953125
,37.2479375,2.392578125
,37.2911163,2.3779296875
,37.2915173,2.373046875
,37.3027717,2.36328125
,37.3378403,2.3681640625
,37.358775,2.3779296875
,37.3643729,2.40234375
,37.3997071,2.44140625
,37.4305492,2.490234375
,37.4308591,2.5439453125
,37.4492363,2.59765625
,37.4682289,2.6416015625
,37.4825528,2.6953125
,37.5168395,2.7294921875
,37.5368459,2.75390625
,37.5468593,2.7734375
,37.5681046,2.763671875
,37.5868597,2.7587890625
,37.6224946,2.7392578125
,37.6441785,2.7294921875
,37.6449962,2.705078125
,37.6658098,2.71484375
,37.6862277,2.7001953125
,37.7314578,2.705078125
,37.7318729,2.685546875
,37.7488351,2.6904296875
,37.7667537,2.6708984375
,37.8021937,2.6611328125
,37.8064361,2.63671875
,37.8407595,2.568359375
,37.846242,2.5048828125
,37.8816478,2.5244140625
,37.8846,2.529296875
,37.9335405,2.5146484375
,37.9339398,2.5
,37.9460506,2.4853515625
,37.9821698,2.4755859375
,38.0041481,2.4560546875
,38.0085626,2.44140625
,38.0259831,2.4267578125
,38.0462532,2.421875
,38.0818864,2.412109375
,38.0864465,2.40234375
,38.1211654,2.3876953125
,38.1409749,2.3779296875
,38.1466783,2.36328125
,38.181202,2.353515625
,38.2035264,2.353515625
,38.2039239,2.34375
,38.2445385,2.373046875
,38.2757567,2.412109375
,38.2760105,2.4853515625
,38.2871513,2.5390625
,38.3353745,2.59765625
,38.3356232,2.63671875
,38.3477767,2.6806640625
,38.365395,2.7001953125
,38.3877599,2.7392578125
,38.4059704,2.7490234375
,38.4388743,2.7685546875
,38.4614856,2.7587890625
,38.468676,2.7490234375
,38.4884916,2.734375
,38.5255002,2.724609375
,38.5299743,2.71484375
,38.5458107,2.6953125
,38.5853752,2.7001953125
,38.5858047,2.6904296875
,38.6324578,2.6904296875
,38.6327816,2.6708984375
,38.6534139,2.6708984375
,38.6675478,2.6513671875
,38.703866,2.6318359375
,38.7259511,2.6025390625
,38.7306315,2.5830078125
,38.746852,2.548828125
,38.7809154,2.5439453125
,38.7872128,2.5244140625
,38.8234827,2.509765625
,38.8264195,2.5
,38.8605709,2.48046875
,38.8803307,2.4658203125
,38.8874135,2.4462890625
,38.9222082,2.4365234375
,38.9430725,2.4169921875
,38.9461104,2.412109375
,38.9669508,2.40234375
,39.0025588,2.392578125
,39.0325496,2.3828125
,39.0327853,2.373046875
,39.0496458,2.36328125
,39.0852103,2.36328125
,39.0854654,2.36328125
,39.1192653,2.40234375
,39.1397035,2.4365234375
,39.1480838,2.5
,39.182148,2.55859375
,39.1871397,2.59765625
,39.2328568,2.63671875
,39.2331763,2.65625
,39.253565,2.6806640625
,39.2647041,2.6953125
,39.2982214,2.724609375
,39.3174834,2.724609375
,39.3290875,2.7197265625
,39.3734573,2.7099609375
,39.3738018,2.7001953125
,39.3904312,2.685546875
,39.4103866,2.6806640625
,39.4254659,2.6708984375
,39.4619881,2.67578125
,39.4662947,2.6806640625
,39.5130568,2.666015625
,39.5134715,2.6513671875
,39.5292456,2.6318359375
,39.5730176,2.6220703125
,39.5734387,2.59765625
,39.5903217,2.578125
,39.6425044,2.548828125
,39.6427914,2.5244140625
,39.6483253,2.4951171875
,39.6689738,2.490234375
,39.6886345,2.470703125
,39.7240607,2.4609375
,39.7290211,2.44140625
,39.7641919,2.4365234375
,39.770401,2.4169921875
,39.81412,2.421875
,39.8145111,2.4072265625
,39.8277094,2.3876953125
,39.8643964,2.3876953125
,39.8664642,2.3828125
,39.9022998,2.3779296875
,39.9223376,2.3681640625
,39.9296143,2.3583984375
,39.9666824,2.3583984375
,39.9684806,2.373046875
,40.0029535,2.3974609375
,40.0081196,2.44140625
,40.0301454,2.490234375
,40.049099,2.5439453125
,40.0849924,2.5830078125
,40.0876148,2.6123046875
,40.1216956,2.6416015625
,40.1447131,2.63671875
,40.1495643,2.6513671875
,40.1685389,2.6416015625
,40.2037636,2.646484375
,40.2077619,2.63671875
,40.2407792,2.6416015625
,40.2611101,2.626953125
,40.2692034,2.626953125
,40.3042547,2.6123046875
,40.3088003,2.6171875
,40.3439902,2.607421875
,40.351889,2.55859375
,40.3678392,2.5146484375
,40.4124133,2.5390625
,40.412671,2.5390625
,40.4309755,2.5439453125
,40.4756693,2.548828125
,40.4759094,2.5390625
,40.4919039,2.5244140625
,40.5289823,2.5
,40.5317903,2.490234375
,40.5488953,2.470703125
,40.5835605,2.4755859375
,40.6044445,2.4658203125
,40.6104002,2.4560546875
,40.6447623,2.4365234375
,40.6499923,2.4267578125
,40.6857733,2.412109375
,40.7095084,2.4072265625
,40.7097938,2.3876953125
,40.7286575,2.392578125
,40.7700153,2.3974609375
,40.7702527,2.3876953125
,40.7897553,2.3876953125
,40.833401,2.40234375
,40.8336392,2.431640625
,40.8498408,2.4658203125
,40.8871756,2.509765625
,40.8874155,2.5390625
,40.9230597,2.578125
,40.9585412,2.59765625
,40.9589387,2.6171875
,40.9701482,2.626953125
,41.0189245,2.626953125
,41.0191796,2.6123046875
,41.0316679,2.6025390625
,41.0493304,2.578125
,41.0967826,2.5830078125
,41.0970267,2.5830078125
,41.1098438,2.578125
,41.1449738,2.578125
,41.1758047,2.568359375
,41.1762201,2.5732421875
,41.1905035,2.5537109375
,41.2358489,2.548828125
,41.2360862,2.5341796875
,41.2579588,2.48046875
,41.268246,2.4755859375
,41.3041905,2.4853515625
,41.3303842,2.48046875
,41.3307963,2.490234375
,41.3756754,2.4853515625
,41.375918,2.4853515625
,41.392545,2.4853515625
,41.4286882,2.470703125
,41.4329497,2.4658203125
,41.4497266,2.4560546875
,41.4684913,2.4609375
,41.5180715,2.451171875
,41.5184015,2.4462890625
,41.5307759,2.431640625
,41.5685724,2.4267578125
,41.5715672,2.4169921875
,41.6089854,2.4169921875
,41.6093766,2.412109375
,41.6421814,2.44140625
,41.6635954,2.470703125
,41.6703494,2.5146484375
,41.7178198,2.5439453125
,41.7187402,2.6025390625
,41.731389,2.6416015625
,41.7668608,2.666015625
,41.7862657,2.685546875
,41.7886713,2.6953125
,41.8233727,2.705078125
,41.8438711,2.7099609375
,41.8524708,2.71484375
,41.8697093,2.7099609375
,41.9035961,2.7001953125
,41.9247914,2.685546875
,41.9328046,2.6708984375
,41.9500315,2.6611328125
,41.986629,2.6708984375
,41.9909763,2.6708984375
,42.041164,2.6611328125
,42.0414153,2.6611328125
,42.0520538,2.646484375
,42.0875388,2.63671875
,42.0918173,2.6123046875
,42.1263613,2.6025390625
,42.1482121,2.578125
,42.153441,2.55859375
,42.1713054,2.5341796875
,42.21313,2.529296875
,42.2133827,2.509765625
,42.2328002,2.5048828125
,42.2764416,2.4853515625
,42.2768614,2.48046875
,42.2935384,2.4609375
,42.3308255,2.451171875
,42.3312515,2.4267578125
,42.3654985,2.44140625
,42.399611,2.44140625
,42.4000201,2.431640625
,42.412715,2.4267578125
,42.4616875,2.421875
,42.4619396,2.431640625
,42.4717772,2.451171875
,42.510587,2.490234375
,42.5109853,2.529296875
,42.5551492,2.587890625
,42.5555122,2.6318359375
,42.5733874,2.6611328125
,42.594272,2.685546875
,42.6326836,2.705078125
,42.632932,2.7099609375
,42.6635306,2.71484375
,42.6833434,2.71484375
,42.6909634,2.6953125
,42.725772,2.6953125
,42.7333559,2.685546875
,42.7520716,2.685546875
,42.7875356,2.6708984375
,42.7918056,2.666015625
,42.8363847,2.65625
,42.8366245,2.6513671875
,42.8669441,2.6416015625
,42.8759148,2.646484375
,42.8926983,2.578125
,42.9289502,2.587890625
,42.9292652,2.5830078125
,42.9654346,2.578125
,42.9865253,2.55859375
,42.9931998,2.548828125
,43.0266079,2.5390625
,43.0465774,2.51953125
,43.0562287,2.509765625
,43.0717778,2.4853515625
,43.1065566,2.48046875
,43.110977,2.4658203125
,43.1440702,2.4658203125
,43.1666909,2.451171875
,43.1714349,2.44140625
,43.2078466,2.421875
,43.2382604,2.4072265625
,43.2386255,2.3876953125
,43.2512118,2.392578125
,43.2873927,2.3828125
,43.2916811,2.392578125
,43.3249738,2.412109375
,43.3467875,2.4365234375
,43.354833,2.48046875
,43.3758691,2.5244140625
,43.3957051,2.5927734375
,43.4119038,2.626953125
,43.4476111,2.67578125
,43.4523345,2.705078125
,43.5022794,2.7294921875
,43.5026765,2.7294921875
,43.5140618,2.7392578125
,43.5509236,2.7294921875
,43.5561646,2.71484375
,43.5714635,2.6953125
,43.6058013,2.6904296875
,43.6253882,2.67578125
,43.6320568,2.6806640625
,43.6659271,2.685546875
,43.687946,2.6708984375
,43.6943089,2.666015625
,43.7295467,2.6416015625
,43.7491033,2.6318359375
,43.7556447,2.6123046875
,43.7739593,2.5537109375
,43.8071171,2.5
,43.8122034,2.5146484375
,43.8574659,2.5146484375
,43.8577046,2.509765625
,43.8743937,2.5
,43.9197217,2.4951171875
,43.9200311,2.4853515625
,43.9351654,2.4755859375
,43.9814253,2.4658203125
,43.9818238,2.4462890625
,43.9926555,2.44140625
,44.0271898,2.431640625
,44.0472292,2.4365234375
,44.0521996,2.4267578125
,44.0876362,2.4169921875
,44.107091,2.4072265625
,44.1135981,2.4169921875
,44.1469041,2.431640625
,44.1514155,2.48046875
,44.1868369,2.509765625
,44.2115386,2.55859375
,44.21178,2.587890625
,44.2457898,2.6171875
,44.2660579,2.6171875
,44.2741357,2.6416015625
,44.3084873,2.646484375
,44.3284891,2.63671875
,44.3308492,2.63671875
,44.3664929,2.626953125
,44.3870964,2.607421875
,44.3923712,2.59765625
,44.4270903,2.59765625
,44.4477822,2.59765625
,44.4552233,2.59765625
,44.4728306,2.59765625
,44.5197948,2.59765625
,44.5201328,2.59765625
,44.5335041,2.59765625
,44.5807282,2.587890625
,44.5810619,2.578125
,44.5932856,2.5732421875
,44.6428998,2.5537109375
,44.643282,2.5390625
,44.6617906,2.5146484375
,44.6750739,2.5048828125
,44.6916449,2.48046875
,44.7360105,2.4755859375
,44.7366502,2.4609375
,44.7549931,2.4560546875
,44.7922052,2.44140625
,44.7967023,2.4365234375
,44.8310887,2.4267578125
,44.8359065,2.421875
,44.8523673,2.40234375
,44.8730403,2.4169921875
,44.9197564,2.431640625
,44.9201033,2.48046875
,44.9351255,2.5244140625
,44.9703353,2.5634765625
,44.9748397,2.6025390625
,45.0139768,2.63671875
,45.0440894,2.6611328125
,45.0443976,2.67578125
,45.0542279,2.7001953125
,45.0905873,2.705078125
,45.0948013,2.7001953125
,45.1364954,2.6904296875
,45.1368471,2.6806640625
,45.156324,2.6611328125
,45.1989185,2.6513671875
,45.199128,2.6416015625
,45.2197968,2.646484375
,45.2329622,2.6513671875
,45.2753778,2.646484375
,45.2757205,2.6416015625
,45.3053189,2.6318359375
,45.3150146,2.626953125
,45.3521145,2.607421875
,45.3570201,2.587890625
,45.3730533,2.5634765625
,45.4141852,2.55859375
,45.414409,2.548828125
,45.4330557,2.55859375
,45.4740639,2.548828125
,45.4743977,2.548828125
,45.5218558,2.5390625
,45.5222331,2.5341796875
,45.5516234,2.509765625
,45.5567236,2.5048828125
,45.5968904,2.490234375
,45.5972012,2.4755859375
,45.632018,2.4755859375
,45.6325223,2.470703125
,45.6710686,2.4755859375
,45.699361,2.4853515625
,45.6997356,2.51953125
,45.7165604,2.5537109375
,45.7612203,2.6025390625
,45.7618698,2.63671875
,45.7736081,2.67578125
,45.8076863,2.705078125
,45.83804,2.744140625
,45.8383907,2.7587890625
,45.8576856,2.763671875
,45.8975226,2.7685546875
,45.897732,2.75390625
,45.9303565,2.7392578125
,45.9514505,2.7294921875
,45.9537173,2.734375
,45.9901173,2.724609375
,46.0090288,2.724609375
,46.0153628,2.7197265625
,46.0517848,2.7197265625
,46.0809924,2.7099609375
,46.081316,2.705078125
,46.0969799,2.685546875
,46.1150386,2.6806640625
,46.1345784,2.6708984375
,46.1723114,2.65625
,46.1742582,2.6318359375
,46.2087952,2.6171875
,46.229987,2.59765625
,46.2364146,2.568359375
,46.2714918,2.5439453125
,46.2944012,2.5146484375
,46.2972585,2.451171875
,46.3304551,2.4072265625
,46.3350337,2.431640625
,46.3720339,2.4365234375
,46.3746157,2.431640625
,46.4174868,2.421875
,46.4177318,2.412109375
,46.4374384,2.3974609375
,46.4797211,2.3974609375
,46.4799742,2.3876953125
,46.4944301,2.4072265625
,46.5386764,2.451171875
,46.5389837,2.48046875
,46.5606042,2.5341796875
,46.576296,2.5830078125
,46.6130082,2.6318359375
,46.6320499,2.65625
,46.6387049,2.6953125
,46.6539108,2.7099609375
,46.6877848,2.734375
,46.7230524,2.7392578125
,46.723315,2.7490234375
,46.7392775,2.7392578125
,46.7573047,2.7294921875
,46.7981633,2.71484375
,46.7986272,2.705078125
,46.8143884,2.685546875
,46.8470223,2.7001953125
,46.8676513,2.7001953125
,46.8748939,2.6904296875
,46.9084988,2.6904296875
,46.9292215,2.685546875
,46.9380655,2.6708984375
,46.9816676,2.6513671875
,46.9818652,2.63671875
,47.0035938,2.6171875
,47.0167079,2.607421875
,47.0368051,2.587890625
,47.0573036,2.5732421875
,47.0945734,2.5537109375
,47.0947719,2.5390625
,47.130918,2.51953125
,47.1516954,2.5
,47.1593323,2.4951171875
,47.1784257,2.4755859375
,47.2132102,2.4658203125
,47.234074,2.4462890625
,47.2343524,2.44140625
,47.2755137,2.421875
,47.2956414,2.412109375
,47.2977991,2.392578125
,47.3380117,2.3876953125
,47.369588,2.3779296875
,47.3698768,2.392578125
,47.3758477,2.4072265625
,47.4139597,2.4609375
,47.4343182,2.5048828125
,47.4362797,2.55859375
,47.4754441,2.5927734375
,47.4976876,2.646484375
,47.4979637,2.67578125
,47.5378763,2.685546875
,47.5380766,2.6904296875
,47.5593579,2.685546875
,47.5774253,2.6806640625
,47.6121783,2.6708984375
,47.6163822,2.666015625
,47.6517043,2.6513671875
,47.6717699,2.6416015625
,47.6764605,2.6318359375
,47.7136077,2.626953125
,47.7341672,2.6171875
,47.7344117,2.6220703125
,47.7724021,2.6123046875
,47.7750767,2.607421875
,47.8145789,2.6025390625
,47.8349337,2.578125
,47.8372238,2.5634765625
,47.8713679,2.5390625
,47.893501,2.5244140625
,47.8937543,2.5
,47.9385665,2.4951171875
,47.9387646,2.4853515625
,47.9730528,2.48046875
,47.9780293,2.4609375
,47.9977082,2.4560546875
,48.046949,2.44140625
,48.0471883,2.4267578125
,48.058219,2.412109375
,48.0940159,2.40234375
,48.113687,2.3828125
,48.1160629,2.3974609375
,48.1555235,2.4072265625
,48.185331,2.412109375
,48.1855712,2.44140625
,48.2001705,2.4755859375
,48.246901,2.509765625
,48.2471919,2.5390625
,48.2621005,2.578125
,48.2779141,2.587890625
,48.3242179,2.6123046875
,48.3246336,2.6171875
,48.3378402,2.6171875
,48.3740969,2.5927734375
,48.3782502,2.5927734375
,48.4136655,2.5732421875
,48.4339403,2.5634765625
,48.4406963,2.5537109375
,48.4567666,2.5439453125
,48.4928824,2.5537109375
,48.4975549,2.55859375
,48.5314795,2.5634765625
,48.5531826,2.55859375
,48.5605456,2.55859375
,48.5808314,2.5537109375
,48.6197873,2.5439453125
,48.6201659,2.51953125
,48.6539591,2.509765625
,48.6566149,2.4951171875
,48.7012987,2.490234375
,48.701672,2.48046875
,48.7197005,2.4658203125
,48.7571567,2.44140625
,48.7573591,2.4365234375
,48.7913133,2.4267578125
,48.8111389,2.412109375
,48.8227238,2.3583984375
,48.8382556,2.314453125
,48.8577081,2.34375
,48.895614,2.36328125
,48.9003771,2.3828125
,48.9450144,2.3974609375
,48.945367,2.421875
,48.9617219,2.451171875
,49.0062504,2.4951171875
,49.0064964,2.5341796875
,49.0175313,2.59765625
,49.0528325,2.6416015625
,49.0851453,2.6806640625
,49.0854648,2.7197265625
,49.100848,2.7294921875
,49.1470735,2.7392578125
,49.147274,2.734375
,49.1598256,2.7294921875
,49.1944753,2.71484375
,49.1969557,2.7099609375
,49.2393641,2.7001953125
,49.2396805,2.7001953125
,49.2734056,2.685546875
,49.2940237,2.685546875
,49.3020428,2.67578125
,49.3488345,2.666015625
,49.349033,2.65625
,49.3593896,2.65625
,49.3949604,2.63671875
,49.4003865,2.63671875
,49.4205585,2.6220703125
,49.4413122,2.5927734375
,49.4615016,2.5732421875
,49.4801965,2.548828125
,49.5173197,2.529296875
,49.5176679,2.509765625
,49.5543362,2.509765625
,49.5597273,2.5146484375
,49.6097624,2.509765625
,49.6100088,2.509765625
,49.6224133,2.509765625
,49.6405478,2.490234375
,49.6873708,2.48046875
,49.6876118,2.470703125
,49.7078644,2.412109375
,49.7210887,2.412109375
,49.7542855,2.392578125
,49.7598115,2.4072265625
,49.7803751,2.4169921875
,49.8169697,2.4560546875
,49.819439,2.4853515625
,49.8538514,2.5341796875
,49.8736225,2.578125
,49.8817906,2.6220703125
,49.8997382,2.6513671875
,49.9495942,2.6953125
,49.9498146,2.7099609375
,49.9584616,2.7294921875
,49.9935698,2.724609375
,50.0129001,2.724609375
,50.0212191,2.7099609375
,50.0566535,2.71484375
,50.0877382,2.705078125
,50.0880507,2.6904296875
,50.0992675,2.6953125
,50.1348222,2.6904296875
,50.1644002,2.685546875
,50.1646811,2.67578125
,50.1807072,2.67578125
,50.2269836,2.65625
,50.227351,2.6416015625
,50.2392377,2.6220703125
,50.2758158,2.6123046875
,50.2811187,2.5927734375
,50.3005352,2.587890625
,50.3360812,2.5634765625
,50.3411217,2.5439453125
,50.3776738,2.5341796875
,50.3818465,2.5146484375
,50.4287426,2.5048828125
,50.4290751,2.48046875
,50.4477879,2.4853515625
,50.4580292,2.470703125
,50.496812,2.4560546875
,50.5008903,2.44140625
,50.5377902,2.4365234375
,50.5675088,2.4169921875
,50.5677495,2.421875
,50.5815853,2.412109375
,50.6147314,2.40234375
,50.6350389,2.40234375
,50.6396357,2.431640625
,50.6756243,2.4609375
,50.6798962,2.5146484375
,50.7219378,2.5634765625
,50.7221874,2.587890625
,50.7418319,2.6220703125
,50.7768828,2.6416015625
,50.7822834,2.6611328125
,50.7984867,2.6611328125
,50.8332168,2.67578125
,50.8612346,2.6708984375
,50.8616947,2.6708984375
,50.8823364,2.65625
,50.9031243,2.6416015625
,50.9409919,2.6220703125
,50.9413665,2.6220703125
,50.961149,2.6025390625
,50.9796632,2.6123046875
,51.0148309,2.6171875
,51.0193192,2.607421875
,51.0537022,2.59765625
,51.0737215,2.5830078125
,51.0833899,2.5830078125
,51.1024117,2.5634765625
,51.1393991,2.548828125
,51.1396555,2.529296875
,51.1743789,2.5244140625
,51.1958857,2.509765625
,51.2008849,2.5
,51.2364198,2.4755859375
,51.241244,2.4658203125
,51.2752448,2.451171875
,51.296028,2.4462890625
,51.2996101,2.4267578125
,51.3390674,2.4267578125
,51.3454134,2.421875
,51.3605511,2.353515625
,51.3942721,2.373046875
,51.4147867,2.373046875
,51.4212844,2.3681640625
,51.4593709,2.3681640625
,51.4617751,2.3779296875
,51.495683,2.3828125
,51.5150818,2.412109375
,51.5189964,2.44140625
,51.5552497,2.4951171875
,51.575239,2.5390625
,51.5812075,2.59765625
,51.6163509,2.6220703125
,51.6362239,2.646484375
,51.6431499,2.666015625
,51.6942761,2.65625
,51.6946224,2.65625
,51.6995953,2.6416015625
,51.7357262,2.646484375
,51.7399781,2.6318359375
,51.7721463,2.6318359375
,51.7924154,2.6220703125
,51.8041626,2.6220703125
,51.8475409,2.6025390625
,51.847752,2.6025390625
,51.8614294,2.5830078125
,51.8829537,2.59765625
,51.9237671,2.5927734375
,51.9242105,2.5830078125
,51.9607615,2.5634765625
,51.9611642,2.55859375
,51.9953727,2.5439453125
,52.015472,2.5244140625
,52.0250749,2.5
,52.0406786,2.4853515625
,52.0812502,2.4853515625
,52.0814881,2.4755859375
,52.1107605,2.470703125
,52.1231473,2.4609375
,52.1601087,2.451171875
,52.1660398,2.4365234375
,52.1819696,2.431640625
,52.22009,2.4169921875
,52.2231119,2.36328125
,52.2418468,2.3193359375
,52.2780757,2.353515625
,52.2815903,2.3974609375
,52.3163244,2.4267578125
,52.3439785,2.470703125
,52.3442223,2.5048828125
,52.3763328,2.5634765625
,52.3971246,2.587890625
,52.4037235,2.6171875
,52.4242115,2.626953125
,52.4607349,2.646484375
,52.461131,2.6513671875
,52.4946047,2.65625
,52.5184731,2.6416015625
,52.5234029,2.63671875
,52.558962,2.6220703125
,52.5794664,2.6123046875
,52.579709,2.59765625
,52.6140462,2.6171875
,52.6361228,2.626953125
,52.6427949,2.6220703125
,52.6779183,2.626953125
,52.6826029,2.6171875
,52.7161519,2.607421875
,52.7359051,2.587890625
,52.7466761,2.578125
,52.7623744,2.5634765625
,52.8068297,2.55859375
,52.8072522,2.5439453125
,52.8240113,2.5341796875
,52.8447328,2.5146484375
,52.8792012,2.5146484375
,52.8873712,2.4951171875
,52.9059225,2.48046875
,52.9258739,2.470703125
,52.9412614,2.4560546875
,52.9742254,2.451171875
,52.9943698,2.44140625
,53.004654,2.44140625
,53.0534161,2.431640625
,53.053673,2.4267578125
,53.0640908,2.4169921875
,53.1015061,2.4267578125
,53.1074125,2.44140625
,53.1267058,2.48046875
,53.1428741,2.509765625
,53.1787323,2.5634765625
,53.1836394,2.607421875
,53.2239334,2.6416015625
,53.2241744,2.65625
,53.259039,2.6806640625
,53.2809853,2.6953125
,53.2855484,2.6904296875
,53.3068513,2.685546875
,53.3221685,2.6708984375
,53.3575074,2.666015625
,53.3768784,2.65625
,53.3829175,2.65625
,53.4188452,2.6416015625
,53.43882,2.6416015625
,53.4462188,2.63671875
,53.4816591,2.626953125
,53.4818976,2.6123046875
,53.5155847,2.6171875
,53.5370675,2.607421875
,53.5418008,2.59765625
,53.5829168,2.5927734375
,53.5832608,2.5732421875
,53.6190783,2.55859375
,53.6436766,2.5439453125
,53.6439145,2.548828125
,53.6643775,2.5341796875
,53.6849987,2.5439453125
,53.7220217,2.5341796875
,53.7223738,2.5341796875
,53.7678478,2.5244140625
,53.7680916,2.51953125
,53.786186,2.5
,53.8198661,2.490234375
,53.840272,2.470703125
,53.8405272,2.4755859375
,53.8846553,2.4609375
,53.8853307,2.4658203125
,53.9157584,2.4609375
,53.9260403,2.4658203125
,53.9460146,2.4853515625
,53.9813604,2.5146484375
,53.986386,2.5537109375
,54.0203244,2.5830078125
,54.0406188,2.6220703125
,54.0463173,2.646484375
,54.06312,2.685546875
,54.1001526,2.7001953125
,54.1208764,2.7099609375
,54.1235416,2.705078125
,54.1586517,2.705078125
,54.1794922,2.6953125
,54.1875934,2.685546875
,54.2244347,2.6806640625
,54.2249735,2.6611328125
,54.260302,2.6708984375
,54.2643287,2.6611328125
,54.2985587,2.666015625
,54.3188851,2.6513671875
,54.3260939,2.6513671875
,54.3478689,2.6318359375
,54.3827104,2.6318359375
,54.3830157,2.6025390625
,54.4189642,2.6025390625
,54.423773,2.5830078125
,54.4568847,2.5732421875
,54.4792067,2.548828125
,54.4861476,2.5390625
,54.5196341,2.5048828125
,54.5409961,2.5
,54.5458736,2.4853515625
,54.5630194,2.470703125
,54.5988627,2.470703125
,54.6046357,2.4658203125
,54.6408404,2.4609375
,54.6608317,2.4462890625
,54.6671993,2.4462890625
,54.6887455,2.431640625
,54.7055528,2.4169921875
,54.740903,2.4072265625
,54.7468834,2.36328125
,54.7797391,2.32421875
,54.7845876,2.3828125
,54.8053863,2.4169921875
,54.8403968,2.4755859375
,54.8606685,2.5390625
,54.8656267,2.578125
,54.9027409,2.6171875
,54.9100483,2.6318359375
,54.9293011,2.65625
,54.9451516,2.65625
,54.9823618,2.6708984375
,55.0028021,2.666015625
,55.0058884,2.65625
,55.040724,2.6416015625
,55.0623706,2.6318359375
,55.067342,2.6123046875
,55.1050691,2.607421875
,55.1056393,2.5927734375
,55.1530873,2.6025390625
,55.1533289,2.59765625
,55.1655609,2.6123046875
,55.215652,2.6123046875
,55.2160761,2.5927734375
,55.2465768,2.587890625
,55.2468885,2.5732421875
,55.2819415,2.5634765625
,55.3083255,2.5439453125
,55.3085995,2.5390625
,55.3548264,2.529296875
,55.3550747,2.5244140625
,55.3667156,2.509765625
,55.4156708,2.5
,55.4159027,2.48046875
,55.4280669,2.48046875
,55.4446254,2.4560546875
,55.4947328,2.4658203125
,55.494991,2.4658203125
,55.505857,2.451171875
,55.555219,2.44140625
,55.5556243,2.431640625
,55.5760214,2.44140625
,55.5870569,2.44140625
,55.6206083,2.4658203125
,55.6406279,2.4951171875
,55.6470134,2.5439453125
,55.6804953,2.5732421875
,55.6850452,2.626953125
,55.7192155,2.6513671875
,55.7407793,2.67578125
,55.7460741,2.685546875
,55.7805491,2.685546875
,55.8017791,2.6708984375
,55.8087138,2.666015625
,55.8472386,2.6513671875
,55.8475608,2.6318359375
,55.8668911,2.6318359375
,55.8862289,2.6318359375
,55.9215277,2.6318359375
,55.9442095,2.6220703125
,55.9499755,2.626953125
,55.9688615,2.6123046875
,56.003006,2.6025390625
,56.0052841,2.587890625
,56.0511507,2.587890625
,56.0515695,2.578125
,56.0679241,2.568359375
,56.1040267,2.5537109375
,56.1082532,2.5439453125
,56.1426234,2.5390625
,56.1629596,2.51953125
,56.1670675,2.509765625
,56.2037273,2.490234375
,56.2055079,2.4951171875
,56.2422208,2.4853515625
,56.2471788,2.4853515625
,56.2971406,2.470703125
,56.2975495,2.470703125
,56.3093587,2.451171875
,56.3283943,2.451171875
,56.3465908,2.44140625
,56.381043,2.4609375
,56.3858389,2.48046875
,56.4201906,2.5244140625
,56.4410769,2.5537109375
,56.446456,2.6123046875
,56.4839177,2.6513671875
,56.4864279,2.67578125
,56.5210599,2.6904296875
,56.5416269,2.7001953125
,56.5513902,2.71484375
,56.5667823,2.705078125
,56.600977,2.71484375
,56.6060983,2.7001953125
,56.6536298,2.6953125
,56.6538862,2.6806640625
,56.6684636,2.67578125
,56.7156691,2.6611328125
,56.7160654,2.6611328125
,56.7274149,2.65625
,56.747356,2.666015625
,56.7668354,2.6708984375
,56.8032424,2.6611328125
,56.8074726,2.65625
,56.8431944,2.63671875
,56.8474012,2.626953125
,56.8821012,2.6025390625
,56.9021922,2.5927734375
,56.9077215,2.5634765625
,56.9269754,2.568359375
,56.9458053,2.548828125
,56.9927374,2.5439453125
,56.9930439,2.51953125
,57.0128545,2.5146484375
,57.0305774,2.5
,57.0699176,2.490234375
,57.0702119,2.4658203125
,57.0867492,2.4755859375
,57.1215502,2.470703125
,57.141259,2.4560546875
,57.1465441,2.451171875
,57.1803741,2.4365234375
,57.2013534,2.431640625
,57.2106441,2.4267578125
,57.257329,2.4462890625
,57.257608,2.48046875
,57.2706368,2.5341796875
,57.2892781,2.51953125
,57.308416,2.587890625
,57.3433002,2.6318359375
,57.3477559,2.685546875
,57.3822077,2.7001953125
,57.402267,2.724609375
,57.4100717,2.7392578125
,57.4308214,2.734375
,57.464677,2.7294921875
,57.4854588,2.71484375
,57.4880797,2.71484375
,57.524157,2.705078125
,57.5268176,2.7001953125
,57.5626045,2.6904296875
,57.5831986,2.6904296875
,57.5903017,2.67578125
,57.6255879,2.666015625
,57.6285885,2.6513671875
,57.6495213,2.65625
,57.6690635,2.6416015625
,57.7047336,2.626953125
,57.7094327,2.607421875
,57.7444851,2.6025390625
,57.7655004,2.59765625
,57.7706241,2.578125
,57.7914175,2.5634765625
,57.8076532,2.5390625
,57.8444618,2.5390625
,57.8482343,2.5244140625
,57.8954901,2.51953125
,57.8958933,2.5048828125
,57.909831,2.4951171875
,57.9448148,2.4755859375
,57.9650716,2.4658203125
,57.9680272,2.4462890625
,58.0033624,2.4462890625
,58.0234191,2.431640625
,58.0285835,2.431640625
,58.0641092,2.431640625
,58.0687406,2.4267578125
,58.1088105,2.44140625
,58.1091317,2.4658203125
,58.1449888,2.5146484375
,58.1721016,2.5537109375
,58.1724627,2.5537109375
,58.1888073,2.587890625
,58.2252739,2.63671875
,58.2300735,2.65625
,58.2666079,2.6904296875
,58.2691601,2.6953125
,58.3050543,2.7001953125
,58.3253145,2.685546875
,58.3322067,2.6806640625
,58.3502107,2.65625
,58.3680637,2.6611328125
,58.4040764,2.65625
,58.423184,2.646484375
,58.4299329,2.646484375
,58.4798961,2.63671875
,58.4802899,2.6318359375
,58.490918,2.6171875
,58.5243357,2.6123046875
,58.5452197,2.59765625
,58.5482817,2.5927734375
,58.5837923,2.578125
,58.5883851,2.5634765625
,58.6241298,2.548828125
,58.6443583,2.5390625
,58.6514335,2.51953125
,58.6854287,2.5048828125
,58.7052345,2.4951171875
,58.7098361,2.4755859375
,58.729672,2.4755859375
,58.7513944,2.470703125
,58.7699632,2.470703125
,58.8039109,2.4560546875
,58.8246377,2.451171875
,58.829452,2.4365234375
,58.8645352,2.4365234375
,58.8838171,2.421875
,58.889587,2.4267578125
,58.9115406,2.421875
,58.9280637,2.4462890625
,58.9635862,2.470703125
,58.9847441,2.509765625
,58.9909921,2.5341796875
,59.0255725,2.578125
,59.0458064,2.607421875
,59.0519905,2.6220703125
,59.0849992,2.6318359375
,59.1072252,2.6318359375
,59.1074706,2.63671875
,59.1538984,2.6318359375
,59.1541933,2.626953125
,59.175,2.607421875
,59.1932757,2.59765625
,59.2297115,2.5830078125
,59.2346683,2.578125
,59.2494403,2.578125
,59.2934156,2.59765625
,59.2936582,2.59765625
,59.3126904,2.5927734375
,59.3295802,2.59765625
,59.3636759,2.578125
,59.3831924,2.568359375
,59.3918552,2.5390625
,59.4252664,2.529296875
,59.4468562,2.509765625
,59.4516692,2.509765625
,59.4699093,2.490234375
,59.5088097,2.48046875
,59.528751,2.4658203125
,59.530818,2.4609375
,59.5635023,2.44140625
,59.5854745,2.4365234375
,59.5899252,2.421875
,59.6107985,2.431640625
,59.6474645,2.4267578125
,59.6499418,2.4267578125
,59.6943296,2.431640625
,59.6945488,2.421875
,59.7233421,2.421875
,59.7320552,2.421875
,59.7669221,2.44140625
,59.7870876,2.4755859375
,59.7920763,2.5390625
,59.8115208,2.529296875
,59.8323059,2.5927734375
,59.8519213,2.626953125
,59.8946735,2.6611328125
,59.8949724,2.67578125
,59.9128726,2.6953125
,59.9497714,2.6904296875
,59.9526694,2.685546875
,59.9999826,2.6708984375
,60.0005022,2.6513671875
,60.0203377,2.6513671875
,60.032271,2.6416015625
,60.0678467,2.646484375
,60.0705062,2.6318359375
,60.1083191,2.6318359375
,60.1370934,2.626953125
,60.1373846,2.6220703125
,60.1525541,2.6025390625
,60.2006193,2.607421875
,60.2009146,2.6025390625
,60.2093278,2.6025390625
,60.2449083,2.587890625
,60.2661142,2.5732421875
,60.2732139,2.5439453125
,60.3075018,2.5390625
,60.3276544,2.5244140625
,60.3296828,2.5
,60.3702976,2.4951171875
,60.3704926,2.48046875
,60.3903675,2.4755859375
,60.4318418,2.4658203125
,60.4320974,2.4609375
,60.4662197,2.44140625
,60.4861934,2.431640625
,60.4911108,2.4169921875
,60.5247345,2.4267578125
,60.5450218,2.4169921875
,60.5504707,2.4169921875
,60.5886989,2.4072265625
,60.6205627,2.421875
,60.6208117,2.4609375
,60.634049,2.5
,60.6831179,2.548828125
,60.6833555,2.587890625
,60.7138424,2.5927734375
,60.7141752,2.6318359375
,60.7329039,2.6806640625
,60.774831,2.705078125
,60.7750652,2.7294921875
,60.7938288,2.7294921875
,60.8297994,2.744140625
,60.8349605,2.7294921875
,60.8700052,2.724609375
,60.8702424,2.7099609375
,60.9161725,2.71484375
,60.916411,2.7099609375
,60.9323924,2.7197265625
,60.9669677,2.71484375
,60.9862801,2.7099609375
,60.9928088,2.7001953125
,61.0252705,2.6904296875
,61.0456496,2.67578125
,61.0508585,2.6513671875
,61.0851722,2.6416015625
,61.1061322,2.626953125
,61.1137606,2.6123046875
,61.1495763,2.5927734375
,61.1524241,2.578125
,61.1890772,2.5537109375
,61.1938518,2.5390625
,61.2124084,2.51953125
,61.2299049,2.51953125
,61.26433,2.5146484375
,61.2859599,2.5
,61.2932678,2.490234375
,61.3143249,2.470703125
,61.3333915,2.470703125
,61.3785072,2.451171875
,61.3787488,2.4462890625
,61.4070795,2.4365234375
,61.4121442,2.4658203125
,61.4541936,2.4951171875
,61.4544299,2.5439453125
,61.4750763,2.587890625
,61.5105188,2.646484375
,61.5146593,2.6806640625
,61.5624538,2.7197265625
,61.5627081,2.734375
,61.5773072,2.75390625
,61.598089,2.763671875
,61.6137814,2.75390625
,61.6500225,2.75390625
,61.6540291,2.744140625
,61.7020128,2.7294921875
,61.702421,2.71484375
,61.7141601,2.7099609375
,61.7490378,2.7001953125
,61.7696258,2.6904296875
,61.7699703,2.6806640625
,61.805488,2.685546875
,61.8262254,2.685546875
,61.8340053,2.7001953125
,61.8724562,2.6953125
,61.8727119,2.6953125
,61.9202591,2.685546875
,61.920559,2.6611328125
,61.9361984,2.6416015625
,61.9526975,2.607421875
,61.9876377,2.6025390625
,62.0076337,2.578125
,62.01264329999999,2.568359375
,62.061033300000005,2.5439453125
,62.061791299999996,2.5341796875
,62.0808531,2.509765625
,62.095368500000006,2.5048828125
,62.111391600000005,2.490234375
,62.145387,2.4853515625
,62.1649994,2.4755859375
,62.171952399999995,2.4658203125
,62.2074916,2.4462890625
,62.22798710000001,2.451171875
,62.2351159,2.451171875
,62.2750504,2.4609375
,62.2752892,2.4951171875
,62.294788499999996,2.529296875
,62.313467200000005,2.5927734375
,62.347900100000004,2.6416015625
,62.352534399999996,2.6953125
,62.398711500000005,2.724609375
,62.3989562,2.75390625
,62.4174189,2.7587890625
,62.435485299999996,2.763671875
,62.475689900000006,2.75390625
,62.476087699999994,2.744140625
,62.495802,2.724609375
,62.511845199999996,2.7197265625
,62.5458562,2.7197265625
,62.5661109,2.705078125
,62.5748842,2.7001953125
,62.609845500000006,2.6953125
,62.615185499999995,2.6953125
,62.651817300000005,2.6806640625
,62.679047600000004,2.6708984375
,62.679310400000006,2.6513671875
,62.6945877,2.6513671875
,62.729107600000006,2.63671875
,62.732872,2.6220703125
,62.7738918,2.59765625
,62.80641060000001,2.578125
,62.80682830000001,2.5537109375
,62.8159773,2.529296875
,62.8306522,2.5
,62.8661601,2.5048828125
,62.8857675,2.5
,62.8950904,2.48046875
,62.930424900000006,2.4755859375
,62.9373614,2.4609375
,62.97350659999999,2.451171875
,62.9780619,2.431640625
,62.996736799999994,2.4267578125
,63.014267000000004,2.412109375
,63.032959000000005,2.4267578125
,63.0674765,2.44140625
,63.0873428,2.48046875
,63.0967469,2.5146484375
,63.116671600000004,2.5732421875
,63.1361302,2.607421875
,63.170282,2.6416015625
,63.190498700000006,2.6708984375
,63.197040099999995,2.6708984375
,63.217459899999994,2.6318359375
,63.2345895,2.587890625
,63.268452800000006,2.6123046875
,63.2889273,2.6171875
,63.2954488,2.6220703125
,63.33176039999999,2.6171875
,63.3367468,2.6220703125
,63.3802079,2.6123046875
,63.38046370000001,2.6220703125
,63.39497179999999,2.6171875
,63.4415982,2.6318359375
,63.4418405,2.626953125
,63.454199200000005,2.626953125
,63.5049798,2.607421875
,63.505219999999994,2.607421875
,63.5365922,2.5927734375
,63.536848000000006,2.568359375
,63.5707048,2.548828125
,63.59062900000001,2.5244140625
,63.595187499999994,2.5244140625
,63.6304753,2.5048828125
,63.66040099999999,2.5
,63.660659499999994,2.4853515625
,63.6758275,2.48046875
,63.715242399999994,2.4658203125
,63.715639800000005,2.4462890625
,63.7344693,2.4267578125
,63.756109499999994,2.4267578125
,63.791162099999994,2.421875
,63.7951015,2.431640625
,63.8299332,2.4658203125
,63.85155949999999,2.490234375
,63.85621329999999,2.5439453125
,63.891952200000006,2.5927734375
,63.89926989999999,2.6708984375
,63.916208,2.7099609375
,63.949706500000005,2.7587890625
,63.95622830000001,2.783203125
,63.977287700000005,2.802734375
,64.0125999,2.7978515625
,64.0169166,2.802734375
,64.0515083,2.783203125
,64.0585356,2.7734375
,64.0787644,2.7490234375
,64.0983522,2.744140625
,64.1135916,2.724609375
,64.1464466,2.7392578125
,64.1672411,2.7392578125
,64.1768854,2.734375
,64.2181525,2.7294921875
,64.2185212,2.7197265625
,64.2552429,2.705078125
,64.2580686,2.6806640625
,64.2971038,2.6611328125
,64.2973531,2.6416015625
,64.3152777,2.626953125
,64.3592142,2.6025390625
,64.3594117,2.578125
,64.3763685,2.5537109375
,64.4196883,2.548828125
,64.4200451,2.529296875
,64.4396417,2.509765625
,64.4829477,2.5
,64.4833304,2.470703125
,64.4969155,2.470703125
,64.5166654,2.4560546875
,64.5575848,2.4462890625
,64.557826,2.431640625
,64.5789716,2.421875
,64.6150943,2.4169921875
,64.6197295,2.4267578125
,64.6351908,2.4462890625
,64.6813356,2.5146484375
,64.6815784,2.5732421875
,64.7013991,2.6416015625
,64.7159649,2.6953125
,64.750046,2.7490234375
,64.7712198,2.7783203125
,64.7778844,2.8173828125
,64.822647,2.841796875
,64.8229845,2.841796875
,64.8352976,2.8515625
,64.8848224,2.8466796875
,64.8850784,2.841796875
,64.8998378,2.83203125
,64.919277,2.8369140625
,64.9396794,2.822265625
,64.9786719,2.8173828125
,64.9790684,2.8076171875
,65.0150819,2.7978515625
,65.0392053,2.7783203125
,65.0394957,2.7783203125
,65.0585094,2.7587890625
,65.0753103,2.744140625
,65.1099586,2.724609375
,65.1297064,2.6904296875
,65.1379719,2.6611328125
,65.1745026,2.6318359375
,65.1955806,2.607421875
,65.1958569,2.578125
,65.2310333,2.5634765625
,65.2517406,2.5439453125
,65.256456,2.5244140625
,65.2901703,2.5
,65.3114397,2.4853515625
,65.3192323,2.4560546875
,65.3542224,2.4365234375
,65.3544746,2.4169921875
,65.3876605,2.4169921875
,65.4077114,2.4169921875
,65.4169574,2.451171875
,65.4504146,2.4951171875
,65.470546,2.5390625
,65.4777359,2.6025390625
,65.516469,2.65625
,65.5212324,2.7099609375
,65.5359327,2.744140625
,65.5829053,2.7880859375
,65.583219,2.8125
,65.6143845,2.8271484375
,65.6168252,2.8271484375
,65.6609088,2.8173828125
,65.6612323,2.802734375
,65.682147,2.7978515625
,65.6968829,2.783203125
,65.7213275,2.7783203125
,65.7416546,2.7197265625
,65.7567375,2.6708984375
,65.7993791,2.6904296875
,65.7996201,2.6953125
,65.8486345,2.6953125
,65.8490305,2.67578125
,65.8608876,2.65625
,65.8976311,2.6318359375
,65.9010409,2.6123046875
,65.9155782,2.578125
,65.9554704,2.5732421875
,65.9755803,2.548828125
,65.9781229,2.5341796875
,66.01316,2.5048828125
,66.0346274,2.4853515625
,66.039592,2.4560546875
,66.0816319,2.4462890625
,66.0819763,2.431640625
,66.0977349,2.40234375
,66.135447,2.3974609375
,66.13637,2.3828125
,66.1752907,2.3681640625
,66.2067458,2.3583984375
,66.2071693,2.3583984375
,66.2193594,2.34375
,66.2677338,2.333984375
,66.2679802,2.34375
,66.2758188,2.3876953125
,66.3143693,2.4365234375
,66.3186267,2.5048828125
,66.3611464,2.5634765625
,66.361405,2.626953125
,66.3960387,2.6904296875
,66.4000765,2.71484375
,66.4216159,2.744140625
,66.4373487,2.7490234375
,66.4729696,2.7783203125
,66.4780068,2.7734375
,66.5125853,2.7734375
,66.5333745,2.75390625
,66.5385874,2.744140625
,66.5789098,2.7197265625
,66.5793122,2.7197265625
,66.6121134,2.705078125
,66.6217956,2.6513671875
,66.6374842,2.6416015625
,66.6751577,2.6513671875
,66.6780102,2.6416015625
,66.7135107,2.646484375
,66.7181438,2.63671875
,66.7654952,2.6025390625
,66.7657764,2.5830078125
,66.7850321,2.55859375
,66.8026574,2.5341796875
,66.818319,2.5
,66.8600333,2.490234375
,66.8602791,2.4755859375
,66.8954019,2.4609375
,66.8999061,2.4365234375
,66.933969,2.4169921875
,66.9551606,2.392578125
,66.9613686,2.392578125
,66.9781215,2.3779296875
,67.0137346,2.3828125
,67.0343285,2.3974609375
,67.0390504,2.3974609375
,67.0723947,2.412109375
,67.0933009,2.431640625
,67.101011,2.48046875
,67.1368782,2.5146484375
,67.1413434,2.5634765625
,67.1571651,2.59765625
,67.1915935,2.6416015625
,67.2124644,2.6611328125
,67.2193891,2.685546875
,67.262686,2.6806640625
,67.2630686,2.67578125
,67.2929703,2.6611328125
,67.3019178,2.6416015625
,67.3181102,2.6220703125
,67.3553781,2.6220703125
,67.3585571,2.626953125
,67.3940826,2.6171875
,67.4178733,2.6171875
,67.4182146,2.59765625
,67.4542405,2.587890625
,67.4739594,2.5732421875
,67.4812762,2.568359375
,67.5144103,2.5390625
,67.5365653,2.5244140625
,67.5370198,2.4951171875
,67.5728082,2.490234375
,67.6008261,2.470703125
,67.60122,2.4658203125
,67.6482232,2.44140625
,67.6485068,2.4267578125
,67.663168,2.4169921875
,67.6833423,2.3974609375
,67.7194679,2.3828125
,67.7198838,2.36328125
,67.7562993,2.36328125
,67.7607958,2.353515625
,67.8023857,2.353515625
,67.8027289,2.34375
,67.8474743,2.34375
,67.8478167,2.353515625
,67.8624659,2.40234375
,67.8798115,2.4365234375
,67.9005044,2.5
,67.940543,2.548828125
,67.940782,2.59765625
,67.9623885,2.626953125
,67.9823874,2.6806640625
,68.0201919,2.7099609375
,68.0205969,2.71484375
,68.0545288,2.71484375
,68.0744827,2.7099609375
,68.07919,2.7099609375
,68.1141042,2.705078125
,68.1438575,2.7001953125
,68.1444709,2.6904296875
,68.1617259,2.6904296875
,68.1959688,2.67578125
,68.2034016,2.666015625
,68.2183435,2.6513671875
,68.2515731,2.65625
,68.2711352,2.646484375
,68.2803493,2.6318359375
,68.314709,2.6220703125
,68.3352675,2.5927734375
,68.3404166,2.5732421875
,68.3742468,2.5439453125
,68.3947121,2.5341796875
,68.4045558,2.5048828125
,68.4234849,2.490234375
,68.4384612,2.4609375
,68.4716539,2.4560546875
,68.4909985,2.44140625
,68.4999545,2.44140625
,68.5335966,2.421875
,68.5538524,2.412109375
,68.5631862,2.392578125
,68.6040706,2.3876953125
,68.6044717,2.3681640625
,68.620842,2.3779296875
,68.6551339,2.3828125
,68.6601158,2.392578125
,68.6963166,2.431640625
,68.7302556,2.470703125
,68.7306623,2.51953125
,68.7430434,2.568359375
,68.7782424,2.6220703125
,68.7785913,2.6611328125
,68.8144455,2.7001953125
,68.8382669,2.7294921875
,68.8403428,2.744140625
,68.8769244,2.7490234375
,68.881444,2.75390625
,68.9149724,2.7392578125
,68.9350011,2.724609375
,68.9445922,2.7197265625
,68.9593492,2.7001953125
,68.993838,2.705078125
,69.0141445,2.7001953125
,69.0221239,2.7099609375
,69.0729855,2.7001953125
,69.0732654,2.6953125
,69.0849798,2.6806640625
,69.1349373,2.6611328125
,69.1351905,2.63671875
,69.1430461,2.578125
,69.1779439,2.5634765625
,69.1831558,2.5634765625
,69.217497,2.548828125
,69.2217615,2.529296875
,69.2574387,2.509765625
,69.2617921,2.5048828125
,69.3047433,2.4951171875
,69.3049838,2.4755859375
,69.325139,2.4609375
,69.3421466,2.44140625
,69.3627085,2.4365234375
,69.4142336,2.4267578125
,69.4144887,2.4169921875
,69.4239468,2.3974609375
,69.4589531,2.3876953125
,69.4634353,2.373046875
,69.485533,2.36328125
,69.5023827,2.36328125
,69.5216963,2.3974609375
,69.557391,2.4365234375
,69.5812034,2.4951171875
,69.5816462,2.55859375
,69.6306493,2.59765625
,69.6310399,2.63671875
,69.6606164,2.6611328125
,69.6650442,2.6904296875
,69.6792869,2.7001953125
,69.715822,2.7197265625
,69.739658,2.71484375
,69.7419841,2.7099609375
,69.7766655,2.6953125
,69.7820948,2.6904296875
,69.8164691,2.6708984375
,69.8365122,2.6611328125
,69.8426896,2.6513671875
,69.8622831,2.65625
,69.8823124,2.646484375
,69.9168779,2.6513671875
,69.9472495,2.63671875
,69.9476528,2.6123046875
,69.9632317,2.6025390625
,69.9845546,2.578125
,70.0256452,2.5537109375
,70.0260483,2.5341796875
,70.0475241,2.5244140625
,70.0612503,2.5146484375
,70.0964402,2.5146484375
,70.1195388,2.5
,70.1228297,2.490234375
,70.1628597,2.4755859375
,70.1648773,2.470703125
,70.2010291,2.4462890625
,70.2076314,2.4365234375
,70.2264527,2.4267578125
,70.2431473,2.40234375
,70.2777643,2.3974609375
,70.2820339,2.392578125
,70.3165333,2.3974609375
,70.3366224,2.3828125
,70.3431183,2.3828125
,70.3783898,2.3828125
,70.409665,2.4169921875
,70.4099083,2.44140625
,70.4233418,2.5
,70.4564403,2.5390625
,70.4776716,2.5927734375
,70.4826455,2.6220703125
,70.5166666,2.646484375
,70.5370694,2.6513671875
,70.543823,2.6708984375
,70.5805868,2.6708984375
,70.5808265,2.65625
,70.6263721,2.65625
,70.6266082,2.6416015625
,70.6472394,2.63671875
,70.6628823,2.626953125
,70.7041166,2.626953125
,70.7044396,2.6220703125
,70.7256863,2.6220703125
,70.742853,2.6123046875
,70.7810206,2.6123046875
,70.7814073,2.6025390625
,70.8152192,2.6025390625
,70.8350954,2.5830078125
,70.8449746,2.5634765625
,70.8791075,2.55859375
,70.8834936,2.5341796875
,70.9207859,2.51953125
,70.9549985,2.490234375
,70.9554686,2.48046875
,70.9626854,2.4560546875
,70.9985323,2.4560546875
,71.0331308,2.44140625
,71.0335322,2.4365234375
,71.0450183,2.421875
,71.0961029,2.4267578125
,71.0965221,2.4169921875
,71.1059441,2.412109375
,71.1236915,2.3974609375
,71.1589118,2.4072265625
,71.1632555,2.4169921875
,71.1976056,2.4609375
,71.2181405,2.5048828125
,71.223214,2.5439453125
,71.257184,2.59765625
,71.2784061,2.63671875
,71.2859071,2.6708984375
,71.3036436,2.6904296875
,71.3392254,2.724609375
,71.3446417,2.7392578125
,71.3787294,2.7490234375
,71.3838557,2.7392578125
,71.4177616,2.7294921875
,71.438608,2.705078125
,71.4473255,2.6953125
,71.4633196,2.6806640625
,71.5149997,2.685546875
,71.5153899,2.6904296875
,71.5231899,2.67578125
,71.5614262,2.67578125
,71.5925213,2.6611328125
,71.5929243,2.6611328125
,71.6064713,2.6416015625
,71.6529891,2.6220703125
,71.653385,2.5927734375
,71.6726375,2.529296875
,71.6815076,2.4658203125
,71.7304254,2.48046875
,71.7306784,2.470703125
,71.7519075,2.4755859375
,71.766576,2.4658203125
,71.8012357,2.4560546875
,71.8066768,2.44140625
,71.854667,2.44140625
,71.8550657,2.431640625
,71.8851937,2.412109375
,71.8855324,2.412109375
,71.9067756,2.40234375
,71.9408973,2.3974609375
,71.9463147,2.3828125
,71.9819305,2.3779296875
,71.9871869,2.373046875
,72.0070732,2.3828125
,72.0222754,2.40234375
,72.0599828,2.4609375
,72.0638276,2.51953125
,72.0981022,2.6025390625
,72.1207694,2.65625
,72.1280913,2.705078125
,72.1465766,2.744140625
,72.1939746,2.763671875
,72.1942369,2.783203125
,72.203308,2.7880859375
,72.2412113,2.7978515625
,72.2462952,2.79296875
,72.281586,2.783203125
,72.2861974,2.763671875
,72.3073184,2.75390625
,72.3270072,2.734375
,72.3657215,2.734375
,72.3661262,2.724609375
,72.4137406,2.7294921875
,72.4141365,2.724609375
,72.4259082,2.7099609375
,72.4461646,2.685546875
,72.4819581,2.67578125
,72.4858888,2.6611328125
,72.5218343,2.6318359375
,72.526431,2.6123046875
,72.5602902,2.5732421875
,72.5803423,2.548828125
,72.5849395,2.5244140625
,72.6286418,2.51953125
,72.6289853,2.509765625
,72.650134,2.4951171875
,72.6661848,2.4755859375
,72.703031,2.4560546875
,72.7227143,2.4365234375
,72.7307057,2.4267578125
,72.7433092,2.4072265625
,72.7871984,2.40234375
,72.787629,2.40234375
,72.8220397,2.3828125
,72.8278332,2.373046875
,72.8639268,2.373046875
,72.8691742,2.40234375
,72.8889745,2.431640625
,72.9268781,2.4755859375
,72.9273026,2.51953125
,72.9459668,2.587890625
,72.9833305,2.626953125
,72.9862177,2.6708984375
,73.0297399,2.6904296875
,73.0301361,2.71484375
,73.0633984,2.71484375
,73.0678821,2.7197265625
,73.0839884,2.7001953125
,73.1066578,2.71484375
,73.1542051,2.71484375
,73.1546255,2.7001953125
,73.1662307,2.7001953125
,73.2014945,2.685546875
,73.2061773,2.6806640625
,73.2483255,2.6708984375
,73.2490444,2.6611328125
,73.2797294,2.646484375
,73.2850047,2.6416015625
,73.3060795,2.6220703125
,73.3414164,2.6025390625
,73.3468004,2.578125
,73.3814631,2.568359375
,73.4022664,2.5439453125
,73.4091298,2.5244140625
,73.429695,2.5048828125
,73.4490888,2.4755859375
,73.4703328,2.4609375
,73.4843826,2.4365234375
,73.5278556,2.4365234375
,73.5280952,2.421875
,73.546374,2.4169921875
,73.5824576,2.3974609375
,73.6030694,2.392578125
,73.6106917,2.373046875
,73.6286748,2.3681640625
,73.646578,2.3486328125
,73.6958287,2.3583984375
,73.6961328,2.353515625
,73.7081986,2.3681640625
,73.7586411,2.3779296875
,73.7590552,2.4267578125
,73.7688575,2.4755859375
,73.8206989,2.51953125
,73.8209381,2.5634765625
,73.8257863,2.587890625
,73.8606657,2.626953125
,73.8809225,2.646484375
,73.8853914,2.6708984375
,73.919192,2.666015625
,73.9401155,2.6611328125
,73.9482536,2.6416015625
,73.9835032,2.626953125
,73.9839066,2.607421875
,74.0203722,2.6123046875
,74.0543601,2.6025390625
,74.0547755,2.607421875
,74.0661257,2.607421875
,74.11496,2.6025390625
,74.1152074,2.5927734375
,74.128201,2.5830078125
,74.1626465,2.587890625
,74.1831392,2.578125
,74.1908313,2.578125
,74.2061058,2.5048828125
,74.2550247,2.5146484375
,74.2556144,2.5
,74.2762034,2.5048828125
,74.2892112,2.48046875
,74.3336024,2.48046875
,74.3339255,2.4609375
,74.3508067,2.451171875
,74.3663143,2.4267578125
,74.4011252,2.44140625
,74.4215349,2.44140625
,74.4283321,2.4267578125
,74.4498458,2.4169921875
,74.4884133,2.412109375
,74.4888753,2.40234375
,74.5227309,2.392578125
,74.5441214,2.40234375
,74.5458671,2.421875
,74.5979288,2.470703125
,74.5983473,2.5048828125
,74.6080111,2.548828125
,74.6457825,2.578125
,74.647803,2.6123046875
,74.680528,2.6318359375
,74.7037611,2.646484375
,74.7099599,2.6513671875
,74.7253354,2.63671875
,74.7580568,2.63671875
,74.7795598,2.6220703125
,74.7871406,2.6171875
,74.8215873,2.6025390625
,74.8434752,2.5927734375
,74.8498516,2.5830078125
,74.8852357,2.578125
,74.9038244,2.5634765625
,74.906518,2.578125
,74.9394017,2.5732421875
,74.9605706,2.568359375
,74.9694444,2.55859375
,74.9893227,2.548828125
,75.0244635,2.5244140625
,75.0287546,2.5146484375
,75.0643351,2.5
,75.0847594,2.4755859375
,75.0929801,2.4609375
,75.1088822,2.4462890625
,75.1582033,2.4365234375
,75.1586065,2.431640625
,75.1703479,2.4365234375
,75.205332,2.431640625
,75.20976,2.4267578125
,75.2444423,2.412109375
,75.2640695,2.4072265625
,75.2683423,2.392578125
,75.3110452,2.40234375
,75.3112834,2.3974609375
,75.3294078,2.412109375
,75.3501412,2.4365234375
,75.3852136,2.4658203125
,75.3897529,2.5146484375
,75.4249363,2.5537109375
,75.4449531,2.6025390625
,75.4468262,2.6318359375
,75.4798972,2.6708984375
,75.5016833,2.6904296875
,75.5108297,2.7099609375
,75.546447,2.71484375
,75.5512319,2.71484375
,75.5913966,2.705078125
,75.591644,2.7001953125
,75.6066189,2.6806640625
,75.6543318,2.67578125
,75.6546456,2.666015625
,75.6738034,2.67578125
,75.6891595,2.67578125
,75.7220081,2.666015625
,75.7446583,2.65625
,75.7514473,2.63671875
,75.7932873,2.6220703125
,75.7935822,2.6025390625
,75.8091924,2.5927734375
,75.8284339,2.578125
,75.8511605,2.5634765625
,75.9020525,2.5390625
,75.9023135,2.51953125
,75.9123706,2.5
,75.9467672,2.490234375
,75.9512869,2.4755859375
,75.9846922,2.4658203125
,76.0048795,2.4560546875
,76.0092504,2.431640625
,76.0452515,2.431640625
,76.0699959,2.4169921875
,76.0701966,2.4169921875
,76.1031603,2.3974609375
,76.1246855,2.392578125
,76.1336337,2.373046875
,76.1534543,2.373046875
,76.1682756,2.36328125
,76.2028156,2.4072265625
,76.2236045,2.4365234375
,76.2299135,2.490234375
,76.2524372,2.5439453125
,76.271887,2.59765625
,76.2902502,2.6318359375
,76.3242634,2.6708984375
,76.3451089,2.6953125
,76.3476197,2.7001953125
,76.3815782,2.7197265625
,76.4039877,2.7294921875
,76.4109789,2.724609375
,76.4443843,2.71484375
,76.4642321,2.7099609375
,76.4720358,2.6953125
,76.5061786,2.6904296875
,76.5264807,2.67578125
,76.5291514,2.67578125
,76.5641733,2.67578125
,76.56809,2.6806640625
,76.602979,2.666015625
,76.6234091,2.65625
,76.6312511,2.6416015625
,76.6661443,2.6171875
,76.6860006,2.6025390625
,76.6878504,2.578125
,76.7239964,2.578125
,76.744058,2.5
,76.7493349,2.509765625
,76.7845525,2.5048828125
,76.8050958,2.5048828125
,76.8135703,2.490234375
,76.8484343,2.4853515625
,76.8550031,2.4658203125
,76.8744319,2.4609375
,76.8898585,2.44140625
,76.9241945,2.4365234375
,76.9441852,2.421875
,76.9507802,2.4267578125
,76.9983382,2.421875
,76.9985789,2.4072265625
,77.0187395,2.40234375
,77.0314531,2.40234375
,77.0664557,2.421875
,77.0865879,2.451171875
,77.0889801,2.509765625
,77.1397003,2.55859375
,77.1399388,2.6025390625
,77.1714505,2.6318359375
,77.171748,2.65625
,77.2164448,2.666015625
,77.2167513,2.6904296875
,77.2374861,2.685546875
,77.2507996,2.7001953125
,77.2854826,2.705078125
,77.3089427,2.6904296875
,77.3091838,2.6806640625
,77.3560731,2.6708984375
,77.3563318,2.6708984375
,77.3740061,2.65625
,77.4098069,2.65625
,77.4102194,2.6416015625
,77.4487096,2.646484375
,77.4491151,2.6416015625
,77.4731663,2.63671875
,77.4922609,2.6171875
,77.5420846,2.6025390625
,77.5423412,2.578125
,77.5524191,2.55859375
,77.5743246,2.5341796875
,77.5953922,2.48046875
,77.6157655,2.4365234375
,77.6311823,2.431640625
,77.6817396,2.44140625
,77.6821065,2.4462890625
,77.6929026,2.4462890625
,77.7434716,2.44140625
,77.743789,2.44140625
,77.7540529,2.431640625
,77.7864072,2.4267578125
,77.8078614,2.412109375
,77.8095801,2.412109375
,77.846922,2.40234375
,77.8679134,2.412109375
,77.8724796,2.421875
,77.9091568,2.4560546875
,77.9129934,2.4951171875
,77.9461413,2.5244140625
,77.9666142,2.5634765625
,77.9705948,2.587890625
,77.9931454,2.6318359375
,78.0271823,2.646484375
,78.0325036,2.6611328125
,78.0663003,2.65625
,78.0878713,2.65625
,78.0931625,2.63671875
,78.1290667,2.626953125
,78.1293075,2.607421875
,78.1494079,2.6123046875
,78.1961509,2.6025390625
,78.196389,2.6025390625
,78.2272619,2.59765625
,78.2328397,2.626953125
,78.2663291,2.6318359375
,78.288152,2.6318359375
,78.2944558,2.6220703125
,78.3101226,2.6123046875
,78.3431498,2.6025390625
,78.3654623,2.587890625
,78.3709881,2.578125
,78.4048675,2.55859375
,78.4251756,2.5439453125
,78.4328712,2.5244140625
,78.4748742,2.5048828125
,78.4751913,2.490234375
,78.4951618,2.48046875
,78.5113572,2.4658203125
,78.5463166,2.4560546875
,78.5678306,2.4609375
,78.5746983,2.4462890625
,78.5936012,2.44140625
,78.6432565,2.4267578125
,78.6435353,2.4267578125
,78.6538401,2.4169921875
,78.6895073,2.431640625
,78.7227444,2.4462890625
,78.7231831,2.4951171875
,78.7321449,2.5244140625
,78.7674132,2.5732421875
,78.7720236,2.59765625
,78.8053732,2.626953125
,78.8258699,2.6318359375
,78.8365995,2.6416015625
,78.8518153,2.626953125
,78.8914384,2.63671875
,78.8916823,2.6318359375
,78.9127756,2.6171875
,78.9324206,2.607421875
,78.9666473,2.5927734375
,78.9883377,2.5927734375
,78.9952089,2.587890625
,79.0312374,2.587890625
,79.0314998,2.578125
,79.07752,2.5830078125
,79.077952,2.578125
,79.0954696,2.5732421875
,79.1145591,2.55859375
,79.1498746,2.548828125
,79.15573,2.529296875
,79.190274,2.5244140625
,79.1952751,2.51953125
,79.213951,2.4951171875
,79.2487754,2.490234375
,79.2534562,2.48046875
,79.2733191,2.48046875
,79.3126108,2.470703125
,79.3133056,2.4658203125
,79.359537,2.4462890625
,79.3598132,2.4365234375
,79.389985,2.421875
,79.3949859,2.4169921875
,79.4134116,2.40234375
,79.4506642,2.412109375
,79.4509158,2.4267578125
,79.4957978,2.4560546875
,79.4961257,2.4853515625
,79.5157287,2.5390625
,79.5586987,2.5830078125
,79.5591039,2.6123046875
,79.596913,2.646484375
,79.5972885,2.6611328125
,79.613601,2.6904296875
,79.6495315,2.6904296875
,79.6535966,2.7001953125
,79.6979924,2.6904296875
,79.6983173,2.6904296875
,79.716001,2.6708984375
,79.7579094,2.6611328125
,79.7582705,2.646484375
,79.7733294,2.666015625
,79.8210321,2.666015625
,79.8212886,2.666015625
,79.8356526,2.67578125
,79.8846224,2.666015625
,79.8849073,2.6611328125
,79.8955817,2.6416015625
,79.9300128,2.6318359375
,79.9494372,2.607421875
,79.9543352,2.59765625
,79.9891068,2.578125
,79.9933896,2.568359375
,80.0281399,2.5439453125
,80.0488927,2.5341796875
,80.0554921,2.5146484375
,80.0888922,2.5048828125
,80.1095181,2.490234375
,80.1159007,2.431640625
,80.1328881,2.3779296875
,80.1706429,2.4072265625
,80.1746701,2.421875
,80.2097035,2.421875
,80.2142508,2.421875
,80.2476866,2.4169921875
,80.2683513,2.412109375
,80.2774006,2.421875
,80.3273424,2.4560546875
,80.327992,2.490234375
,80.3475854,2.548828125
,80.3549733,2.6025390625
,80.4053871,2.6611328125
,80.4058472,2.7001953125
,80.4154371,2.734375
,80.4661409,2.75390625
,80.4666692,2.7685546875
,80.4796137,2.7880859375
,80.4942354,2.7734375
,80.5439719,2.7734375
,80.5443641,2.763671875
,80.55484,2.763671875
,80.5906326,2.75390625
,80.6204928,2.7490234375
,80.6208094,2.734375
,80.6364502,2.734375
,80.6553415,2.7197265625
,80.6730233,2.724609375
,80.7153692,2.71484375
,80.7156098,2.705078125
,80.7442844,2.685546875
,80.7557673,2.6708984375
,80.7915878,2.6416015625
,80.8119603,2.63671875
,80.8173514,2.6123046875
,80.8318548,2.587890625
,80.8677358,2.5732421875
,80.9010095,2.5634765625
,80.9012555,2.548828125
,80.9170407,2.5341796875
,80.9631856,2.51953125
,80.9634277,2.5
,80.9768824,2.48046875
,81.0118805,2.4609375
,81.0164767,2.451171875
,81.0574868,2.4267578125
,81.0578288,2.431640625
,81.0750821,2.421875
,81.0974699,2.4169921875
,81.134987,2.421875
,81.1378419,2.4169921875
,81.1725914,2.4462890625
,81.1783328,2.4755859375
,81.2142834,2.5341796875
,81.2146443,2.5732421875
,81.2590837,2.626953125
,81.2594171,2.6611328125
,81.2892644,2.705078125
,81.2963805,2.71484375
,81.3352906,2.734375
,81.3422126,2.734375
,81.3561867,2.734375
,81.3917925,2.71484375
,81.3964552,2.71484375
,81.4318437,2.7001953125
,81.4344084,2.7001953125
,81.4774972,2.6953125
,81.4779004,2.6806640625
,81.5071116,2.67578125
,81.5180639,2.6611328125
,81.5522632,2.6513671875
,81.5525031,2.6318359375
,81.5882625,2.63671875
,81.6092863,2.626953125
,81.616123,2.6123046875
,81.652421,2.587890625
,81.6586497,2.5732421875
,81.7065079,2.548828125
,81.7068461,2.529296875
,81.7156384,2.5048828125
,81.7520775,2.4951171875
,81.7582204,2.490234375
,81.7771627,2.4755859375
,81.7967012,2.4658203125
,81.8318095,2.451171875
,81.8360074,2.44140625
,81.8709822,2.4267578125
,81.8939854,2.4169921875
,81.8969976,2.40234375
,81.9318291,2.392578125
,81.9524101,2.3681640625
,81.9548217,2.373046875
,82.0194962,2.373046875
,82.0197855,2.392578125
,82.0199625,2.421875
,82.0972167,2.4609375
,82.0974145,2.5
,82.0975353,2.55859375
,82.0976525,2.607421875
,82.1317962,2.626953125
,82.1361733,2.6513671875
,82.1727611,2.6611328125
,82.1767697,2.67578125
,82.2125581,2.666015625
,82.2166851,2.65625
,82.2510644,2.63671875
,82.2727434,2.6220703125
,82.2730778,2.607421875
,82.3104861,2.607421875
,82.3425807,2.6025390625
,82.3434754,2.6171875
,82.3562915,2.6171875
,82.3907029,2.6171875
,82.4106608,2.6220703125
,82.4187405,2.607421875
,82.4628746,2.5927734375
,82.4631161,2.5732421875
,82.4830537,2.578125
,82.4966458,2.5537109375
,82.5402518,2.5439453125
,82.5406514,2.5244140625
,82.5590291,2.5146484375
,82.5957389,2.5
,82.5987227,2.4951171875
,82.6147018,2.4658203125
,82.666142,2.470703125
,82.6665334,2.3974609375
,82.6974679,2.4169921875
,82.6978657,2.412109375
,82.7346047,2.421875
,82.7392141,2.412109375
,82.7746062,2.4072265625
,82.7772875,2.412109375
,82.8203771,2.4267578125
,82.8207714,2.4462890625
,82.8407896,2.4755859375
,82.8579526,2.529296875
,82.8936855,2.5732421875
,82.896315,2.607421875
,82.9442479,2.6220703125
,82.9446415,2.6318359375
,82.9630436,2.626953125
,82.9959114,2.626953125
,82.9961517,2.607421875
,83.0355823,2.59765625
,83.0359063,2.59765625
,83.0701896,2.587890625
,83.0903716,2.5830078125
,83.096964,2.5732421875
,83.1455783,2.578125
,83.1458944,2.568359375
,83.1775867,2.568359375
,83.1780058,2.55859375
,83.2126736,2.5634765625
,83.2180667,2.5537109375
,83.2530122,2.5537109375
,83.2581674,2.5341796875
,83.2939329,2.529296875
,83.2988265,2.5048828125
,83.3345226,2.490234375
,83.3543571,2.4609375
,83.3572935,2.4755859375
,83.3926826,2.4853515625
,83.3973095,2.470703125
,83.4326724,2.4658203125
,83.4367649,2.451171875
,83.4882861,2.44140625
,83.4887152,2.4267578125
,83.5183439,2.421875
,83.5187432,2.40234375
,83.5417434,2.353515625
,83.5585153,2.373046875
,83.5799476,2.421875
,83.5992613,2.4658203125
,83.6418936,2.5244140625
,83.6421421,2.568359375
,83.6737849,2.6123046875
,83.6783197,2.65625
,83.7193694,2.6708984375
,83.7196081,2.685546875
,83.7391572,2.6806640625
,83.7809269,2.7001953125
,83.7811653,2.6904296875
,83.8164848,2.685546875
,83.819518,2.6708984375
,83.8534857,2.6611328125
,83.8758928,2.6513671875
,83.8813065,2.65625
,83.8973047,2.646484375
,83.9348602,2.65625
,83.9374918,2.65625
,83.972676,2.65625
,83.9790812,2.6513671875
,84.0136144,2.646484375
,84.0346224,2.63671875
,84.0408112,2.607421875
,84.0757822,2.5927734375
,84.0760398,2.578125
,84.1094785,2.5732421875
,84.1302396,2.55859375
,84.1378303,2.548828125
,84.1717727,2.5341796875
,84.1926121,2.5244140625
,84.2019999,2.509765625
,84.2368707,2.5
,84.237216,2.48046875
,84.2716171,2.4853515625
,84.2934513,2.4755859375
,84.299057,2.4658203125
,84.339991,2.470703125
,84.3403344,2.4658203125
,84.3743987,2.490234375
,84.3799902,2.5244140625
,84.4130716,2.5830078125
,84.4338578,2.6220703125
,84.4410324,2.666015625
,84.4573511,2.6953125
,84.4945765,2.734375
,84.5234234,2.7490234375
,84.5237681,2.7685546875
,84.5407457,2.7685546875
,84.5868137,2.7685546875
,84.5870705,2.7490234375
,84.6028393,2.7392578125
,84.6195384,2.71484375
,84.6397427,2.724609375
,84.6586508,2.724609375
,84.6945985,2.7197265625
,84.6992313,2.71484375
,84.7342156,2.7001953125
,84.7532912,2.7001953125
,84.7621591,2.685546875
,84.7966963,2.6806640625
,84.7971058,2.65625
,84.8298109,2.6416015625
,84.849588,2.6220703125
,84.8615651,2.607421875
,84.8819582,2.587890625
,84.9170689,2.5732421875
,84.9195599,2.548828125
,84.95919,2.5341796875
,84.9637075,2.529296875
,84.9786684,2.5048828125
,84.999927,2.5
,85.0526602,2.4853515625
,85.0530746,2.4755859375
,85.0605899,2.4560546875
,85.0954087,2.4462890625
,85.0995572,2.4267578125
,85.1348598,2.4169921875
,85.1612264,2.40234375
,85.1614655,2.421875
,85.1967134,2.373046875
,85.2024999,2.4267578125
,85.2196678,2.470703125
,85.269521,2.5341796875
,85.2699446,2.578125
,85.2828185,2.6318359375
,85.3022317,2.6611328125
,85.3400322,2.6806640625
,85.3433429,2.6953125
,85.3604641,2.7001953125
,85.395747,2.7099609375
,85.4021326,2.7099609375
,85.4365142,2.7099609375
,85.439075,2.7001953125
,85.4734366,2.6953125
,85.4931401,2.685546875
,85.502961,2.67578125
,85.5200294,2.6611328125
,85.5619893,2.666015625
,85.5623113,2.65625
,85.5971762,2.6513671875
,85.6015481,2.646484375
,85.6412425,2.6220703125
,85.6698114,2.607421875
,85.670208,2.587890625
,85.6829113,2.5830078125
,85.6996666,2.548828125
,85.734545,2.548828125
,85.7630184,2.529296875
,85.7633266,2.51953125
,85.7816992,2.5
,85.8190796,2.490234375
,85.8212409,2.4658203125
,85.8577831,2.4560546875
,85.8772175,2.4365234375
,85.8798866,2.4365234375
,85.913994,2.421875
,85.9190841,2.4267578125
,85.9538898,2.4267578125
,85.9728766,2.421875
,85.9825601,2.44140625
,86.0186072,2.4560546875
,86.0210081,2.4951171875
,86.0436224,2.529296875
,86.0783194,2.5244140625
,86.0984731,2.568359375
,86.1005799,2.6123046875
,86.1371329,2.6318359375
,86.1413988,2.65625
,86.1758674,2.65625
,86.1959352,2.6611328125
,86.2025788,2.6416015625
,86.2372255,2.63671875
,86.257917,2.626953125
,86.2585242,2.6123046875
,86.2928093,2.6123046875
,86.3125873,2.607421875
,86.3237174,2.6123046875
,86.3692797,2.607421875
,86.3696984,2.607421875
,86.3835492,2.59765625
,86.4304288,2.587890625
,86.4313371,2.568359375
,86.4388335,2.5830078125
,86.4736398,2.5830078125
,86.4935109,2.5830078125
,86.5032855,2.568359375
,86.5370935,2.5537109375
,86.5442918,2.5341796875
,86.5843663,2.529296875
,86.5846124,2.5146484375
,86.6005714,2.4853515625
,86.634302,2.48046875
,86.6542993,2.4658203125
,86.660999,2.4658203125
,86.7075546,2.4462890625
,86.7079997,2.44140625
,86.724019,2.4267578125
,86.7607947,2.4267578125
,86.7612018,2.4267578125
,86.7996257,2.4658203125
,86.8012555,2.4951171875
,86.8353233,2.5439453125
,86.8554801,2.568359375
,86.8623986,2.607421875
,86.907645,2.63671875
,86.9078847,2.646484375
,86.9283323,2.6513671875
,86.9453188,2.65625
,86.9864952,2.65625
,86.9868566,2.6318359375
,87.0173583,2.626953125
,87.0224782,2.6123046875
,87.055899,2.6123046875
,87.0784821,2.59765625
,87.0853174,2.6025390625
,87.1247298,2.5830078125
,87.1249811,2.587890625
,87.1427536,2.5732421875
,87.1625108,2.5830078125
,87.1980594,2.5732421875
,87.200274,2.5732421875
,87.2352112,2.5634765625
,87.2574979,2.548828125
,87.2631941,2.5341796875
,87.3097311,2.51953125
,87.3099839,2.5
,87.3192353,2.4755859375
,87.3560829,2.4755859375
,87.376431,2.4658203125
,87.3841225,2.4609375
,87.4032874,2.44140625
,87.4404651,2.431640625
,87.4648019,2.4169921875
,87.4652145,2.4267578125
,87.4810328,2.4169921875
,87.5270325,2.4267578125
,87.5274165,2.4462890625
,87.5437203,2.4609375
,87.5643184,2.5
,87.5826065,2.5244140625
,87.6209498,2.5732421875
,87.6524241,2.6025390625
,87.652765,2.63671875
,87.6598759,2.65625
,87.6970289,2.685546875
,87.7169348,2.6953125
,87.7219179,2.705078125
,87.7563111,2.6953125
,87.7769448,2.6953125
,87.7854855,2.67578125
,87.8037917,2.6611328125
,87.8393808,2.646484375
,87.8597728,2.646484375
,87.8671779,2.646484375
,87.8839194,2.6318359375
,87.9326889,2.63671875
,87.932945,2.6318359375
,87.9446094,2.6318359375
,87.9955527,2.6220703125
,87.9957877,2.6123046875
,88.0032897,2.5927734375
,88.0420047,2.578125
,88.0423955,2.55859375
,88.0718141,2.548828125
,88.0834586,2.5390625
,88.1350565,2.529296875
,88.1354483,2.5048828125
,88.1455949,2.5048828125
,88.165137,2.4951171875
,88.2100533,2.4658203125
,88.2102944,2.4560546875
,88.2224723,2.431640625
,88.2443652,2.4365234375
,88.2794249,2.4267578125
,88.2844544,2.421875
,88.3204925,2.412109375
,88.3244054,2.412109375
,88.3596831,2.412109375
,88.3640091,2.4365234375
,88.381182,2.4609375
,88.4280186,2.509765625
,88.4282583,2.55859375
,88.4433634,2.607421875
,88.4648923,2.63671875
,88.4852536,2.685546875
,88.5200075,2.7099609375
,88.5243596,2.7197265625
,88.5666902,2.7294921875
,88.5669926,2.7197265625
,88.5874093,2.6708984375
,88.6038575,2.6171875
,88.6403254,2.6416015625
,88.6453116,2.6513671875
,88.6938037,2.6611328125
,88.6940605,2.6611328125
,88.7063694,2.6611328125
,88.7399372,2.6513671875
,88.7457671,2.65625
,88.7626024,2.6416015625
,88.7995963,2.6416015625
,88.8047503,2.6416015625
,88.8396844,2.626953125
,88.8438683,2.6171875
,88.8807238,2.5927734375
,88.9091607,2.5732421875
,88.9094188,2.548828125
,88.927788,2.51953125
,88.9429053,2.5048828125
,88.9805907,2.5048828125
,88.9853596,2.490234375
,89.0062128,2.48046875
,89.0248957,2.4658203125
,89.0615668,2.4560546875
,89.0661309,2.44140625
,89.1010685,2.4267578125
,89.1211532,2.412109375
,89.1214059,2.4169921875
,89.1570926,2.421875
,89.1786437,2.431640625
,89.1840466,2.4560546875
,89.2179836,2.4951171875
,89.2401457,2.5390625
,89.2474932,2.5732421875
,89.2680195,2.6171875
,89.2834199,2.6318359375
,89.3170254,2.6611328125
,89.3389698,2.67578125
,89.3435192,2.6806640625
,89.3902009,2.67578125
,89.3904424,2.666015625
,89.4223483,2.646484375
,89.4272777,2.6318359375
,89.4481936,2.6318359375
,89.4681967,2.6123046875
,89.5023501,2.6123046875
,89.502777,2.6025390625
,89.536146,2.6220703125
,89.556647,2.6220703125
,89.5672427,2.6220703125
,89.6019565,2.607421875
,89.6083339,2.6025390625
,89.6277002,2.578125
,89.6678124,2.568359375
,89.6682117,2.5390625
,89.685182,2.5341796875
,89.7191598,2.51953125
,89.7243668,2.509765625
,89.7768875,2.4853515625
,89.7772808,2.4853515625
,89.8060062,2.4658203125
,89.8062684,2.451171875
,89.8407747,2.44140625
,89.8612345,2.421875
,89.8632905,2.4169921875
,89.8959711,2.412109375
,89.916115,2.4072265625
,89.9266475,2.40234375
,89.9769561,2.4072265625
,89.9772152,2.412109375
,89.9882778,2.4365234375
,90.0028742,2.4609375
,90.0377635,2.5146484375
,90.0582575,2.5537109375
,90.0652246,2.5927734375
,90.0865878,2.6220703125
,90.1067642,2.6318359375
,90.1264283,2.646484375
,90.1610701,2.6416015625
,90.1664761,2.63671875
,90.1999711,2.6171875
,90.2056076,2.6123046875
,90.241694,2.6025390625
,90.2470395,2.6025390625
,90.2821905,2.5927734375
,90.2848522,2.5927734375
,90.3200228,2.5830078125
,90.3401817,2.5830078125
,90.3481452,2.5732421875
,90.3694294,2.568359375
,90.3849723,2.5439453125
,90.4270845,2.548828125
,90.4273226,2.5439453125
,90.4590733,2.529296875
,90.4673874,2.5146484375
,90.503927,2.4951171875
,90.5263372,2.48046875
,90.5265867,2.4658203125
,90.568124,2.4658203125
,90.5684301,2.4560546875
,90.585447,2.4609375
,90.6175665,2.4560546875
,90.6395153,2.4560546875
,90.6489863,2.4462890625
,90.6681941,2.4365234375
,90.7022372,2.421875
,90.7094273,2.412109375
,90.7529846,2.4267578125
,90.7532266,2.431640625
,90.7649912,2.470703125
,90.7988417,2.5
,90.8200562,2.548828125
,90.8249559,2.5830078125
,90.8611641,2.6171875
,90.8945264,2.626953125
,90.8949035,2.6416015625
,90.9062171,2.63671875
,90.9418839,2.6416015625
,90.9467497,2.6318359375
,90.9659869,2.6220703125
,91.0019631,2.607421875
,91.0209003,2.5927734375
,91.0277831,2.578125
,91.0633341,2.5830078125
,91.0966246,2.5830078125
,91.0970599,2.5732421875
,91.1096938,2.5244140625
,91.1427221,2.4853515625
,91.1449111,2.51953125
,91.1788808,2.5244140625
,91.2002583,2.529296875
,91.2069377,2.5244140625
,91.2479888,2.5146484375
,91.2482325,2.5048828125
,91.2679493,2.4951171875
,91.2846213,2.48046875
,91.3176425,2.48046875
,91.3381775,2.470703125
,91.3474611,2.4658203125
,91.3823859,2.4609375
,91.4031686,2.44140625
,91.40806,2.4267578125
,91.4494669,2.4169921875
,91.4497052,2.4169921875
,91.46801,2.40234375
,91.4865936,2.4267578125
,91.5219499,2.44140625
,91.5418906,2.4853515625
,91.5468183,2.51953125
,91.5803028,2.5732421875
,91.6009784,2.6025390625
,91.6096488,2.6318359375
,91.6264658,2.6513671875
,91.6661789,2.6708984375
,91.6664914,2.6806640625
,91.6992223,2.685546875
,91.7198512,2.685546875
,91.727205,2.666015625
,91.7609118,2.65625
,91.780996,2.6416015625
,91.7883222,2.63671875
,91.8375308,2.6220703125
,91.8377885,2.626953125
,91.8466111,2.626953125
,91.8819352,2.6318359375
,91.9165027,2.6220703125
,91.916878,2.6123046875
,91.9316422,2.6025390625
,91.9501598,2.5927734375
,91.9706659,2.5732421875
,92.0048762,2.509765625
,92.0096941,2.5146484375
,92.0277048,2.5
,92.0616714,2.5048828125
,92.0818867,2.4951171875
,92.0885264,2.4951171875
,92.1225162,2.48046875
,92.1426092,2.4755859375
,92.1497228,2.4609375
,92.1832098,2.4560546875
,92.2051746,2.4365234375
,92.2056064,2.4365234375
,92.2555163,2.4267578125
,92.2558178,2.431640625
,92.2753698,2.431640625
,92.2900398,2.4609375
,92.3248975,2.4853515625
,92.3295908,2.5390625
,92.3648296,2.5830078125
,92.3860625,2.607421875
,92.3864694,2.6416015625
,92.4208354,2.666015625
,92.4415025,2.6904296875
,92.4485198,2.6904296875
,92.4872415,2.6904296875
,92.5080059,2.67578125
,92.510164,2.6708984375
,92.5260231,2.6513671875
,92.5619673,2.646484375
,92.5820995,2.6416015625
,92.5877373,2.6513671875
,92.620442,2.6611328125
,92.6422801,2.65625
,92.6495351,2.666015625
,92.6887485,2.646484375
,92.6891452,2.6416015625
,92.7238797,2.6171875
,92.7256051,2.6220703125
,92.7598525,2.6025390625
,92.7829848,2.587890625
,92.7893598,2.568359375
,92.8096495,2.55859375
,92.8470579,2.529296875
,92.8516376,2.529296875
,92.8855313,2.5
,92.8904489,2.4951171875
,92.9074389,2.470703125
,92.9434653,2.4755859375
,92.9665677,2.4609375
,92.9714343,2.4609375
,92.9916482,2.4462890625
,93.027209,2.4267578125
,93.029809,2.421875
,93.0794202,2.4169921875
,93.0798319,2.4169921875
,93.1100634,2.4267578125
,93.1103018,2.4755859375
,93.1576418,2.51953125
,93.158062,2.568359375
,93.1682377,2.59765625
,93.2007978,2.626953125
,93.2208277,2.6416015625
,93.2298227,2.65625
,93.2647571,2.65625
,93.2700651,2.6611328125
,93.2911461,2.666015625
,93.3084985,2.6513671875
,93.3432262,2.6416015625
,93.363527,2.626953125
,93.3699137,2.6171875
,93.4052392,2.6025390625
,93.4344535,2.59765625
,93.4347046,2.587890625
,93.4486921,2.59765625
,93.4841152,2.587890625
,93.4886597,2.5830078125
,93.5268215,2.5634765625
,93.5306671,2.55859375
,93.5644849,2.5390625
,93.5695672,2.5244140625
,93.605543,2.5
,93.6103387,2.509765625
,93.6335546,2.509765625
,93.6490049,2.44140625
,93.6839117,2.451171875
,93.6888302,2.4462890625
,93.7224255,2.451171875
,93.7438597,2.44140625
,93.7513668,2.44140625
,93.7852562,2.4267578125
,93.8058514,2.4169921875
,93.8083244,2.4072265625
,93.8426206,2.412109375
,93.8627108,2.4169921875
,93.869797,2.4462890625
,93.9158359,2.4658203125
,93.91625,2.5146484375
,93.9325688,2.55859375
,93.9682036,2.578125
,93.9703876,2.59765625
,94.008168,2.6025390625
,94.0085109,2.6220703125
,94.0553893,2.6220703125
,94.055787,2.6220703125
,94.084795,2.607421875
,94.0917423,2.59765625
,94.1315806,2.578125
,94.1319739,2.578125
,94.1530797,2.5634765625
,94.172379,2.5634765625
,94.1903021,2.55859375
,94.2248296,2.5634765625
,94.2310211,2.55859375
,94.2671697,2.55859375
,94.2717742,2.548828125
,94.3070422,2.5341796875
,94.3274458,2.5244140625
,94.3277028,2.5048828125
,94.3658813,2.5
,94.3708131,2.490234375
,94.3927363,2.4853515625
,94.4277999,2.470703125
,94.4330805,2.4658203125
,94.4724996,2.451171875
,94.4727398,2.4365234375
,94.4931727,2.421875
,94.511769,2.3681640625
,94.5469173,2.3193359375
,94.5493493,2.353515625
,94.5831376,2.3779296875
,94.6049626,2.3828125
,94.6121139,2.40234375
,94.6465898,2.431640625
,94.6510628,2.490234375
,94.6884204,2.5244140625
,94.7198291,2.568359375
,94.7200427,2.59765625
,94.7291979,2.6416015625
,94.7627548,2.666015625
,94.7835045,2.685546875
,94.7924476,2.6806640625
,94.8278554,2.685546875
,94.8579039,2.67578125
,94.8581002,2.6611328125
,94.8694198,2.63671875
,94.9043893,2.646484375
,94.9237431,2.646484375
,94.9308602,2.6416015625
,94.9651219,2.63671875
,94.9963792,2.6220703125
,94.9965927,2.6171875
,95.0119929,2.607421875
,95.0469037,2.6025390625
,95.0741517,2.5927734375
,95.0743892,2.587890625
,95.0917753,2.5732421875
,95.1372981,2.5634765625
,95.137701,2.5439453125
,95.1510872,2.5390625
,95.1853539,2.5244140625
,95.2058243,2.509765625
,95.2141766,2.509765625
,95.2310863,2.4853515625
,95.2676375,2.48046875
,95.2722292,2.4658203125
,95.2915127,2.470703125
,95.3266469,2.4560546875
,95.3463308,2.4560546875
,95.3509748,2.44140625
,95.3862084,2.44140625
,95.4164659,2.44140625
,95.4167316,2.470703125
,95.430121,2.490234375
,95.4796664,2.5390625
,95.4799067,2.5732421875
,95.4994589,2.6025390625
,95.513124,2.6123046875
,95.5484875,2.63671875
,95.5687404,2.6416015625
,95.5750542,2.63671875
,95.6103678,2.6318359375
,95.6107225,2.6171875
,95.6432116,2.6123046875
,95.6648443,2.607421875
,95.6722975,2.6171875
,95.7125138,2.6171875
,95.7410981,2.6171875
,95.7414713,2.6171875
,95.7539996,2.607421875
,95.7717044,2.59765625
,95.8092204,2.6123046875
,95.8095046,2.607421875
,95.8511252,2.607421875
,95.880297,2.6025390625
,95.8805847,2.587890625
,95.894265,2.568359375
,95.9291883,2.548828125
,95.933683,2.5439453125
,95.9505077,2.5244140625
,95.9850254,2.51953125
,96.0065433,2.509765625
,96.0140045,2.5048828125
,96.0326638,2.4951171875
,96.0699903,2.4853515625
,96.0722826,2.470703125
,96.1052795,2.4609375
,96.1276166,2.451171875
,96.1328008,2.451171875
,96.1530747,2.4462890625
,96.1725869,2.4609375
,96.2184567,2.4853515625
,96.2187086,2.5048828125
,96.2346278,2.5439453125
,96.2817812,2.578125
,96.2821928,2.6123046875
,96.2962833,2.63671875
,96.3302545,2.666015625
,96.3306524,2.6708984375
,96.3644489,2.6904296875
,96.3873332,2.6904296875
,96.3913889,2.6904296875
,96.4276965,2.67578125
,96.4481701,2.6806640625
,96.4554523,2.65625
,96.4984966,2.646484375
,96.4987588,2.6416015625
,96.5109252,2.626953125
,96.5447856,2.6318359375
,96.5653007,2.6220703125
,96.5722327,2.6220703125
,96.6081016,2.607421875
,96.6278403,2.6025390625
,96.6359393,2.587890625
,96.6704971,2.5732421875
,96.670911,2.5537109375
,96.7060843,2.568359375
,96.7303499,2.55859375
,96.7347463,2.5537109375
,96.7558004,2.5439453125
,96.7759491,2.5341796875
,96.8231776,2.509765625
,96.8234414,2.5146484375
,96.8366032,2.5048828125
,96.8528751,2.4853515625
,96.8996954,2.48046875
,96.8999398,2.4755859375
,96.9150199,2.470703125
,96.9340537,2.4658203125
,96.9706464,2.48046875
,96.9759326,2.4951171875
,97.0106415,2.529296875
,97.0154455,2.5634765625
,97.0492913,2.548828125
,97.0525283,2.5439453125
,97.1009647,2.6025390625
,97.1012173,2.6318359375
,97.1131719,2.6611328125
,97.1472888,2.6806640625
,97.166811,2.666015625
,97.1767087,2.6611328125
,97.2231026,2.646484375
,97.2233607,2.6416015625
,97.2322557,2.6220703125
,97.2675296,2.6220703125
,97.2873961,2.6171875
,97.2943827,2.6220703125
,97.3322717,2.6123046875
,97.3599235,2.6123046875
,97.360304,2.59765625
,97.3762642,2.587890625
,97.3939355,2.568359375
,97.4277251,2.5634765625
,97.4323122,2.5439453125
,97.467755,2.5439453125
,97.4878086,2.529296875
,97.4948681,2.51953125
,97.5161928,2.5048828125
,97.5366507,2.490234375
,97.5699289,2.4658203125
,97.5902363,2.451171875
,97.5919969,2.451171875
,97.6265281,2.4462890625
,97.6464117,2.4365234375
,97.6533515,2.431640625
,97.6869249,2.421875
,97.706403,2.4169921875
,97.716089,2.421875
,97.734078,2.4365234375
,97.7781845,2.470703125
,97.7784354,2.51953125
,97.7940035,2.548828125
,97.8294041,2.5830078125
,97.8341461,2.6025390625
,97.867939,2.626953125
,97.8883933,2.626953125
,97.8949939,2.6318359375
,97.9285004,2.6220703125
,97.9507612,2.6171875
,97.9557383,2.59765625
,97.9757292,2.5927734375
,98.0123763,2.5830078125
,98.0180581,2.578125
,98.0357475,2.5732421875
,98.0699111,2.568359375
,98.0901952,2.55859375
,98.0983084,2.568359375
,98.1177146,2.568359375
,98.1353452,2.5537109375
,98.1555354,2.548828125
,98.1967735,2.5390625
,98.1971693,2.529296875
,98.2425637,2.5146484375
,98.2428142,2.5146484375
,98.2572426,2.5
,98.3072175,2.4853515625
,98.3076286,2.470703125
,98.313198,2.470703125
,98.3477351,2.4609375
,98.3673506,2.4560546875
,98.3749344,2.4462890625
,98.4099204,2.44140625
,98.4310949,2.4462890625
,98.4358655,2.431640625
,98.4720975,2.4267578125
,98.4723482,2.431640625
,98.5081404,2.4658203125
,98.5285708,2.5
,98.533743,2.5439453125
,98.5703163,2.5732421875
,98.5908045,2.6123046875
,98.5988096,2.626953125
,98.6330519,2.6513671875
,98.6333689,2.65625
,98.6686827,2.6611328125
,98.6894888,2.6611328125
,98.6950823,2.65625
,98.7334135,2.6416015625
,98.7337501,2.646484375
,98.770943,2.6513671875
,98.791065,2.63671875
,98.7955425,2.6416015625
,98.8302429,2.6318359375
,98.8505344,2.6318359375
,98.8553802,2.6171875
,98.8901071,2.6318359375
,98.91275,2.626953125
,98.915456,2.6220703125
,98.9601453,2.607421875
,98.9604551,2.5927734375
,98.9789613,2.5732421875
,98.9994423,2.568359375
,99.0154821,2.548828125
,99.0511948,2.548828125
,99.0569192,2.548828125
