fs,t,y
52.58816972867361,0.13915409999999984,0.52734375
,0.17266210000000015,0.6396484375
,0.19432729999999987,0.83984375
,0.20053650000000012,1.1328125
,0.21874150000000014,1.4111328125
,0.2393825999999999,1.689453125
,0.2597952000000001,1.9140625
,0.30888250000000017,2.109375
,0.30933449999999985,2.2509765625
,0.3199456999999999,2.36328125
,0.33541450000000017,2.4267578125
,0.3751886,2.4658203125
,0.3756955999999998,2.4560546875
,0.4157476,2.3779296875
,0.4160731000000002,2.255859375
,0.4532447999999998,2.1142578125
,0.47365829999999987,1.982421875
,0.47985619999999995,1.8603515625
,0.5285779000000002,1.7529296875
,0.5289481,1.6552734375
,0.5361788000000001,1.58203125
,0.5591493999999999,1.4990234375
,0.5766450000000001,1.416015625
,0.6224620000000001,1.328125
,0.6227900000000002,1.23046875
,0.6410355000000001,1.1376953125
,0.6598128999999999,1.0400390625
,0.6745363000000002,0.947265625
,0.7155680000000002,0.87890625
,0.7158815000000001,0.8056640625
,0.7615675999999998,0.732421875
,0.7620493000000002,0.6689453125
,0.7790053000000001,0.6103515625
,0.8146648000000001,0.5712890625
,0.8200612,0.5419921875
,0.8717497999999999,0.5224609375
,0.8722523,0.478515625
,0.8770867,0.4052734375
,0.8969136,0.283203125
,0.9338551000000002,0.126953125
,0.9395867999999998,0.0048828125
,0.9589547,0.0048828125
,0.9759628,0.0048828125
,1.0264134999999999,0.0048828125
,1.0928982999999999,0.0048828125
,1.0931085999999999,0.0048828125
,1.0932914,0.2294921875
,1.1063627,0.576171875
,1.1067380999999998,0.9228515625
,1.1196924,1.2109375
,1.1410828999999998,1.4794921875
,1.1592118,1.6845703125
,1.1803965,1.8701171875
,1.2161711999999998,1.9970703125
,1.2225221,2.1044921875
,1.2389746000000001,2.1533203125
,1.2572842,2.177734375
,1.2777184,2.1240234375
,1.3244641000000001,2.021484375
,1.3247923,1.8896484375
,1.3521686000000002,1.77734375
,1.3612549,1.66015625
,1.3816092000000002,1.5625
,1.4016064,1.4697265625
,1.4178986,1.38671875
,1.4396189000000001,1.30859375
,1.4751376999999999,1.2353515625
,1.4795961000000002,1.1572265625
,1.5007697000000002,1.07421875
,1.5206445999999998,0.9912109375
,1.5576594,0.908203125
,1.5601056,0.8251953125
,1.5768716,0.7470703125
,1.6140379,0.6884765625
,1.6357916000000001,0.6298828125
,1.6389388,0.576171875
,1.6597257,0.52734375
,1.680514,0.4833984375
,1.7002462,0.4443359375
,1.7215079000000002,0.4052734375
,1.7409596,0.380859375
,1.7585357,0.3515625
,1.7854375,0.3662109375
,1.7992340000000002,0.3662109375
,1.8203732000000001,0.33203125
,1.8396407,0.302734375
,1.878899,0.2978515625
,1.8792119999999999,0.29296875
,1.916289,0.3564453125
,1.9211831,0.498046875
,1.9724037,0.751953125
,1.9727434000000001,1.0302734375
,1.9798711999999998,1.3525390625
,2.0008549999999996,1.630859375
,2.0199923,1.8505859375
,2.0412916,2.0361328125
,2.0604674999999997,2.177734375
,2.0988537000000003,2.2705078125
,2.1021463000000002,2.3291015625
,2.1378759,2.3486328125
,2.1384039,2.3193359375
,2.1596792000000002,2.2314453125
,2.205418,2.099609375
,2.2058861,1.9482421875
,2.2200536,1.8115234375
,2.2434383,1.6845703125
,2.2617994,1.58203125
,2.2826437000000004,1.4892578125
,2.3209802,1.4111328125
,2.3213517,1.328125
,2.3407578000000004,1.2548828125
,2.3599142000000004,1.1767578125
,2.3812869,1.103515625
,2.4018591999999996,1.025390625
,2.4211970000000003,0.947265625
,2.4591106,0.869140625
,2.4622775,0.80078125
,2.4782640999999996,0.7275390625
,2.5021589000000004,0.6689453125
,2.5199732,0.5712890625
,2.5404295,0.5322265625
,2.5601028,0.48828125
,2.5985360999999996,0.4443359375
,2.5991688,0.400390625
,2.636922,0.3759765625
,2.6421417,0.3515625
,2.6588946,0.3125
,2.7014927,0.3271484375
,2.7019666000000004,0.322265625
,2.7221968,0.283203125
,2.7405551,0.244140625
,2.7777418000000003,0.224609375
,2.7846202,0.2197265625
,2.8036841,0.2734375
,2.8182530000000003,0.419921875
,2.8717267,0.7177734375
,2.8722239,0.99609375
,2.8906843999999996,1.3134765625
,2.8995632000000002,1.572265625
,2.9359216000000004,1.8212890625
,2.9565322,2.01171875
,2.9620452999999998,2.119140625
,3.0122036999999997,2.16796875
,3.0126999000000003,2.1142578125
,3.0239032999999997,1.982421875
,3.0395652,1.7578125
,3.0756917,1.4306640625
,3.0829647,1.0888671875
,3.1007702999999998,0.712890625
,3.1363353,0.3271484375
,3.1367841,0.0048828125
,3.1744357,0.0048828125
,3.1949856,0.0048828125
,3.2007981,0.0048828125
,3.2206959,0.0048828125
,3.2405324999999996,0.0048828125
,3.2607003,0.0048828125
,3.2822978999999997,0.0048828125
,3.297804,0.0048828125
,3.3395922999999996,0.0048828125
,3.3400814,0.0048828125
,3.36099,0.0048828125
,3.3792811,0.0048828125
,3.4183265,0.0048828125
,3.4188345,0.0048828125
,3.4561982999999996,0.0048828125
,3.4617820999999998,0.0048828125
,3.5108734999999998,0.654296875
,3.5112680999999997,1.064453125
,3.5236036000000004,1.318359375
,3.5450647999999996,1.4599609375
,3.5636899,1.5185546875
,3.6010732,1.54296875
,3.6015571,1.5234375
,3.6225275999999997,1.4892578125
,3.6426374,1.4208984375
,3.6636448,1.3623046875
,3.6839638,1.337890625
,3.7043461000000004,1.40625
,3.7242542,1.54296875
,3.7585615,1.7578125
,3.7791743999999996,1.9775390625
,3.7818386000000004,2.2119140625
,3.8027108,2.3974609375
,3.8199031999999997,2.548828125
,3.8690219,2.646484375
,3.8695133999999998,2.7099609375
,3.8997031,2.744140625
,3.9039658,2.7880859375
,3.9237909,2.7734375
,3.9419233,2.705078125
,3.9908354,2.587890625
,3.9913187,2.4560546875
,4.0024761,2.2998046875
,4.0386521,2.158203125
,4.0430374,2.05078125
,4.0631731,1.9580078125
,4.1163045,1.8359375
,4.1186718,1.6845703125
,4.1235208,1.5234375
,4.1423722,1.3671875
,4.1764603,1.220703125
,4.1819006,1.103515625
,4.2043481,1.0205078125
,4.2416575,0.9814453125
,4.2449358,0.95703125
,4.265588,0.95703125
,4.2852236,0.947265625
,4.3041022,0.9375
,4.3211769,0.9130859375
,4.3646727,0.91796875
,4.365001,0.9130859375
,4.3832727,0.9814453125
,4.4257458,1.0302734375
,4.4261642,1.064453125
,4.4471852,1.0400390625
,4.4670219,1.015625
,4.4811232,0.99609375
,4.5184223,1.0107421875
,4.5234184,1.025390625
,4.5429805,1.0791015625
,4.5635251,1.1767578125
,4.6133755,1.3525390625
,4.6138025,1.611328125
,4.6258696,1.89453125
,4.646422,2.1875
,4.6615414,2.421875
,4.6988639,2.626953125
,4.7014277,2.783203125
,4.7243879,2.9052734375
,4.7446562,2.9833984375
,4.7645534,3.0322265625
,4.7999498,3.017578125
,4.819274,2.9345703125
,4.8195979,2.79296875
,4.8543814,2.6123046875
,4.8761149,2.40234375
,4.8838524,2.197265625
,4.9050906,2.03125
,4.9255739,1.89453125
,4.9447222,1.7822265625
,4.9652387,1.6796875
,5.0077581,1.572265625
,5.0082426,1.4794921875
,5.0269778,1.416015625
,5.0425503,1.3134765625
,5.0796568,1.279296875
,5.0853173,1.23046875
,5.1214575,1.1767578125
,5.1268556,1.1181640625
,5.1457209,1.064453125
,5.1668606,1.0009765625
,5.2013427,0.947265625
,5.2072103,0.87890625
,5.2243499,0.810546875
,5.243044,0.751953125
,5.2887021,0.6884765625
,5.2890681,0.6396484375
,5.3197012,0.60546875
,5.3268314,0.5712890625
,5.3657604,0.5224609375
,5.3661544,0.4736328125
,5.3812847,0.458984375
,5.4284435,0.419921875
,5.4289215,0.4248046875
,5.4448712,0.5517578125
,5.4638749,0.76171875
,5.4989502,1.0595703125
,5.5197437,1.3671875
,5.5263327,1.630859375
,5.5696555,1.875
,5.5701694,2.0556640625
,5.5842469,2.2021484375
,5.6186643,2.2705078125
,5.6231796,2.2802734375
,5.6636316,2.255859375
,5.663958,2.2021484375
,5.6993244,2.1044921875
,5.7205943,1.982421875
,5.7231651,1.8505859375
,5.7595665,1.7333984375
,5.7635508,1.6357421875
,5.802718,1.5478515625
,5.8030755,1.474609375
,5.8372509,1.4111328125
,5.8572502,1.3427734375
,5.8658279,1.2744140625
,5.911357,1.1962890625
,5.9118488,1.1279296875
,5.927287,1.0498046875
,5.9436816,0.9814453125
,5.9786751,0.927734375
,5.9827325,0.8642578125
,6.0181895999999995,0.7958984375
,6.0386807000000005,0.7275390625
,6.0467736,0.6640625
,6.084882500000001,0.595703125
,6.0853786,0.5419921875
,6.1053031,0.4833984375
,6.1248556,0.439453125
,6.145258699999999,0.4296875
,6.1915058,0.439453125
,6.1919103,0.48828125
,6.211960299999999,0.56640625
,6.228094199999999,0.703125
,6.2679408,0.8251953125
,6.268551,0.9326171875
,6.283624400000001,0.99609375
,6.3311388,1.083984375
,6.3317101000000005,1.1865234375
,6.345515600000001,1.3427734375
,6.3945837,1.5185546875
,6.3950364,1.71875
,6.407740199999999,1.8896484375
,6.427879300000001,2.0556640625
,6.444856100000001,2.1630859375
,6.4879084,2.275390625
,6.4883986,2.3388671875
,6.503958900000001,2.36328125
,6.5493015,2.36328125
,6.549805299999999,2.32421875
,6.5666986000000005,2.2265625
,6.6112006,2.08984375
,6.611600299999999,1.9287109375
,6.6226754,1.77734375
,6.658785099999999,1.6455078125
,6.680246199999999,1.5283203125
,6.6856955,1.4208984375
,6.723283199999999,1.328125
,6.7260708000000005,1.2353515625
,6.7620953,1.1328125
,6.7845692,1.015625
,6.7850585,0.8984375
,6.8095976,0.7666015625
,6.8446985,0.634765625
,6.8450562999999995,0.5029296875
,6.882182500000001,0.400390625
,6.8872412,0.29296875
,6.9304592,0.224609375
,6.930963200000001,0.15625
,6.947527900000001,0.1025390625
,6.9927311,0.0244140625
,6.993042000000001,0.009765625
,7.0132852,0.0048828125
,7.0275313,0.0048828125
,7.0447933,0.0048828125
,7.088427899999999,0.0048828125
,7.088771700000001,0.0048828125
,7.118791999999999,0.0048828125
,7.1231113,0.0048828125
,7.1646955000000005,0.0048828125
,7.1654298,0.0048828125
,7.185736199999999,0.0390625
,7.223336099999999,0.2978515625
,7.2264388,0.60546875
,7.246141700000001,0.9326171875
,7.282348900000001,1.1962890625
,7.2860581,1.42578125
,7.3210578,1.591796875
,7.3418765,1.71875
,7.344907600000001,1.8017578125
,7.3811816,1.875
,7.3856603,1.8896484375
,7.4288638,1.8505859375
,7.4292041,1.7626953125
,7.446795099999999,1.6357421875
,7.492007600000001,1.4990234375
,7.4923611999999995,1.3818359375
,7.5064922,1.279296875
,7.529521300000001,1.1865234375
,7.5489972000000005,1.0791015625
,7.5671,0.9765625
,7.615120599999999,0.9228515625
,7.6155223,0.859375
,7.6265415,0.7861328125
,7.6641104,0.7080078125
,7.6686438,0.6298828125
,7.7075388,0.546875
,7.707866900000001,0.4638671875
,7.7250981,0.41015625
,7.7699193,0.322265625
,7.7703044000000006,0.224609375
,7.788447700000001,0.126953125
,7.824885200000001,0.0390625
,7.8253947,0.0048828125
,7.8637634,0.0048828125
,7.893820699999999,0.0048828125
,7.8941783,0.0048828125
,7.9035793000000005,0.0048828125
,7.941056700000001,0.0048828125
,7.971613100000001,0.0048828125
,7.9721858999999995,0.0048828125
,7.9822054,0.0048828125
,8.0169609,0.0048828125
,8.0366897,0.0048828125
,8.0448474,0.009765625
,8.0803025,0.3564453125
,8.1021807,0.6689453125
,8.107572,0.927734375
,8.1475886,1.1328125
,8.147942,1.30859375
,8.1939352,1.4306640625
,8.1948416,1.5234375
,8.21562,1.58203125
,8.2300005,1.6064453125
,8.2457838,1.58203125
,8.2807635,1.5380859375
,8.2858142,1.4599609375
,8.3336639,1.3818359375
,8.3340042,1.3134765625
,8.3477247,1.2646484375
,8.3840959,1.2158203125
,8.3890884,1.181640625
,8.4255852,1.142578125
,8.4288931,1.0986328125
,8.4663606,1.0546875
,8.4668474,1.005859375
,8.4888067,0.966796875
,8.5090336,0.91796875
,8.5521148,0.87890625
,8.5524315,0.8349609375
,8.5693807,0.791015625
,8.5908005,0.7470703125
,8.6112392,0.712890625
,8.6276023,0.6787109375
,8.6741719,0.6689453125
,8.6744416,0.6494140625
,8.6876414,0.6396484375
,8.7220222,0.6201171875
,8.7427466,0.5859375
,8.7481273,0.556640625
,8.7839397,0.5224609375
,8.805121,0.498046875
,8.8084515,0.4736328125
,8.8438267,0.48828125
,8.8478003,0.5712890625
,8.8908825,0.771484375
,8.8913863,1.0302734375
,8.9095234,1.337890625
,8.9435081,1.6015625
,8.9648081,1.8603515625
,8.965334,2.041015625
,9.015535,2.2021484375
,9.0158581,2.3046875
,9.0361325,2.392578125
,9.0482826,2.4365234375
,9.084995,2.421875
,9.0872323,2.353515625
,9.1229828,2.236328125
,9.1436355,2.0849609375
,9.1442684,1.93359375
,9.1887462,1.806640625
,9.1892315,1.7041015625
,9.2194053,1.611328125
,9.2278987,1.5234375
,9.2806254,1.435546875
,9.2809333,1.3623046875
,9.2889988,1.2841796875
,9.326963,1.2109375
,9.3300931,1.1328125
,9.3731514,1.0595703125
,9.3734662,0.986328125
,9.3893554,0.927734375
,9.4277939,0.8642578125
,9.4318107,0.8056640625
,9.4660786,0.7470703125
,9.4688435,0.6982421875
,9.5062147,0.654296875
,9.5251024,0.6201171875
,9.527008,0.5908203125
,9.5696556,0.576171875
,9.5701467,0.5517578125
,9.6165993,0.537109375
,9.6169279,0.5078125
,9.6354953,0.4833984375
,9.6478091,0.44921875
,9.6937769,0.4736328125
,9.6940961,0.537109375
,9.712726,0.6396484375
,9.7289176,0.869140625
,9.749305,1.1376953125
,9.7843766,1.4306640625
,9.7898092,1.6796875
,9.8348651,1.904296875
,9.8353548,2.0751953125
,9.8516889,2.2119140625
,9.8680621,2.294921875
,9.9130669,2.3583984375
,9.9135717,2.373046875
,9.9272871,2.34375
,9.9677364,2.255859375
,9.9680961,2.1240234375
,10.0043966,1.9677734375
,10.0257177,1.8212890625
,10.0325929,1.689453125
,10.0517398,1.591796875
,10.1013483,1.4892578125
,10.1020011,1.4208984375
,10.1077719,1.3623046875
,10.1457193,1.2939453125
,10.1518942,1.23046875
,10.1726103,1.1572265625
,10.193441,1.0791015625
,10.212739,1.0009765625
,10.2505181,0.927734375
,10.2531136,0.8544921875
,10.2691364,0.7958984375
,10.303916,0.732421875
,10.3247127,0.693359375
,10.3325977,0.6494140625
,10.3511838,0.6103515625
,10.371077,0.576171875
,10.4135472,0.5517578125
,10.4138994,0.5224609375
,10.4297702,0.48828125
,10.4496308,0.46875
,10.4713238,0.4443359375
,10.5076604,0.4296875
,10.5081075,0.439453125
,10.5510997,0.537109375
,10.5513639,0.7177734375
,10.5729296,1.0009765625
,10.5888006,1.26953125
,10.6289476,1.5478515625
,10.6292177,1.796875
,10.6649629,1.97265625
,10.6702276,2.119140625
,10.7059826,2.2119140625
,10.7100475,2.2802734375
,10.742889,2.3046875
,10.771024,2.2900390625
,10.7750894,2.2216796875
,10.7894691,2.119140625
,10.8109451,1.982421875
,10.8297418,1.8505859375
,10.8672764,1.7333984375
,10.8700395,1.6357421875
,10.9095288,1.5478515625
,10.9099658,1.46484375
,10.9483339,1.38671875
,10.9689298,1.30859375
,10.9730438,1.23046875
,10.9917601,1.1474609375
,11.0119385,1.0791015625
,11.047354,1.0107421875
,11.0495178,0.9423828125
,11.0868049,0.87890625
,11.0916396,0.8251953125
,11.1427136,0.771484375
,11.1429897,0.72265625
,11.1737492,0.68359375
,11.1741745,0.6494140625
,11.1900246,0.615234375
,11.2345742,0.5810546875
,11.2350078,0.5419921875
,11.2515665,0.498046875
,11.2726254,0.46875
,11.2888279,0.4296875
,11.3093314,0.4736328125
,11.3614122,0.5712890625
,11.3617698,0.7373046875
,11.3707212,0.9619140625
,11.408745,1.2353515625
,11.4273749,1.4697265625
,11.4326543,1.6796875
,11.48516,1.8359375
,11.4856541,1.9677734375
,11.4883355,2.0361328125
,11.5250054,2.0947265625
,11.5304974,2.1044921875
,11.5515076,2.0751953125
,11.5880534,1.9873046875
,11.5905933,1.884765625
,11.6263852,1.7578125
,11.6469953,1.6357421875
,11.6530991,1.533203125
,11.6711948,1.4501953125
,11.7179793,1.3818359375
,11.7183579,1.2744140625
,11.7330742,1.220703125
,11.7669866,1.1669921875
,11.77204,1.103515625
,11.8099665,1.03515625
,11.8311994,0.966796875
,11.8343058,0.8984375
,11.8535501,0.8349609375
,11.8705902,0.7666015625
,11.8900259,0.712890625
,11.9241606,0.673828125
,11.9456964,0.625
,11.9526908,0.5859375
,11.9906921,0.56640625
,11.9953471,0.5859375
,12.0145564,0.6005859375
,12.0506314,0.615234375
,12.0510066,0.595703125
,12.0855356,0.576171875
,12.1063801,0.537109375
,12.1135884,0.52734375
,12.1497644,0.5517578125
,12.1535877,0.6982421875
,12.1932939,0.9130859375
,12.1936551,1.1865234375
,12.2099918,1.435546875
,12.2556189,1.689453125
,12.2566931,1.884765625
,12.2723498,2.021484375
,12.3189163,2.1142578125
,12.3193613,2.177734375
,12.3375803,2.20703125
,12.3523122,2.1875
,12.3845917,2.1240234375
,12.4047991,2.0166015625
,12.4114871,1.8994140625
,12.4558943,1.7919921875
,12.4562673,1.6943359375
,12.4717979,1.611328125
,12.4936036,1.54296875
,12.5128569,1.4697265625
,12.5478803,1.3916015625
,12.5689571,1.3232421875
,12.5763321,1.2451171875
,12.5959653,1.1669921875
,12.6119507,1.09375
,12.6576023,1.03515625
,12.6581588,0.966796875
,12.674311,0.908203125
,12.7089826,0.8447265625
,12.714078,0.7958984375
,12.7515669,0.751953125
,12.7820726,0.72265625
,12.7823815,0.703125
,12.7918542,0.6884765625
,12.8283264,0.673828125
,12.832575,0.654296875
,12.8541223,0.6201171875
,12.8900406,0.595703125
,12.8949271,0.56640625
,12.9359921,0.5322265625
,12.9363207,0.52734375
,12.9509427,0.576171875
,12.9858447,0.732421875
,13.0061622,0.95703125
,13.0132131,1.240234375
,13.0612308,1.4990234375
,13.0617016,1.7431640625
,13.0749681,1.943359375
,13.1247669,2.1044921875
,13.1251264,2.2021484375
,13.1551594,2.2900390625
,13.155576,2.3095703125
,13.1727727,2.2900390625
,13.2170034,2.2216796875
,13.2175124,2.1044921875
,13.2349927,1.9677734375
,13.268329,1.845703125
,13.2881205,1.7333984375
,13.293077,1.640625
,13.3119532,1.5673828125
,13.3580993,1.494140625
,13.3585881,1.4208984375
,13.3878981,1.337890625
,13.39343,1.2646484375
,13.4325155,1.1865234375
,13.4328494,1.103515625
,13.4824904,1.025390625
,13.4828369,0.9423828125
,13.4913121,0.8544921875
,13.5283714,0.7861328125
,13.5339329,0.7177734375
,13.5745641,0.6494140625
,13.5749006,0.5908203125
,13.6202942,0.537109375
,13.6207714,0.4931640625
,13.6309933,0.4541015625
,13.6669441,0.46875
,13.6881649,0.4736328125
,13.6933294,0.4296875
,13.7135614,0.3955078125
,13.7492449,0.361328125
,13.7767298,0.33203125
,13.7771998,0.33203125
,13.7908827,0.390625
,13.8274807,0.6005859375
,13.8525632,0.859375
,13.853031,1.1279296875
,13.8883905,1.42578125
,13.8934895,1.6748046875
,13.9304834,1.904296875
,13.9328794,2.0654296875
,13.9541934,2.197265625
,13.9936126,2.2802734375
,13.9941015,2.3291015625
,14.010904799999999,2.3291015625
,14.0489706,2.294921875
,14.0535715,2.1923828125
,14.0889865,2.0556640625
,14.093674,1.9140625
,14.115614999999998,1.77734375
,14.135530800000002,1.66015625
,14.181488900000002,1.572265625
,14.181965000000002,1.4794921875
,14.2027684,1.3916015625
,14.216687,1.26953125
,14.234362099999998,1.171875
,14.253453700000001,1.1083984375
,14.2905077,1.044921875
,14.299104499999999,0.966796875
,14.3157839,0.8935546875
,14.3506058,0.8154296875
,14.3559093,0.7421875
,14.378128400000001,0.673828125
,14.3940294,0.60546875
,14.444033099999999,0.556640625
,14.444343100000001,0.5078125
,14.4556209,0.458984375
,14.490953099999999,0.4345703125
,14.494726199999999,0.3955078125
,14.532387199999999,0.3662109375
,14.5328154,0.322265625
,14.5869927,0.33203125
,14.5874776,0.3173828125
,14.6173143,0.2734375
,14.617702900000001,0.224609375
,14.635326,0.205078125
,14.6790332,0.244140625
,14.679538099999998,0.4052734375
,14.700642599999998,0.6396484375
,14.7161984,0.9423828125
,14.733214,1.2060546875
,14.7546548,1.46484375
,14.7899794,1.650390625
,14.7953577,1.81640625
,14.835168500000002,1.93359375
,14.8356474,2.001953125
,14.884250300000001,2.05078125
,14.884581699999998,2.0654296875
,14.9156951,2.041015625
,14.916016500000001,1.962890625
,14.9337415,1.865234375
,14.9694276,1.7529296875
,14.974293200000002,1.640625
,15.010637,1.5478515625
,15.0389041,1.46484375
,15.0394233,1.3818359375
,15.0566918,1.3134765625
,15.077459600000001,1.240234375
,15.1175545,1.1474609375
,15.117921500000001,1.0986328125
,15.132723200000001,1.03515625
,15.1688091,0.9765625
,15.1898238,0.9228515625
,15.1951346,0.8642578125
,15.2337949,0.7958984375
,15.2373185,0.732421875
,15.2871256,0.6689453125
,15.2874643,0.6103515625
,15.292871000000002,0.546875
,15.316105400000001,0.5126953125
,15.353569499999999,0.46875
,15.3540606,0.4443359375
,15.390696299999998,0.419921875
,15.4117988,0.3955078125
,15.4122642,0.3662109375
,15.447654499999999,0.390625
,15.4684469,0.390625
,15.4743393,0.37109375
,15.522095700000001,0.322265625
,15.522526,0.29296875
,15.5361787,0.3271484375
,15.572306600000001,0.4443359375
,15.5769162,0.6787109375
,15.612215599999999,0.9423828125
,15.616724099999999,1.23046875
,15.6345125,1.46484375
,15.668372399999999,1.689453125
,15.688608200000001,1.845703125
,15.695192599999999,1.982421875
,15.730227,2.0654296875
,15.7511972,2.119140625
,15.755879199999999,2.1337890625
,15.793772,2.08984375
,15.796924400000002,1.9873046875
,15.8140645,1.85546875
,15.851343,1.71875
,15.856005199999998,1.591796875
,15.893148199999999,1.484375
,15.898,1.38671875
,15.9169378,1.298828125
,15.9563183,1.2255859375
,15.956632899999999,1.162109375
,15.9942302,1.09375
,15.998732100000002,1.03515625
,16.0153161,0.9765625
,16.064539,0.9326171875
,16.0648649,0.8837890625
,16.0759377,0.8447265625
,16.1108641,0.7958984375
,16.131615,0.751953125
,16.1400695,0.7080078125
,16.1896384,0.6640625
,16.1900006,0.615234375
,16.1935296,0.576171875
,16.2307008,0.5615234375
,16.236995,0.5419921875
,16.2571736,0.5224609375
,16.2984198,0.48828125
,16.2990518,0.4541015625
,16.3140137,0.4150390625
,16.348644,0.419921875
,16.3694539,0.41015625
,16.3765266,0.361328125
,16.3972275,0.3369140625
,16.4328755,0.3564453125
,16.4381203,0.4736328125
,16.4572169,0.673828125
,16.5015885,0.9619140625
,16.5020749,1.2255859375
,16.5307108,1.484375
,16.5349318,1.669921875
,16.5854571,1.8505859375
,16.5857674,1.9580078125
,16.5989026,2.03125
,16.6178032,2.0458984375
,16.6626354,2.021484375
,16.6629687,1.953125
,16.7111059,1.8408203125
,16.711613,1.69921875
,16.7198072,1.5771484375
,16.7381576,1.4208984375
,16.7729037,1.2890625
,16.7754173,1.2158203125
,16.8116112,1.1474609375
,16.832262,1.0693359375
,16.8371211,1.005859375
,16.8831541,0.947265625
,16.8834828,0.91796875
,16.899934,0.8837890625
,16.9172759,0.8447265625
,16.9535354,0.80078125
,16.9554046,0.7470703125
,16.9906811,0.693359375
,17.0105751,0.64453125
,17.0183279,0.6005859375
,17.0546771,0.56640625
,17.0603728,0.52734375
,17.0772898,0.48828125
,17.1005555,0.48828125
,17.1188189,0.458984375
,17.1369772,0.4248046875
,17.1575063,0.4052734375
,17.194803,0.380859375
,17.1985432,0.361328125
,17.2153714,0.341796875
,17.2386287,0.380859375
,17.2718409,0.3857421875
,17.2769735,0.361328125
,17.3167406,0.3515625
,17.3174556,0.4052734375
,17.3386831,0.546875
,17.3596405,0.810546875
,17.4090541,1.1083984375
,17.4096361,1.3818359375
,17.4208678,1.640625
,17.4380493,1.845703125
,17.4865703,2.021484375
,17.4870786,2.138671875
,17.4973774,2.2314453125
,17.5487554,2.2705078125
,17.5490729,2.2802734375
,17.5589229,2.2314453125
,17.5955098,2.12890625
,17.600211,1.9873046875
,17.6360763,1.845703125
,17.6365836,1.708984375
,17.6747224,1.6064453125
,17.6927187,1.5185546875
,17.6988122,1.42578125
,17.7346314,1.3427734375
,17.7396078,1.2548828125
,17.7836072,1.1767578125
,17.7841173,1.083984375
,17.8140732,1.0009765625
,17.8168178,0.9130859375
,17.8607835,0.83984375
,17.8612646,0.7568359375
,17.8976989,0.6884765625
,17.8981989,0.6103515625
,17.9337653,0.5419921875
,17.9545441,0.46875
,17.9568515,0.4443359375
,18.0006903,0.4052734375
,18.0012398,0.3466796875
,18.0167935,0.2880859375
,18.0396595,0.234375
,18.0745617,0.1953125
,18.078977,0.15625
,18.1166632,0.126953125
,18.1171325,0.0927734375
,18.1581588,0.1171875
,18.1584896,0.1123046875
,18.189112,0.0732421875
,18.1984217,0.0390625
,18.2344677,0.0390625
,18.2395688,0.1025390625
,18.2774946,0.3125
,18.2778885,0.5810546875
,18.3151075,0.927734375
,18.3213561,1.2548828125
,18.3389311,1.5185546875
,18.3722446,1.767578125
,18.3792306,1.9482421875
,18.3983403,2.0947265625
,18.4365894,2.1875
,18.4394273,2.2509765625
,18.4744935,2.265625
,18.495197,2.2412109375
,18.5007376,2.158203125
,18.5430518,2.0361328125
,18.5434389,1.8994140625
,18.5577472,1.7822265625
,18.5930211,1.6748046875
,18.6145386,1.5869140625
,18.6217899,1.4990234375
,18.6404597,1.42578125
,18.6618926,1.3427734375
,18.7027838,1.259765625
,18.7032972,1.1767578125
,18.7192774,1.103515625
,18.7381492,1.03515625
,18.779195,0.9716796875
,18.7795233,0.908203125
,18.8243185,0.8447265625
,18.8248186,0.7763671875
,18.8421108,0.7177734375
,18.8620721,0.6591796875
,18.8780505,0.60546875
,18.9202245,0.5712890625
,18.9207098,0.537109375
,18.939038,0.5078125
,18.9759269,0.4931640625
,18.9811545,0.4736328125
,19.0293884,0.4541015625
,19.0297178,0.4296875
,19.0506239,0.44921875
,19.0585387,0.44921875
,19.0934898,0.41015625
,19.0996338,0.3662109375
,19.136276,0.3466796875
,19.138814,0.3515625
,19.1828907,0.439453125
,19.1833823,0.615234375
,19.2048994,0.8984375
,19.2227118,1.1865234375
,19.2426417,1.4599609375
,19.2591658,1.6796875
,19.2932973,1.9384765625
,19.3141921,2.12890625
,19.3196481,2.2607421875
,19.3552493,2.353515625
,19.3761573,2.3974609375
,19.3823621,2.40234375
,19.4332399,2.353515625
,19.4335726,2.255859375
,19.4399395,2.12890625
,19.4810631,1.9970703125
,19.4815645,1.8798828125
,19.5026424,1.7724609375
,19.5205405,1.6748046875
,19.5576569,1.591796875
,19.5630171,1.5087890625
,19.6002513,1.42578125
,19.6042549,1.34765625
,19.6190805,1.259765625
,19.6679071,1.1865234375
,19.6683108,1.1083984375
,19.6968195,1.0400390625
,19.6996226,0.966796875
,19.7442368,0.888671875
,19.7446788,0.8154296875
,19.7631212,0.751953125
,19.7790953,0.673828125
,19.8243765,0.6298828125
,19.8248076,0.576171875
,19.8415753,0.5224609375
,19.8787634,0.4736328125
,19.8792581,0.4345703125
,19.8964025,0.390625
,19.91787,0.400390625
,19.9639965,0.3955078125
,19.9643336,0.3857421875
,19.9949048,0.33203125
,20.0019566,0.29296875
,20.0205663,0.263671875
,20.070402,0.25390625
,20.0709004,0.3173828125
,20.0835427,0.46875
,20.1191496,0.72265625
,20.1215542,1.005859375
,20.1654305,1.298828125
,20.1657591,1.5478515625
,20.1967339,1.77734375
,20.2014817,1.9384765625
,20.242415,2.060546875
,20.2429281,2.1533203125
,20.2792926,2.1875
,20.2843915,2.1923828125
,20.3214585,2.1435546875
,20.3248285,2.0556640625
,20.3406905,1.943359375
,20.3807263,1.8359375
,20.4112444,1.73828125
,20.4117791,1.66015625
,20.4214948,1.5869140625
,20.4568736,1.5234375
,20.4624553,1.455078125
,20.4827152,1.3818359375
,20.5000644,1.30859375
,20.5511337,1.240234375
,20.5514461,1.1669921875
,20.5619392,1.103515625
,20.6123828,1.03515625
,20.6126938,0.966796875
,20.6246064,0.908203125
,20.643211,0.8447265625
,20.690647,0.791015625
,20.6911394,0.7421875
,20.6996481,0.712890625
,20.7369866,0.673828125
,20.7416718,0.6494140625
,20.7631493,0.6201171875
,20.8152952,0.595703125
,20.8156227,0.56640625
,20.8245606,0.556640625
,20.8386454,0.5322265625
,20.8752897,0.517578125
,20.8863584,0.517578125
,20.9033824,0.4638671875
,20.922575,0.498046875
,20.9415561,0.595703125
,20.9870249,0.80078125
,20.9873338,1.0595703125
,21.0034263,1.357421875
,21.0404583,1.6064453125
,21.0456542,1.8505859375
,21.0616622,2.0166015625
,21.113459,2.16796875
,21.1139477,2.24609375
,21.1222603,2.3046875
,21.1444158,2.32421875
,21.162957,2.3095703125
,21.1983301,2.2412109375
,21.2187875,2.1337890625
,21.2252709,1.9921875
,21.2420223,1.845703125
,21.2777212,1.7333984375
,21.2823351,1.6357421875
,21.3043778,1.54296875
,21.3396407,1.46484375
,21.3419519,1.3916015625
,21.3790672,1.3134765625
,21.4072068,1.2353515625
,21.4080607,1.15234375
,21.4207791,1.083984375
,21.4579735,1.0107421875
,21.4632594,0.9375
,21.5001732,0.8642578125
,21.5050354,0.791015625
,21.5419291,0.72265625
,21.5424257,0.654296875
,21.5763068,0.5908203125
,21.5970867,0.537109375
,21.6020877,0.5078125
,21.6371171,0.46875
,21.6424834,0.439453125
,21.6801707,0.4052734375
,21.6852041,0.3759765625
,21.6994011,0.341796875
,21.7457892,0.3564453125
,21.7461887,0.3515625
,21.7675445,0.322265625
,21.7819994,0.2978515625
,21.8239785,0.3173828125
,21.8243872,0.4150390625
,21.8439396,0.6396484375
,21.8858998,0.9375
,21.8862268,1.23046875
,21.9331402,1.513671875
,21.9336239,1.7431640625
,21.9466291,1.93359375
,21.9634864,2.0703125
,21.9985315,2.197265625
,22.0031004,2.2705078125
,22.0413529,2.3095703125
,22.0418555,2.294921875
,22.0787973,2.2314453125
,22.0998546,2.119140625
,22.1059513,1.9873046875
,22.1229535,1.8603515625
,22.1572489,1.7626953125
,22.1620475,1.6845703125
,22.2001442,1.611328125
,22.2049268,1.5478515625
,22.2434132,1.484375
,22.2439112,1.42578125
,22.2649562,1.357421875
,22.3067637,1.2841796875
,22.307078,1.2158203125
,22.3230689,1.171875
,22.3591258,1.1279296875
,22.3635348,1.103515625
,22.3989027,1.07421875
,22.4308692,1.044921875
,22.431956,1.0107421875
,22.4461414,0.986328125
,22.4636494,0.95703125
,22.4987882,0.9423828125
,22.5016645,0.9326171875
,22.538292,0.9033203125
,22.5595994,0.8837890625
,22.5642127,0.8544921875
,22.6163203,0.8154296875
,22.6168237,0.771484375
,22.6241418,0.7275390625
,22.6608677,0.68359375
,22.6813658,0.6689453125
,22.6816891,0.7275390625
,22.7177245,0.8984375
,22.7381591,1.11328125
,22.7445642,1.3623046875
,22.7806896,1.5625
,22.7859709,1.748046875
,22.8193737,1.8896484375
,22.8402053,1.97265625
,22.8461082,2.03125
,22.8623522,2.05078125
,22.9115065,2.060546875
,22.9118664,2.01171875
,22.940516,1.923828125
,22.9457636,1.806640625
,22.9885259,1.689453125
,22.9888496,1.58203125
,23.0082893,1.494140625
,23.0242065,1.4111328125
,23.0649051,1.357421875
,23.0652283,1.30859375
,23.1126073,1.2548828125
,23.113064,1.19140625
,23.1330164,1.1376953125
,23.1458494,1.0693359375
,23.1802337,0.99609375
,23.2007193,0.927734375
,23.2041652,0.8544921875
,23.2543395,0.80078125
,23.254833,0.7470703125
,23.2635195,0.6982421875
,23.2998842,0.6494140625
,23.3207139,0.60546875
,23.3259112,0.5615234375
,23.3615482,0.517578125
,23.3619009,0.4736328125
,23.3989323,0.4541015625
,23.4045304,0.4248046875
,23.441153,0.41015625
,23.4443442,0.3955078125
,23.4805361,0.380859375
,23.4856943,0.3857421875
,23.5382062,0.4296875
,23.5385921,0.5810546875
,23.5481043,0.810546875
,23.5833623,1.11328125
,23.5838736,1.396484375
,23.6208303,1.689453125
,23.6260351,1.923828125
,23.6454188,2.12890625
,23.692167,2.2607421875
,23.6926566,2.36328125
,23.7071888,2.4169921875
,23.7445243,2.4560546875
,23.7450119,2.4365234375
,23.7648963,2.392578125
,23.7854056,2.294921875
,23.8198287,2.1826171875
,23.8258807,2.080078125
,23.860635,1.9970703125
,23.8649355,1.93359375
,23.9000298,1.875
,23.9195216,1.8212890625
,23.9254925,1.7578125
,23.9434747,1.6943359375
,23.986715,1.611328125
,23.9870414,1.5087890625
,24.0071997,1.4013671875
,24.0258529,1.279296875
,24.0481018,1.162109375
,24.0688531,1.0595703125
,24.0891394,0.9765625
,24.1050168,0.8984375
,24.1412488,0.849609375
,24.1441853,0.7958984375
,24.1826944,0.76171875
,24.1881104,0.7177734375
,24.2245639,0.673828125
,24.2250638,0.6201171875
,24.2684857,0.5712890625
,24.2690014,0.517578125
,24.2997182,0.439453125
,24.3066691,0.41015625
,24.3258724,0.4296875
,24.3754159,0.52734375
,24.3757384,0.732421875
,24.4074661,0.9765625
,24.4079604,1.259765625
,24.4444148,1.5087890625
,24.4509849,1.7041015625
,24.4695702,1.8798828125
,24.4855919,1.9970703125
,24.5073906,2.08984375
,24.526434,2.138671875
,24.5653549,2.1484375
,24.5658483,2.1044921875
,24.6024327,2.0068359375
,24.6080101,1.8798828125
,24.6579187,1.7431640625
,24.6582624,1.630859375
,24.6660101,1.5478515625
,24.7008988,1.474609375
,24.721552,1.4208984375
,24.726101,1.3720703125
,24.7612267,1.3232421875
,24.7820691,1.26953125
,24.7890266,1.2109375
,24.8235094,1.15234375
,24.8239932,1.0888671875
,24.8609781,1.0302734375
,24.8821396,0.966796875
,24.8875949,0.908203125
,24.9243104,0.8447265625
,24.9269929,0.7958984375
,24.9658391,0.7373046875
,24.966291,0.693359375
,24.9854399,0.6396484375
,25.0344577,0.6103515625
,25.0349666,0.576171875
,25.0466749,0.5517578125
,25.0955066,0.52734375
,25.0958236,0.5029296875
,25.1073661,0.4931640625
,25.142929,0.5029296875
,25.1632923,0.5908203125
,25.1688627,0.7666015625
,25.2069436,1.03515625
,25.2072903,1.30859375
,25.2431042,1.5869140625
,25.2457948,1.826171875
,25.2819919,2.021484375
,25.2858403,2.1630859375
,25.3312269,2.2705078125
,25.3317658,2.333984375
,25.3478078,2.36328125
,25.3926988,2.34375
,25.3931777,2.265625
,25.4066069,2.1484375
,25.4421063,2.0068359375
,25.447526,1.875
,25.4679892,1.7529296875
,25.5171636,1.640625
,25.5176806,1.54296875
,25.5305422,1.4404296875
,25.5473274,1.3427734375
,25.5821902,1.259765625
,25.5862032,1.1767578125
,25.6212079,1.09375
,25.6408255,1.0205078125
,25.6483354,0.9423828125
,25.6824758,0.8642578125
,25.704032,0.791015625
,25.7104205,0.7275390625
,25.7259828,0.654296875
,25.7595207,0.595703125
,25.7812287,0.52734375
,25.7867962,0.46875
,25.8243864,0.3955078125
,25.8294186,0.3271484375
,25.8447715,0.263671875
,25.8904394,0.244140625
,25.8907963,0.2197265625
,25.9206075,0.1806640625
,25.9250192,0.21484375
,25.969108,0.3759765625
,25.9695035,0.6103515625
,26.0003842,0.9228515625
,26.0097508,1.240234375
,26.0616992,1.50390625
,26.0620288,1.7529296875
,26.0695304,1.9287109375
,26.1070483,2.0751953125
,26.1073674,2.1484375
,26.1535038,2.1875
,26.1539996,2.158203125
,26.167524,2.0947265625
,26.2024141,1.9775390625
,26.223431,1.845703125
,26.2308286,1.7138671875
,26.277193,1.6064453125
,26.2775007,1.533203125
,26.2864124,1.484375
,26.339765,1.4453125
,26.340237,1.40625
,26.3476677,1.3623046875
,26.3841787,1.3037109375
,26.3887909,1.25
,26.4261715,1.19140625
,26.4313264,1.1279296875
,26.4476949,1.0791015625
,26.4685511,1.0546875
,26.5100505,1.025390625
,26.5103671,0.9912109375
,26.5467731,0.9716796875
,26.5498464,0.9423828125
,26.5875785,0.9228515625
,26.5901527,0.908203125
,26.6085432,0.8837890625
,26.627732,0.8642578125
,26.6622204,0.849609375
,26.6836881,0.810546875
,26.6885301,0.791015625
,26.7287162,0.80078125
,26.7291081,0.8935546875
,26.7491815,1.0595703125
,26.7886867,1.298828125
,26.7892439,1.5283203125
,26.8237787,1.767578125
,26.8443415,1.9482421875
,26.846559,2.1240234375
,26.9010431,2.2265625
,26.901434,2.3095703125
,26.9096132,2.34375
,26.9466513,2.353515625
,26.9501692,2.3095703125
,26.987295,2.2216796875
,26.9920644,2.0751953125
,27.008383,1.9091796875
,27.0434279,1.7578125
,27.0498723,1.6259765625
,27.0696612,1.50390625
,27.0915589,1.4111328125
,27.1279976,1.328125
,27.1285818,1.2451171875
,27.1648429,1.162109375
,27.1844748,1.083984375
,27.1879449,1.0205078125
,27.2236629,0.9521484375
,27.2290909,0.888671875
,27.2748128,0.8251953125
,27.2751781,0.76171875
,27.2915415,0.712890625
,27.3278895,0.654296875
,27.3330714,0.6103515625
,27.3491901,0.556640625
,27.3844233,0.5126953125
,27.3892169,0.4541015625
,27.4237959,0.3955078125
,27.4452133,0.33203125
,27.4497733,0.263671875
,27.4660812,0.185546875
,27.5036334,0.1611328125
,27.525583,0.1513671875
,27.5259125,0.1904296875
,27.5636528,0.3076171875
,27.5839701,0.4931640625
,27.5903831,0.673828125
,27.627801,0.83984375
,27.6283929,0.9326171875
,27.6802386,0.9228515625
,27.6807202,0.869140625
,27.7006655,0.791015625
,27.7126607,0.703125
,27.7301084,0.6103515625
,27.7652088,0.5859375
,27.7699842,0.6005859375
,27.8142507,0.673828125
,27.8147681,0.78125
,27.8306381,0.8984375
,27.8677278,1.0205078125
,27.8725437,1.1474609375
,27.8869535,1.26953125
,27.9071894,1.42578125
,27.9454555,1.5771484375
,27.9501601,1.7041015625
,28.0015852,1.8212890625
,28.0020884,1.9140625
,28.0096259,2.001953125
,28.0487497,2.060546875
,28.0695653,2.109375
,28.0698908,2.1484375
,28.0896292,2.197265625
,28.132998,2.2314453125
,28.1334977,2.255859375
,28.1507371,2.255859375
,28.1884995,2.2509765625
,28.1932464,2.2509765625
,28.2441346,2.2509765625
,28.2446384,2.2265625
,28.2491745,2.099609375
,28.2854289,1.8994140625
,28.2905086,1.796875
,28.3370681,1.8603515625
,28.3373984,2.03125
,28.353088,2.294921875
,28.3989425,2.5732421875
,28.3993175,2.900390625
,28.4122118,3.18359375
,28.4346911,3.3935546875
,28.451856,3.525390625
,28.4720213,3.623046875
,28.491204,3.6376953125
,28.5263703,3.5888671875
,28.5329723,3.4619140625
,28.5689967,3.271484375
,28.5720191,3.037109375
,28.5922531,2.802734375
,28.645462,2.607421875
,28.6458258,2.451171875
,28.6485396,2.3388671875
,28.6919473,2.2119140625
,28.692273,2.1142578125
,28.7207086,2.01171875
,28.7318241,1.9091796875
,28.7663743,1.796875
,28.7854426,1.6943359375
,28.7893389,1.5966796875
,28.8261229,1.5185546875
,28.8461794,1.4404296875
,28.8524615,1.3720703125
,28.8860187,1.3037109375
,28.8913284,1.2548828125
,28.927551,1.201171875
,28.9340109,1.1474609375
,28.9537139,1.09375
,28.969272,1.0400390625
,29.0190742,0.99609375
,29.0195654,0.95703125
,29.0296797,0.91796875
,29.0681826,0.9033203125
,29.0733332,0.9521484375
,29.1116483,1.0888671875
,29.1119729,1.3134765625
,29.1293431,1.5576171875
,29.1751602,1.8310546875
,29.175641,2.060546875
,29.2064497,2.265625
,29.2113308,2.44140625
,29.2485761,2.548828125
,29.2531966,2.646484375
,29.2992511,2.6806640625
,29.2996617,2.6708984375
,29.3135555,2.5732421875
,29.3492719,2.421875
,29.3495956,2.24609375
,29.3865625,2.0947265625
,29.3904716,1.9677734375
,29.4376315,1.875
,29.4383201,1.77734375
,29.4577075,1.689453125
,29.4751858,1.6015625
,29.511675,1.5185546875
,29.5121417,1.42578125
,29.5619235,1.357421875
,29.56243,1.2744140625
,29.5701318,1.1865234375
,29.6068083,1.0986328125
,29.6125362,1.005859375
,29.6501188,0.9228515625
,29.6554994,0.8447265625
,29.6770882,0.7763671875
,29.6910923,0.7080078125
,29.7323035,0.654296875
,29.7327061,0.595703125
,29.76196,0.52734375
,29.7735646,0.458984375
,29.8083953,0.400390625
,29.8087136,0.341796875
,29.8461498,0.3564453125
,29.8679772,0.4443359375
,29.8685392,0.595703125
,29.9174072,0.810546875
,29.9177198,1.0400390625
,29.9389156,1.2841796875
,29.9530077,1.474609375
,29.9951795,1.640625
,29.9957073,1.7578125
,30.013271000000003,1.8603515625
,30.0301688,1.9189453125
,30.0714665,1.9775390625
,30.071793,1.9384765625
,30.100675000000003,1.89453125
,30.1126888,1.77734375
,30.149080499999997,1.5966796875
,30.1698254,1.416015625
,30.172896899999998,1.2646484375
,30.2072597,1.162109375
,30.2278077,1.083984375
,30.2363281,1.015625
,30.2520605,0.9375
,30.288949600000002,0.8642578125
,30.291078,0.7568359375
,30.327636400000003,0.634765625
,30.348499599999997,0.5126953125
,30.354463600000003,0.3857421875
,30.371777700000003,0.2783203125
,30.392040899999998,0.21484375
,30.431034599999997,0.15625
,30.431347000000002,0.078125
,30.477882800000003,0.0146484375
,30.4786491,0.0048828125
,30.495553700000002,0.0048828125
,30.5116625,0.0048828125
,30.5430626,0.0048828125
,30.5506289,0.0048828125
,30.5857898,0.0048828125
,30.606780399999998,0.0048828125
,30.613638899999998,0.0048828125
,30.650633399999997,0.0048828125
,30.6509589,0.0244140625
,30.696911299999996,0.2001953125
,30.697415999999997,0.48828125
,30.715749199999998,0.7861328125
,30.751464300000002,1.0986328125
,30.752060299999997,1.3525390625
,30.789782700000004,1.5771484375
,30.7924546,1.7529296875
,30.8262474,1.904296875
,30.8456859,2.0068359375
,30.854737200000002,2.060546875
,30.8888667,2.080078125
,30.8929482,2.03125
,30.9307442,1.9287109375
,30.951909200000003,1.8017578125
,30.9569094,1.669921875
,30.973356799999998,1.5576171875
,31.007886,1.474609375
,31.0294654,1.396484375
,31.034707400000002,1.3232421875
,31.070282499999998,1.2548828125
,31.0749724,1.19140625
,31.1123925,1.123046875
,31.1177875,1.0546875
,31.1540187,0.9912109375
,31.1545111,0.91796875
,31.190349500000004,0.8642578125
,31.1933035,0.80078125
,31.229095200000003,0.751953125
,31.2497715,0.693359375
,31.256424699999997,0.6494140625
,31.3059237,0.6005859375
,31.3064227,0.5615234375
,31.3115107,0.517578125
,31.3476353,0.4931640625
,31.3696183,0.458984375
,31.3742085,0.4296875
,31.4134527,0.3955078125
,31.413923099999998,0.3857421875
,31.430737800000003,0.400390625
,31.4549278,0.56640625
,31.492358199999998,0.7666015625
,31.510758600000003,1.0107421875
,31.5152542,1.279296875
,31.5333982,1.50390625
,31.582609400000003,1.708984375
,31.5831036,1.875
,31.603347399999997,2.0068359375
,31.6170873,2.08984375
,31.651902399999997,2.1484375
,31.652227500000002,2.1630859375
,31.6900939,2.138671875
,31.6954644,2.0556640625
,31.7388204,1.9384765625
,31.739319700000003,1.806640625
,31.753384099999998,1.669921875
,31.790563,1.5625
,31.810875699999997,1.4599609375
,31.8169294,1.376953125
,31.862296399999998,1.2939453125
,31.862816600000002,1.220703125
,31.874605799999998,1.142578125
,31.9245296,1.0693359375
,31.924839499999997,0.9912109375
,31.935298799999998,0.91796875
,31.972083499999997,0.8349609375
,31.9768478,0.7666015625
,32.0185703,0.693359375
,32.0188802,0.625
,32.0333767,0.556640625
,32.0811796,0.5126953125
,32.0815201,0.46875
,32.0960099,0.439453125
,32.1161394,0.4052734375
,32.1607413,0.361328125
,32.1610528,0.3173828125
,32.1724097,0.2685546875
,32.2237221,0.25390625
,32.2240305,0.244140625
,32.245,0.244140625
,32.2546311,0.3271484375
,32.3009791,0.52734375
,32.3012999,0.78125
,32.3168782,1.0693359375
,32.3625704,1.30859375
,32.3628879,1.533203125
,32.3750358,1.69921875
,32.3948173,1.85546875
,32.4422717,1.97265625
,32.442763,2.0458984375
,32.454872,2.0947265625
,32.4918139,2.0947265625
,32.496305,2.041015625
,32.5174946,1.93359375
,32.563158,1.8017578125
,32.563839,1.669921875
,32.5782308,1.5673828125
,32.5960493,1.435546875
,32.6155162,1.376953125
,32.6352112,1.30859375
,32.6741328,1.2353515625
,32.6744872,1.162109375
,32.7216801,1.083984375
,32.7220048,1.0009765625
,32.7533225,0.927734375
,32.7580805,0.8447265625
,32.7766834,0.7666015625
,32.7954348,0.6982421875
,32.8458396,0.634765625
,32.8462536,0.576171875
,32.8578905,0.5322265625
,32.8930711,0.5029296875
,32.8933837,0.4736328125
,32.9299717,0.4833984375
,32.949602,0.4833984375
,32.9547454,0.4443359375
,32.9906975,0.400390625
,33.0109357,0.37109375
,33.0170491,0.33203125
,33.0641562,0.322265625
,33.064464,0.3857421875
,33.0857011,0.5322265625
,33.0992918,0.78125
,33.1144406,1.0498046875
,33.1352675,1.337890625
,33.1728343,1.5673828125
,33.1773658,1.7724609375
,33.2188321,1.923828125
,33.2193114,2.05078125
,33.2359524,2.1337890625
,33.2740549,2.1923828125
,33.2746445,2.2021484375
,33.3119185,2.1826171875
,33.3145921,2.0947265625
,33.351017,1.9580078125
,33.3715997,1.8115234375
,33.3776621,1.6748046875
,33.4125266,1.5576171875
,33.4175553,1.455078125
,33.4686574,1.3623046875
,33.4692428,1.2744140625
,33.4807947,1.1865234375
,33.4977148,1.1083984375
,33.5157186,1.044921875
,33.5611559,0.9716796875
,33.5614549,0.8935546875
,33.5774137,0.8154296875
,33.615145,0.7373046875
,33.6207671,0.6640625
,33.6398221,0.6005859375
,33.6567419,0.5419921875
,33.6918815,0.48828125
,33.6966205,0.44921875
,33.7465294,0.400390625
,33.7468247,0.3564453125
,33.7565736,0.3125
,33.7931448,0.2734375
,33.7954647,0.224609375
,33.8313113,0.2197265625
,33.8519349,0.205078125
,33.8547979,0.1611328125
,33.8912688,0.17578125
,33.8975407,0.3076171875
,33.917231,0.517578125
,33.9534194,0.8056640625
,33.9587117,1.0888671875
,33.9961479,1.3525390625
,33.9964559,1.5576171875
,34.044629,1.7578125
,34.045136,1.9140625
,34.0567146,2.0166015625
,34.1068791,2.099609375
,34.1072477,2.1240234375
,34.1177874,2.109375
,34.1685905,2.0361328125
,34.1689492,1.9140625
,34.1752628,1.77734375
,34.2174511,1.650390625
,34.2177652,1.5478515625
,34.2488434,1.4453125
,34.256949,1.3525390625
,34.2782896,1.2744140625
,34.323855,1.19140625
,34.3243352,1.1083984375
,34.3450498,1.0302734375
,34.360102,0.947265625
,34.4014671,0.8642578125
,34.4018507,0.7861328125
,34.4185686,0.72265625
,34.4633359,0.654296875
,34.4638138,0.5908203125
,34.4776883,0.52734375
,34.5153086,0.4736328125
,34.5161603,0.419921875
,34.5368254,0.4296875
,34.5564524,0.41015625
,34.6034934,0.3662109375
,34.6039729,0.322265625
,34.6187399,0.283203125
,34.6640683,0.234375
,34.6644101,0.224609375
,34.6791192,0.2099609375
,34.6953564,0.234375
,34.7161972,0.390625
,34.76031,0.6201171875
,34.7608021,0.8935546875
,34.7781116,1.162109375
,34.8209616,1.42578125
,34.8214414,1.640625
,34.8392446,1.8212890625
,34.8598272,1.9482421875
,34.8943902,2.0556640625
,34.8976228,2.1142578125
,34.9462498,2.16796875
,34.9467176,2.1533203125
,34.9585078,2.0849609375
,34.9932883,1.9677734375
,34.9993343,1.8310546875
,35.0210697,1.6943359375
,35.0563503,1.58203125
,35.0589429,1.4892578125
,35.0791569,1.4013671875
,35.1002548,1.2841796875
,35.1174964,1.181640625
,35.1646333,1.1279296875
,35.1651194,1.0595703125
,35.178718,1.0009765625
,35.2148727,0.927734375
,35.220126,0.859375
,35.25794,0.78125
,35.2608431,0.703125
,35.2773886,0.625
,35.3127878,0.5810546875
,35.3329045,0.52734375
,35.3381617,0.46875
,35.3739294,0.419921875
,35.3796396,0.380859375
,35.4150711,0.341796875
,35.4153737,0.302734375
,35.4364173,0.3125
,35.477042,0.302734375
,35.4773544,0.2587890625
,35.4965373,0.224609375
,35.5379943,0.244140625
,35.5386805,0.3564453125
,35.5866022,0.5859375
,35.5869227,0.859375
,35.6160818,1.162109375
,35.6202221,1.435546875
,35.6539488,1.6552734375
,35.6568069,1.85546875
,35.6939679,2.0068359375
,35.715348,2.1337890625
,35.7205513,2.2119140625
,35.7573629,2.255859375
,35.7604482,2.2412109375
,35.805368,2.16796875
,35.8058526,2.05078125
,35.8194191,1.9189453125
,35.8398451,1.787109375
,35.8746091,1.6796875
,35.8805048,1.58203125
,35.9160486,1.494140625
,35.9215859,1.40625
,35.9582223,1.3330078125
,35.958719,1.2548828125
,36.0091543,1.1767578125
,36.0095373,1.09375
,36.0288542,1.015625
,36.0384618,0.9521484375
,36.0764233,0.8837890625
,36.079593,0.8203125
,36.1168604,0.7568359375
,36.1213536,0.6982421875
,36.1563585,0.634765625
,36.1614978,0.5810546875
,36.1800691,0.5322265625
,36.2170182,0.5078125
,36.219842,0.4736328125
,36.2548441,0.439453125
,36.2620506,0.41015625
,36.2807819,0.3759765625
,36.3204443,0.3369140625
,36.320927,0.302734375
,36.3378711,0.3369140625
,36.3584049,0.419921875
,36.392915,0.5810546875
,36.4131074,0.8203125
,36.4198542,1.1181640625
,36.4612185,1.3818359375
,36.4616631,1.640625
,36.4951874,1.8408203125
,36.517181,2.0166015625
,36.5177287,2.138671875
,36.5696422,2.24609375
,36.5702417,2.2998046875
,36.5802616,2.3291015625
,36.6173389,2.294921875
,36.6199864,2.2021484375
,36.65505,2.0654296875
,36.676121,1.9189453125
,36.6815348,1.77734375
,36.6977341,1.66015625
,36.7461508,1.5771484375
,36.7464947,1.4599609375
,36.7587578,1.3916015625
,36.795682,1.328125
,36.8156304,1.2548828125
,36.821575,1.1767578125
,36.8568903,1.1083984375
,36.8609339,1.0302734375
,36.898645,0.966796875
,36.9334681,0.9033203125
,36.934028,0.830078125
,36.9399568,0.78125
,36.9780409,0.7177734375
,36.9823152,0.673828125
,37.0268342,0.6201171875
,37.0273393,0.5810546875
,37.0415057,0.537109375
,37.0795415,0.5078125
,37.0799527,0.4638671875
,37.1189194,0.439453125
,37.1193876,0.41015625
,37.1400325,0.3857421875
,37.1745239,0.3466796875
,37.195395,0.341796875
,37.1959946,0.3857421875
,37.243243,0.60546875
,37.2437355,0.859375
,37.2641679,1.1376953125
,37.2815874,1.4306640625
,37.3009383,1.6748046875
,37.3359577,1.8994140625
,37.3406425,2.0654296875
,37.3823479,2.20703125
,37.3826888,2.294921875
,37.4039802,2.3486328125
,37.4204874,2.36328125
,37.4618534,2.3388671875
,37.4621755,2.2509765625
,37.4814353,2.119140625
,37.5240396,1.9677734375
,37.5243897,1.8310546875
,37.5432381,1.7138671875
,37.579237,1.6064453125
,37.5866223,1.513671875
,37.6035605,1.4306640625
,37.6393291,1.328125
,37.6398123,1.259765625
,37.6765714,1.19140625
,37.6971572,1.1279296875
,37.7027343,1.0546875
,37.7370567,0.9814453125
,37.7564041,0.91796875
,37.7635725,0.849609375
,37.7998954,0.78125
,37.8002772,0.712890625
,37.8208368,0.654296875
,37.8631828,0.6005859375
,37.8636636,0.5615234375
,37.8831199,0.517578125
,37.9229824,0.46875
,37.9234683,0.4296875
,37.9390267,0.380859375
,37.9755426,0.3759765625
,37.9953131,0.3515625
,38.0005853,0.302734375
,38.0358046,0.2685546875
,38.0568255,0.3125
,38.0645402,0.4443359375
,38.083433,0.6982421875
,38.1176153,0.9765625
,38.1401397,1.279296875
,38.1406218,1.5234375
,38.1763684,1.7578125
,38.1824836,1.9287109375
,38.217078,2.0556640625
,38.2220255,2.1435546875
,38.2558535,2.1923828125
,38.2773304,2.2119140625
,38.2851401,2.1630859375
,38.3238761,2.0556640625
,38.3242614,1.923828125
,38.3414023,1.7919921875
,38.3869803,1.6650390625
,38.3873844,1.5625
,38.402353,1.46484375
,38.4494819,1.376953125
,38.4497844,1.2939453125
,38.4637688,1.2109375
,38.5119228,1.1279296875
,38.5125653,1.044921875
,38.525431,0.9619140625
,38.541232,0.87890625
,38.5902369,0.7958984375
,38.5911513,0.703125
,38.6027099,0.6103515625
,38.6391255,0.517578125
,38.6670417,0.4296875
,38.6675457,0.3466796875
,38.6812646,0.3076171875
,38.7261669,0.25390625
,38.7265609,0.1708984375
,38.7425969,0.107421875
,38.7630922,0.068359375
,38.7807116,0.0341796875
,38.804265,0.048828125
,38.8403637,0.0537109375
,38.8407063,0.0048828125
,38.8794972,0.0634765625
,38.9109853,0.1953125
,38.9114274,0.4052734375
,38.9229966,0.6689453125
,38.9459386,0.9716796875
,38.9635658,1.220703125
,39.0000937,1.455078125
,39.0028511,1.6259765625
,39.0399581,1.77734375
,39.0404634,1.875
,39.0780208,1.9580078125
,39.1007527,1.9873046875
,39.1012798,1.9677734375
,39.1394087,1.8896484375
,39.1422372,1.787109375
,39.180019,1.6650390625
,39.2111473,1.552734375
,39.2116204,1.4501953125
,39.2263857,1.3623046875
,39.2469927,1.2451171875
,39.2636156,1.1474609375
,39.3011246,1.09375
,39.3017494,1.025390625
,39.3491795,0.947265625
,39.349481,0.859375
,39.3701394,0.7666015625
,39.3871143,0.673828125
,39.4061144,0.5810546875
,39.4237306,0.4931640625
,39.4430665,0.439453125
,39.4631231,0.390625
,39.4851497,0.3125
,39.5060938,0.244140625
,39.5263621,0.15625
,39.5418207,0.048828125
,39.5808159,0.0048828125
,39.581281,0.0048828125
,39.6023513,0.0048828125
,39.6223898,0.0048828125
,39.6594014,0.0048828125
,39.6800476,0.0048828125
,39.6806268,0.0048828125
,39.7229825,0.01953125
,39.7232973,0.341796875
,39.7533447,0.6689453125
,39.7623788,0.908203125
,39.7997129,1.1767578125
,39.8025726,1.416015625
,39.8411101,1.6259765625
,39.8434914,1.8310546875
,39.8804576,1.9873046875
,39.8854342,2.1142578125
,39.9210598,2.16796875
,39.9262282,2.158203125
,39.942655,2.0654296875
,39.9775624,1.953125
,39.9830189,1.8359375
,40.0314474,1.7236328125
,40.0318355,1.62109375
,40.0461658,1.5234375
,40.0955561,1.4208984375
,40.0958812,1.3232421875
,40.1070376,1.2353515625
,40.155866,1.15234375
,40.1565349,1.0888671875
,40.163133,1.0400390625
,40.2018986,1.0205078125
,40.2230797,0.99609375
,40.225543,0.9716796875
,40.2630348,0.9423828125
,40.2677305,0.9130859375
,40.2878622,0.8740234375
,40.3229898,0.849609375
,40.3233119,0.8056640625
,40.372823,0.7861328125
,40.3732966,0.7470703125
,40.3924067,0.703125
,40.4049309,0.654296875
,40.4500472,0.625
,40.4504099,0.615234375
,40.4678743,0.6689453125
,40.4883901,0.8349609375
,40.5034463,1.07421875
,40.5387819,1.3623046875
,40.5439324,1.6259765625
,40.5889937,1.8701171875
,40.5894678,2.0458984375
,40.6100559,2.1875
,40.6259351,2.2607421875
,40.6661533,2.3046875
,40.6666301,2.3046875
,40.686848,2.28515625
,40.7055427,2.2119140625
,40.7430619,2.1044921875
,40.7433711,1.9580078125
,40.7774022,1.8017578125
,40.7984471,1.611328125
,40.8080186,1.4501953125
,40.8522896,1.3037109375
,40.8527733,1.1669921875
,40.8635911,1.064453125
,40.8991994,0.986328125
,40.9056115,0.9423828125
,40.9459818,0.9130859375
,40.9463458,0.888671875
,40.9668633,0.849609375
,41.0074436,0.8203125
,41.0079247,0.80078125
,41.0547895,0.7958984375
,41.0550915,0.7861328125
,41.0846387,0.7958984375
,41.0851092,0.7861328125
,41.1067027,0.78125
,41.1268641,0.7861328125
,41.1626251,0.791015625
,41.1678099,0.7861328125
,41.2114067,0.7763671875
,41.2117231,0.7763671875
,41.2255236,0.7958984375
,41.2446398,0.8740234375
,41.2832283,1.0302734375
,41.2837229,1.2548828125
,41.3177796,1.494140625
,41.3388541,1.748046875
,41.3468135,1.943359375
,41.3967552,2.1044921875
,41.3971304,2.2265625
,41.4061468,2.294921875
,41.4259992,2.3388671875
,41.4753381,2.3486328125
,41.4758458,2.3388671875
,41.4884561,2.2705078125
,41.5078388,2.1630859375
,41.5523496,2.01171875
,41.5528216,1.8603515625
,41.5648174,1.728515625
,41.5849042,1.640625
,41.6196749,1.5625
,41.6400094,1.4990234375
,41.6459585,1.4306640625
,41.6829058,1.357421875
,41.6876149,1.2744140625
,41.7257742,1.1962890625
,41.7260886,1.11328125
,41.7482078,1.0302734375
,41.7697534,0.9228515625
,41.7862741,0.830078125
,41.8209583,0.791015625
,41.826849,0.7470703125
,41.8648865,0.72265625
,41.8652201,0.703125
,41.9115735,0.6787109375
,41.9120414,0.654296875
,41.9421394,0.615234375
,41.9475781,0.576171875
,41.9659623,0.5517578125
,42.001653,0.5078125
,42.006952,0.4638671875
,42.0423608,0.4638671875
,42.0473782,0.537109375
,42.0965178,0.7373046875
,42.0969358,0.9814453125
,42.116586,1.2548828125
,42.1244431,1.4794921875
,42.1625797,1.69921875
,42.1657045,1.845703125
,42.2015198,1.97265625
,42.2075673,2.0556640625
,42.2279977,2.1240234375
,42.2653038,2.1435546875
,42.2702005,2.1337890625
,42.2846154,2.060546875
,42.3059994,1.953125
,42.3434526,1.8115234375
,42.3440396,1.6796875
,42.3800778,1.5576171875
,42.401283,1.455078125
,42.4093463,1.3671875
,42.4604649,1.2841796875
,42.4609604,1.2109375
,42.4669509,1.1376953125
,42.5055968,1.07421875
,42.5059073,1.0107421875
,42.5542201,0.9375
,42.5545389,0.8642578125
,42.5856768,0.7861328125
,42.5861575,0.7080078125
,42.6223144,0.6298828125
,42.6418079,0.5517578125
,42.6445736,0.4833984375
,42.6936802,0.458984375
,42.6939757,0.4248046875
,42.7150725,0.3515625
,42.7285404,0.283203125
,42.7481617,0.2197265625
,42.7878917,0.15625
,42.7881952,0.09765625
,42.8056896,0.0439453125
,42.8438542,0.0537109375
,42.8648625,0.068359375
,42.8663341,0.1318359375
,42.9011296,0.263671875
,42.9221832,0.478515625
,42.9262284,0.72265625
,42.9620109,0.9716796875
,42.9830876,1.1669921875
,42.9913628,1.3427734375
,43.0281333,1.474609375
,43.0286036,1.5576171875
,43.0475273,1.6357421875
,43.0819805,1.6748046875
,43.0882101,1.669921875
,43.1284467,1.611328125
,43.1287515,1.5087890625
,43.178209,1.3720703125
,43.178535,1.2158203125
,43.1858977,1.07421875
,43.223035,0.9423828125
,43.2280457,0.8251953125
,43.2715758,0.7177734375
,43.2719141,0.6103515625
,43.2869747,0.5126953125
,43.333445,0.419921875
,43.3338957,0.3369140625
,43.3543015,0.29296875
,43.3665807,0.244140625
,43.4109511,0.1708984375
,43.4112545,0.0927734375
,43.4300565,0.0341796875
,43.4443284,0.0048828125
,43.4894935,0.0048828125
,43.4899751,0.0048828125
,43.5207034,0.0048828125
,43.5274773,0.0048828125
,43.5465194,0.0048828125
,43.5658658,0.0048828125
,43.6032035,0.0048828125
,43.6302667,0.0048828125
,43.6312212,0.0048828125
,43.649122,0.0048828125
,43.6842655,0.0048828125
,43.684629,0.0048828125
,43.7054949,0.0048828125
,43.7430938,0.0048828125
,43.768684,0.0927734375
,43.7690816,0.3173828125
,43.80587,0.56640625
,43.8110025,0.8349609375
,43.8477909,1.0595703125
,43.8502113,1.2548828125
,43.8706859,1.40625
,43.9103702,1.552734375
,43.9107609,1.650390625
,43.9413992,1.7431640625
,43.947367,1.8017578125
,43.9689913,1.806640625
,44.0051899,1.7626953125
,44.0095986,1.6796875
,44.0450817,1.5771484375
,44.0657262,1.4794921875
,44.0703266,1.396484375
,44.0879038,1.318359375
,44.1280001,1.2646484375
,44.1283876,1.201171875
,44.1727828,1.1474609375
,44.173241,1.0791015625
,44.1910077,1.015625
,44.2350461,0.947265625
,44.2353547,0.87890625
,44.2510522,0.80078125
,44.2713044,0.7080078125
,44.3078452,0.6494140625
,44.3081527,0.5859375
,44.34384,0.537109375
,44.3743329,0.4833984375
,44.3746506,0.439453125
,44.3908477,0.3955078125
,44.4116121,0.3662109375
,44.4277868,0.33203125
,44.4617453,0.3515625
,44.4837104,0.3564453125
,44.4885294,0.3125
,44.527946,0.2734375
,44.5282826,0.244140625
,44.57589,0.21484375
,44.576385,0.1953125
,44.6064113,0.2294921875
,44.6067319,0.322265625
,44.6516728,0.556640625
,44.6524543,0.76171875
,44.6716598,1.005859375
,44.6889349,1.201171875
,44.7231282,1.3818359375
,44.7435912,1.5185546875
,44.7499158,1.6455078125
,44.7889945,1.7333984375
,44.7917313,1.8115234375
,44.8066817,1.8505859375
,44.8443727,1.875
,44.8490121,1.845703125
,44.8698478,1.7724609375
,44.9183437,1.6845703125
,44.9187343,1.62109375
,44.9315872,1.5576171875
,44.9666504,1.4892578125
,44.9872752,1.435546875
,44.9878401,1.376953125
,45.0235867,1.3232421875
,45.0286184,1.26953125
,45.0649756,1.2158203125
,45.0705875,1.1572265625
,45.1065686,1.0888671875
,45.1111192,1.025390625
,45.1493693,0.95703125
,45.1542109,0.888671875
,45.1737757,0.830078125
,45.1911062,0.76171875
,45.2100716,0.712890625
,45.2606923,0.68359375
,45.2611695,0.6396484375
,45.2702763,0.60546875
,45.3103063,0.5712890625
,45.3106931,0.537109375
,45.3470461,0.498046875
,45.3701364,0.4638671875
,45.3706137,0.46875
,45.4047378,0.4296875
,45.4103633,0.3955078125
,45.4468824,0.3955078125
,45.4517297,0.4443359375
,45.4879321,0.576171875
,45.4927111,0.76171875
,45.5128975,0.9814453125
,45.5298524,1.1669921875
,45.5715029,1.357421875
,45.5719607,1.513671875
,45.5930203,1.630859375
,45.6115079,1.7333984375
,45.6503329,1.8017578125
,45.6507975,1.85546875
,45.697419,1.8798828125
,45.6980433,1.8603515625
,45.7180718,1.8017578125
,45.7293228,1.728515625
,45.7742628,1.650390625
,45.774628,1.5771484375
,45.7916649,1.5087890625
,45.8285427,1.455078125
,45.8315875,1.3916015625
,45.8662128,1.3330078125
,45.8888003,1.279296875
,45.8934668,1.2158203125
,45.915005,1.1279296875
,45.9298946,1.0498046875
,45.9769421,1.015625
,45.9772477,0.966796875
,46.0077028,0.91796875
,46.0123327,0.8642578125
,46.0480073,0.810546875
,46.0529965,0.7568359375
,46.1004222,0.7080078125
,46.1007313,0.654296875
,46.121822,0.6201171875
,46.132239,0.5859375
,46.1515568,0.5517578125
,46.1958269,0.517578125
,46.1962815,0.4833984375
,46.2268389,0.44921875
,46.2273135,0.41015625
,46.2668757,0.4150390625
,46.2876131,0.4052734375
,46.2920956,0.380859375
,46.3353828,0.4248046875
,46.3357234,0.56640625
,46.3507687,0.7568359375
,46.3870049,0.9765625
,46.3918697,1.181640625
,46.4298276,1.3671875
,46.4301326,1.5185546875
,46.4665801,1.6748046875
,46.4721396,1.787109375
,46.5232592,1.884765625
,46.523734,1.9580078125
,46.5329108,1.982421875
,46.5704771,1.9677734375
,46.5735275,1.9091796875
,46.6081186,1.8310546875
,46.6293335,1.7333984375
,46.6298511,1.6552734375
,46.6795948,1.572265625
,46.68,1.50390625
,46.6939021,1.4306640625
,46.7131275,1.3623046875
,46.7330026,1.2890625
,46.7695311,1.2158203125
,46.790839,1.1376953125
,46.7965915,1.044921875
,46.8111817,0.95703125
,46.8476945,0.8984375
,46.8507685,0.8251953125
,46.8893022,0.751953125
,46.8923501,0.68359375
,46.9272979,0.615234375
,46.9481138,0.556640625
,46.9535267,0.5029296875
,47.0011486,0.4541015625
,47.0014795,0.44921875
,47.0225906,0.400390625
,47.0322864,0.3515625
,47.0531215,0.2978515625
,47.0726375,0.25390625
,47.1094815,0.2197265625
,47.1098863,0.17578125
,47.1465218,0.185546875
,47.1744381,0.2099609375
,47.1749157,0.2685546875
,47.1918223,0.3857421875
,47.2121137,0.56640625
,47.2499236,0.8154296875
,47.254961,1.03515625
,47.2742003,1.25
,47.3139028,1.416015625
,47.3142831,1.572265625
,47.3296838,1.6845703125
,47.3653092,1.796875
,47.3860381,1.8701171875
,47.393824,1.9140625
,47.4383038,1.904296875
,47.4386133,1.85546875
,47.4535618,1.7724609375
,47.4745177,1.6943359375
,47.5103086,1.6162109375
,47.5107861,1.54296875
,47.548623,1.4892578125
,47.5686684,1.4306640625
,47.5717336,1.3671875
,47.6124826,1.298828125
,47.6127881,1.2353515625
,47.6334018,1.1669921875
,47.6697494,1.0986328125
,47.6755672,1.025390625
,47.7126718,0.95703125
,47.7132547,0.888671875
,47.7325828,0.83984375
,47.7855525,0.7763671875
,47.7860501,0.72265625
,47.7936003,0.673828125
,47.8297177,0.625
,47.8352788,0.5810546875
,47.8569703,0.546875
,47.894167,0.5126953125
,47.8946428,0.46875
,47.9294692,0.4345703125
,47.9319448,0.3955078125
,47.9673977,0.361328125
,47.9889455,0.322265625
,47.9962232,0.3076171875
,48.012937,0.322265625
,48.0361372,0.4638671875
,48.0526247,0.6640625
,48.0979301,0.8837890625
,48.0982997,1.0986328125
,48.1132575,1.318359375
,48.161521,1.5087890625
,48.1619943,1.6455078125
,48.1924044,1.77734375
,48.1953653,1.865234375
,48.230401,1.9384765625
,48.2308706,1.9677734375
,48.2522938,1.9775390625
,48.3015285,1.923828125
,48.3020025,1.8359375
,48.3324818,1.728515625
,48.3328026,1.62109375
,48.3688641,1.5283203125
,48.3913128,1.4501953125
,48.3958248,1.3720703125
,48.4176836,1.26953125
,48.4554615,1.181640625
,48.455796,1.123046875
,48.4741653,1.0693359375
,48.5086203,1.005859375
,48.5293286,0.9423828125
,48.5358306,0.8740234375
,48.5568011,0.80078125
,48.5901299,0.732421875
,48.5944982,0.6640625
,48.6129908,0.6005859375
,48.6590993,0.556640625
,48.6594146,0.5078125
,48.6880964,0.478515625
,48.6967765,0.439453125
,48.7164261,0.4052734375
,48.7323057,0.37109375
,48.7833583,0.3857421875
,48.7836618,0.3857421875
,48.8157361,0.3662109375
,48.8162326,0.3173828125
,48.8503625,0.2734375
,48.8541877,0.2587890625
,48.8888061,0.3076171875
,48.9081083,0.4638671875
,48.915949,0.6787109375
,48.95076,0.9423828125
,48.97231,1.181640625
,48.9727589,1.4208984375
,49.0083478,1.611328125
,49.0286974,1.787109375
,49.0344074,1.9189453125
,49.0765618,2.0166015625
,49.0769331,2.08984375
,49.0976152,2.1044921875
,49.134469,2.0751953125
,49.1349258,1.9921875
,49.1540962,1.89453125
,49.2011321,1.7724609375
,49.2016553,1.66015625
,49.2165782,1.5576171875
,49.2517822,1.46484375
,49.2545572,1.376953125
,49.2916871,1.298828125
,49.2962907,1.2109375
,49.331784,1.1376953125
,49.3535355,1.0546875
,49.3540051,0.986328125
,49.3906824,0.9130859375
,49.3960828,0.849609375
,49.4363638,0.78125
,49.4367856,0.712890625
,49.4738025,0.64453125
,49.4765567,0.5859375
,49.5144182,0.517578125
,49.5147618,0.4638671875
,49.5358037,0.4296875
,49.5568568,0.3955078125
,49.6062483,0.3662109375
,49.6067133,0.3369140625
,49.6152857,0.2978515625
,49.6323688,0.263671875
,49.652038,0.2783203125
,49.6895079,0.283203125
,49.6955197,0.244140625
,49.7313841,0.2734375
,49.7377495,0.3662109375
,49.7560368,0.5712890625
,49.8069486,0.8056640625
,49.8074222,1.083984375
,49.8177701,1.30859375
,49.8549991,1.5185546875
,49.8554774,1.6748046875
,49.8742895,1.826171875
,49.8945876,1.923828125
,49.9474614,2.0068359375
,49.9477818,2.041015625
,49.9564644,2.0361328125
,49.9929932,1.97265625
,49.9969652,1.8701171875
,50.0138982,1.7431640625
,50.0485403,1.650390625
,50.0700145,1.5185546875
,50.0747742,1.40625
,50.1187739,1.357421875
,50.1190776,1.3037109375
,50.1380827,1.240234375
,50.1749378,1.1767578125
,50.1755204,1.1083984375
,50.2277706,1.03515625
,50.2282337,0.9619140625
,50.2332292,0.8935546875
,50.2708256,0.830078125
,50.2766346,0.7666015625
,50.3231111,0.712890625
,50.3236652,0.654296875
,50.3390716,0.6103515625
,50.3575126,0.576171875
,50.4001709,0.537109375
,50.4006537,0.498046875
,50.4150261,0.4638671875
,50.4369911,0.439453125
,50.4561121,0.41015625
,50.4915983,0.3857421875
,50.49725,0.3564453125
,50.5326531,0.341796875
,50.5329727,0.341796875
,50.57231,0.4736328125
,50.5923009,0.6591796875
,50.5949934,0.8837890625
,50.6359361,1.1279296875
,50.6362547,1.3671875
,50.6663922,1.5673828125
,50.6776217,1.7529296875
,50.7135966,1.8994140625
,50.7186738,1.9921875
,50.7391594,2.0654296875
,50.7543124,2.099609375
,50.792739,2.1044921875
,50.79475,2.05078125
,50.8304413,1.953125
,50.8511996,1.826171875
,50.8564318,1.7041015625
,50.8942076,1.5869140625
,50.8977307,1.494140625
,50.9184267,1.40625
,50.9613366,1.30859375
,50.9616574,1.2451171875
,50.9827775,1.201171875
,50.9977903,1.1474609375
,51.0404887,1.0888671875
,51.0408204,1.025390625
,51.059966,0.966796875
,51.096036,0.91796875
,51.097813,0.859375
,51.1346444,0.8056640625
,51.1546801,0.7421875
,51.1551649,0.703125
,51.1928553,0.6591796875
,51.1988156,0.625
,51.2183612,0.5908203125
,51.2529497,0.56640625
,51.2740343,0.5419921875
,51.278835,0.517578125
,51.2954481,0.4833984375
,51.3358959,0.46875
,51.3362626,0.4345703125
,51.3709178,0.4052734375
,51.391126,0.419921875
,51.3995376,0.498046875
,51.4440837,0.68359375
,51.4444648,0.9228515625
,51.4596924,1.1962890625
,51.4770515,1.42578125
,51.4967546,1.6552734375
,51.5362385,1.8310546875
,51.5366146,1.9775390625
,51.5736906,2.0849609375
,51.5794001,2.16796875
,51.6303509,2.20703125
,51.6306669,2.197265625
,51.6398687,2.12890625
,51.6563286,1.9970703125
,51.6909438,1.85546875
,51.7122231,1.708984375
,51.7173512,1.58203125
,51.7559534,1.4697265625
,51.7612861,1.376953125
,51.7779559,1.2939453125
,51.8152109,1.220703125
,51.8196892,1.15234375
,51.8560876,1.0888671875
,51.8785891,1.0205078125
,51.8789692,0.9716796875
,51.9158567,0.91796875
,51.9163714,0.8642578125
,51.9558945,0.8154296875
,51.9772357,0.7763671875
,51.9826238,0.732421875
,52.0001064,0.6982421875
,52.0520809,0.6689453125
,52.0525038,0.64453125
,52.0827086,0.625
,52.0832187,0.60546875
,52.0985093,0.5908203125
,52.1426647,0.56640625
,52.1431257,0.5322265625
,52.176024,0.498046875
,52.176504,0.44921875
,52.2117198,0.458984375
,52.2183857,0.48828125
,52.2549491,0.6103515625
,52.2586917,0.8251953125
,52.278059,1.0986328125
,52.3003041,1.337890625
,52.3344628,1.5673828125
,52.3404613,1.73828125
,52.3740724,1.884765625
,52.3947069,1.9775390625
,52.3971348,2.0556640625
,52.4383331,2.099609375
,52.4386358,2.1044921875
,52.4694781,2.0556640625
,52.4788689,1.953125
,52.5162102,1.8212890625
,52.5210998,1.6943359375
,52.5408608,1.58203125
,52.5609893,1.46484375
,52.5777526,1.3623046875
,52.6223636,1.328125
,52.6227266,1.2744140625
,52.6375573,1.2060546875
,52.6711847,1.1328125
,52.6918116,1.0498046875
,52.7014765,0.966796875
,52.721463,0.87890625
,52.7574099,0.80078125
,52.758268,0.7177734375
,52.7782879,0.64453125
,52.814368,0.5810546875
,52.8196586,0.52734375
,52.8557259,0.4736328125
,52.8605703,0.4443359375
,52.878389,0.41015625
,52.9020597,0.419921875
,52.9189726,0.419921875
,52.938009,0.4052734375
,52.9744032,0.3515625
,52.9790939,0.3076171875
,53.0163931,0.2734375
,53.0213298,0.29296875
,53.0561059,0.4052734375
,53.0589452,0.5908203125
,53.0940687,0.8447265625
,53.1149934,1.0791015625
,53.115499,1.318359375
,53.151892,1.484375
,53.1824259,1.611328125
,53.1829124,1.6943359375
,53.2002184,1.748046875
,53.2372902,1.7724609375
,53.2608405,1.7724609375
,53.2611574,1.71875
,53.2787347,1.6162109375
,53.3146891,1.4990234375
,53.3199005,1.3720703125
,53.3697411,1.259765625
,53.3701059,1.1669921875
,53.3799507,1.0986328125
,53.4164301,1.03515625
,53.4210251,0.9765625
,53.4568467,0.908203125
,53.4612546,0.83984375
,53.4787547,0.7666015625
,53.5127241,0.7080078125
,53.5340222,0.6396484375
,53.5381869,0.576171875
,53.5892402,0.5224609375
,53.5895574,0.4638671875
,53.618348,0.419921875
,53.6186568,0.390625
,53.6561018,0.4345703125
,53.6773462,0.46875
,53.679812,0.478515625
,53.7286741,0.4833984375
,53.7292967,0.4931640625
,53.74123,0.4833984375
,53.760978,0.4833984375
,53.7781813,0.4833984375
,53.8241062,0.5615234375
,53.8245829,0.6591796875
,53.8535623,0.8642578125
,53.8589261,1.11328125
,53.8991927,1.38671875
,53.8996564,1.640625
,53.9207604,1.8359375
,53.9533971,2.01171875
,53.974779,2.1337890625
,53.9821025,2.216796875
,54.0010219,2.255859375
,54.0194537,2.2705078125
,54.0573737,2.2314453125
,54.0595119,2.1337890625
,54.1005637,1.9921875
,54.1008652,1.81640625
,54.1229801,1.650390625
,54.1426604,1.5087890625
,54.1585063,1.3818359375
,54.2101467,1.2744140625
,54.2106044,1.1767578125
,54.2191194,1.0400390625
,54.270648,0.95703125
,54.2709714,0.8740234375
,54.2815253,0.7958984375
,54.3039219,0.7080078125
,54.348135,0.6298828125
,54.3487469,0.556640625
,54.3636961,0.4931640625
,54.3795963,0.4296875
,54.4150784,0.3955078125
,54.4432317,0.3564453125
,54.4437177,0.322265625
,54.4638734,0.29296875
,54.4990305,0.2587890625
,54.4993779,0.21484375
,54.5359391,0.2294921875
,54.557635,0.224609375
,54.5582135,0.224609375
,54.5994505,0.2392578125
,54.5999364,0.3466796875
,54.6208928,0.5712890625
,54.6619308,0.8349609375
,54.6624201,1.1279296875
,54.6983989,1.3671875
,54.703636,1.5771484375
,54.7206366,1.73828125
,54.7560141,1.875
,54.7614591,1.9580078125
,54.7807802,2.0166015625
,54.8166914,2.03125
,54.8377746,1.9970703125
,54.8439501,1.9140625
,54.8829673,1.787109375
,54.8832866,1.6455078125
,54.8988988,1.5234375
,54.9354106,1.4208984375
,54.9421767,1.3330078125
,54.9776181,1.25
,54.9817877,1.1669921875
,55.0167082,1.0888671875
,55.0372152,1.0107421875
,55.0415967,0.9423828125
,55.0757078,0.8740234375
,55.0832095,0.771484375
,55.0992227,0.7080078125
,55.1469707,0.654296875
,55.1472723,0.6005859375
,55.1691893,0.5712890625
,55.1827678,0.5322265625
,55.2230247,0.4931640625
,55.2234833,0.4638671875
,55.2410082,0.4296875
,55.2608316,0.4443359375
,55.2956015,0.439453125
,55.316021,0.3955078125
,55.3228677,0.361328125
,55.364425,0.3271484375
,55.3647963,0.2978515625
,55.3840442,0.283203125
,55.399464,0.3173828125
,55.4267631,0.5029296875
,55.4404987,0.7080078125
,55.4786937,1.0107421875
,55.4814934,1.30859375
,55.5163522,1.552734375
,55.5373949,1.7724609375
,55.5441122,1.93359375
,55.5633715,2.060546875
,55.6140522,2.138671875
,55.6145262,2.1875
,55.6422762,2.197265625
,55.6427414,2.16796875
,55.6619367,2.080078125
,55.706519,1.9482421875
,55.7068188,1.81640625
,55.722611,1.689453125
,55.7580082,1.58203125
,55.7789647,1.4892578125
,55.7799633,1.4013671875
,55.7997087,1.3330078125
,55.8465578,1.2646484375
,55.8469061,1.1865234375
,55.877422,1.1083984375
,55.8842872,1.0302734375
,55.903975,0.9521484375
,55.9408548,0.8740234375
,55.9436346,0.7958984375
,55.9810571,0.72265625
,55.9862038,0.6591796875
,56.0031648,0.595703125
,56.0485378,0.546875
,56.048849,0.5029296875
,56.0647399,0.4736328125
,56.084231,0.4345703125
,56.1195122,0.3955078125
,56.1397018,0.3662109375
,56.1401933,0.3271484375
,56.1757673,0.33203125
,56.1966486,0.322265625
,56.2029476,0.29296875
,56.2507225,0.283203125
,56.251201,0.3662109375
,56.2640397,0.5517578125
,56.298989,0.830078125
,56.3042713,1.1181640625
,56.3421926,1.4111328125
,56.3425992,1.640625
,56.3912124,1.8603515625
,56.3916944,2.0166015625
,56.4046966,2.1337890625
,56.4536873,2.2021484375
,56.4540641,2.24609375
,56.4641829,2.2412109375
,56.5162592,2.16796875
,56.5167401,2.0556640625
,56.5223344,1.9140625
,56.5624275,1.7822265625
,56.5629028,1.669921875
,56.592705,1.5673828125
,56.6049567,1.4794921875
,56.6554785,1.396484375
,56.655946,1.318359375
,56.6651197,1.2353515625
,56.686724,1.162109375
,56.7073445,1.0595703125
,56.7229537,0.9619140625
,56.763359,0.908203125
,56.7636878,0.8544921875
,56.7977325,0.7861328125
,56.8170208,0.7275390625
,56.8243861,0.673828125
,56.8721068,0.6201171875
,56.8725832,0.5712890625
,56.8911526,0.52734375
,56.9046331,0.48828125
,56.9230345,0.46875
,56.9586493,0.439453125
,56.9795185,0.4150390625
,56.9844466,0.3857421875
,57.028605,0.361328125
,57.0290727,0.3369140625
,57.0421778,0.3564453125
,57.0783491,0.361328125
,57.0844366,0.3759765625
,57.1223979,0.4833984375
,57.1228849,0.6884765625
,57.1692209,0.9814453125
,57.1696967,1.2744140625
,57.1861033,1.5576171875
,57.2233145,1.796875
,57.2271417,2.0068359375
,57.2451086,2.158203125
,57.2623181,2.2802734375
,57.2997594,2.3583984375
,57.3261173,2.392578125
,57.3265758,2.3828125
,57.3459213,2.314453125
,57.3889664,2.197265625
,57.3894503,2.0556640625
,57.4062348,1.9140625
,57.4229394,1.7822265625
,57.4664918,1.6796875
,57.4668988,1.5869140625
,57.5148838,1.50390625
,57.5152201,1.4208984375
,57.526877,1.337890625
,57.5768914,1.2548828125
,57.5772558,1.171875
,57.5855566,1.0888671875
,57.6249207,1.0107421875
,57.6253055,0.9326171875
,57.6692131,0.869140625
,57.6695241,0.80078125
,57.6894568,0.7421875
,57.7056089,0.68359375
,57.7474667,0.6396484375
,57.7477708,0.595703125
,57.7953959,0.5517578125
,57.7958091,0.5126953125
,57.8263927,0.4833984375
,57.8271129,0.4638671875
,57.8442754,0.439453125
,57.8881933,0.4150390625
,57.8886616,0.390625
,57.9188294,0.361328125
,57.9231877,0.3369140625
,57.9614121,0.3564453125
,57.9818453,0.380859375
,57.9845593,0.439453125
,58.0221931,0.5908203125
,58.0227922,0.8544921875
,58.0732643,1.162109375
,58.0735801,1.4501953125
,58.0947676,1.7236328125
,58.1082409,1.9384765625
,58.1273479,2.12890625
,58.1430395,2.255859375
,58.1779252,2.36328125
,58.1990146,2.4169921875
,58.2066549,2.431640625
,58.2419136,2.3876953125
,58.2470644,2.2900390625
,58.2667712,2.158203125
,58.3016972,2.01171875
,58.3045623,1.875
,58.342174,1.767578125
,58.3426428,1.669921875
,58.3860581,1.591796875
,58.3865319,1.513671875
,58.4057593,1.4306640625
,58.44787,1.3525390625
,58.448176,1.26953125
,58.4829656,1.19140625
,58.4879733,1.11328125
,58.5249947,1.0400390625
,58.525374,0.966796875
,58.5611501,0.9033203125
,58.5665859,0.83984375
,58.6032254,0.78125
,58.6086037,0.72265625
,58.6275862,0.6787109375
,58.6626036,0.625
,58.6681766,0.5859375
,58.6894529,0.556640625
,58.7050692,0.517578125
,58.725765,0.5029296875
,58.7617197,0.4833984375
,58.7832539,0.46875
,58.7885609,0.4443359375
,58.8082193,0.4248046875
,58.8244065,0.400390625
,58.8708166,0.419921875
,58.8716239,0.44921875
,58.9006889,0.5126953125
,58.9057834,0.6689453125
,58.9429612,0.9326171875
,58.9473079,1.220703125
,58.9961906,1.5234375
,58.996681,1.7724609375
,59.0076186,1.9970703125
,59.0442032,2.177734375
,59.0446558,2.294921875
,59.0898073,2.3876953125
,59.0901142,2.4365234375
,59.1084734,2.44140625
,59.1517721,2.3828125
,59.1521643,2.28515625
,59.1678644,2.1484375
,59.2149838,2.01171875
,59.2153592,1.89453125
,59.229421,1.7578125
,59.2445715,1.6748046875
,59.2842323,1.62109375
,59.2847912,1.5625
,59.3211908,1.4892578125
,59.3417085,1.42578125
,59.3475545,1.3427734375
,59.3837433,1.26953125
,59.4035283,1.1865234375
,59.4089003,1.1181640625
,59.4245017,1.0400390625
,59.4621092,0.986328125
,59.4817283,0.927734375
,59.487816,0.8740234375
,59.5383299,0.8251953125
,59.5387316,0.791015625
,59.5497584,0.7421875
,59.5702639,0.7080078125
,59.5854314,0.6689453125
,59.6069719,0.6396484375
,59.6410849,0.6103515625
,59.6628165,0.5908203125
,59.6664341,0.556640625
,59.7106143,0.5224609375
,59.7110995,0.48828125
,59.7262872,0.458984375
,59.7469706,0.4736328125
,59.7664093,0.5224609375
,59.7854459,0.6201171875
,59.8337594,0.810546875
,59.8342344,1.0791015625
,59.8486247,1.34765625
,59.8685476,1.611328125
,59.9107807,1.826171875
,59.9116407,2.01171875
,59.9317961,2.1337890625
,59.9463771,2.2314453125
,59.9819,2.2998046875
,59.9888611,2.2998046875
,60.0077124,2.255859375
,60.0423305,2.1630859375
,60.04828,2.0458984375
,60.0815864,1.9140625
,60.1025456,1.796875
,60.1108941,1.69921875
,60.1464146,1.6162109375
,60.1467326,1.5380859375
,60.1812058,1.474609375
,60.1869294,1.4013671875
,60.2242805,1.328125
,60.2520567,1.2548828125
,60.2523925,1.181640625
,60.2702694,1.1083984375
,60.3132267,1.0498046875
,60.3135495,0.9912109375
,60.3261025,0.9228515625
,60.3594214,0.8740234375
,60.3796544,0.8203125
,60.387703,0.771484375
,60.4385503,0.7177734375
,60.4390362,0.673828125
,60.4503459,0.6298828125
,60.487571,0.595703125
,60.4880706,0.556640625
,60.5230175,0.537109375
,60.5286833,0.5126953125
,60.5493917,0.4931640625
,60.5936549,0.458984375
,60.5939594,0.4248046875
,60.6100295,0.400390625
,60.6272298,0.3759765625
,60.6564269,0.4296875
,60.6674216,0.5419921875
,60.6877848,0.732421875
,60.736067,0.9814453125
,60.736385,1.279296875
,60.748951,1.54296875
,60.7981152,1.796875
,60.7984316,1.9873046875
,60.811528,2.1533203125
,60.8276227,2.255859375
,60.8738801,2.34375
,60.8741539,2.333984375
,60.8867143,2.3388671875
,60.9232557,2.2802734375
,60.9438898,2.177734375
,60.9502473,2.041015625
,60.9983273,1.9140625
,60.998584,1.796875
,61.0107164,1.6943359375
,61.061412,1.6064453125
,61.0618894,1.5283203125
,61.0682834,1.4697265625
,61.088738,1.396484375
,61.1246889,1.3232421875
,61.1547021,1.2451171875
,61.1551784,1.162109375
,61.1710014,1.083984375
,61.2163699,1.015625
,61.2167228,0.9423828125
,61.2294752,0.888671875
,61.2652779,0.83984375
,61.2684318,0.78125
,61.3090094,0.732421875
,61.3093813,0.6982421875
,61.3643144,0.673828125
,61.3648008,0.6396484375
,61.4876459,0.6103515625
,61.4879053,0.5810546875
,61.4880771,0.56640625
,61.4882485,0.5322265625
,61.4884178,0.517578125
,61.4885965,0.48828125
,61.4887651,0.4638671875
,61.5058608,0.4296875
,61.5271296,0.44921875
,61.5638876,0.48828125
,61.5665395,0.6005859375
,61.6022133,0.810546875
,61.6230301,1.0791015625
,61.6288697,1.38671875
,61.6649504,1.6552734375
,61.6861784,1.9091796875
,61.6907674,2.099609375
,61.7115816,2.2607421875
,61.7579961,2.3681640625
,61.7583178,2.431640625
,61.7793079,2.4658203125
,61.7890813,2.4658203125
,61.8360112,2.40234375
,61.8363617,2.2998046875
,61.8573962,2.1630859375
,61.86948,2.0166015625
,61.9051434,1.904296875
,61.927848,1.7919921875
,61.9366162,1.6943359375
,61.9496154,1.6064453125
,61.9856483,1.54296875
,61.9906426,1.46484375
,62.028105499999995,1.3916015625
,62.028579199999996,1.30859375
,62.06594200000001,1.2353515625
,62.101242799999994,1.15234375
,62.1017226,1.0888671875
,62.10725789999999,1.015625
,62.1480006,0.9619140625
,62.148317500000005,0.9033203125
,62.1861243,0.849609375
,62.1914843,0.7861328125
,62.225838499999995,0.7470703125
,62.232886199999996,0.693359375
,62.271275,0.64453125
,62.2715831,0.60546875
,62.288816,0.5712890625
,62.3113379,0.546875
,62.3294511,0.5224609375
,62.365249399999996,0.5029296875
,62.371258499999996,0.478515625
,62.412263100000004,0.44921875
,62.412741,0.419921875
,62.432747199999994,0.439453125
,62.448013599999996,0.478515625
,62.4916865,0.5712890625
,62.492003100000005,0.751953125
,62.52106070000001,1.03515625
,62.529457699999995,1.3427734375
,62.5647177,1.6162109375
,62.5867501,1.865234375
,62.5915473,2.0654296875
,62.6136616,2.2314453125
,62.660353799999996,2.333984375
,62.6608025,2.40234375
,62.669127,2.431640625
,62.7061307,2.4462890625
,62.709058,2.392578125
,62.754424799999995,2.28515625
,62.754897,2.1435546875
,62.7861597,2.001953125
,62.793248399999996,1.8798828125
,62.8324825,1.7724609375
,62.832938600000006,1.6748046875
,62.849587799999995,1.611328125
,62.871202800000006,1.5380859375
,62.912028199999995,1.4599609375
,62.912407400000006,1.3818359375
,62.9481765,1.298828125
,62.95694159999999,1.2158203125
,62.9730199,1.1328125
,63.010189,1.064453125
,63.010699200000005,0.9912109375
,63.0450673,0.9326171875
,63.050013199999995,0.8740234375
,63.0965563,0.8154296875
,63.0968838,0.7568359375
,63.117187099999995,0.7080078125
,63.1317315,0.6640625
,63.1675082,0.6201171875
,63.174738500000004,0.5908203125
,63.190078799999995,0.5517578125
,63.227338700000004,0.5322265625
,63.230512899999994,0.5078125
,63.2671819,0.48828125
,63.2719546,0.4541015625
,63.307202000000004,0.4296875
,63.307512599999995,0.4052734375
,63.342006100000006,0.458984375
,63.3634814,0.5615234375
,63.375626600000004,0.7177734375
,63.3929651,0.9716796875
,63.4126392,1.2890625
,63.4330473,1.5625
,63.468273100000005,1.81640625
,63.4730859,2.0068359375
,63.51770380000001,2.1630859375
,63.518377400000006,2.2705078125
,63.535060599999994,2.3291015625
,63.58018800000001,2.3583984375
,63.580605899999995,2.333984375
,63.592797399999995,2.2705078125
,63.6128621,2.1630859375
,63.6588321,2.0361328125
,63.6593194,1.9091796875
,63.6742938,1.8017578125
,63.695372899999995,1.708984375
,63.7146185,1.6259765625
,63.731930199999994,1.5380859375
,63.751241699999994,1.4697265625
,63.798811400000005,1.3916015625
,63.7992735,1.3134765625
,63.811327199999994,1.240234375
,63.8455388,1.1669921875
,63.866246200000006,1.09375
,63.875455900000006,1.0302734375
,63.926252500000004,0.9814453125
,63.9265726,0.9228515625
,63.9293974,0.8837890625
,63.965840299999996,0.8349609375
,63.987532200000004,0.7861328125
,63.9933879,0.7421875
,64.0328835,0.7080078125
,64.0333545,0.6689453125
,64.0683507,0.64453125
,64.0686876,0.6103515625
,64.1063584,0.5859375
,64.1119035,0.5517578125
,64.1498392,0.537109375
,64.150313,0.5078125
,64.1878742,0.4931640625
,64.2088461,0.5126953125
,64.2137126,0.615234375
,64.2498168,0.8203125
,64.25493,1.083984375
,64.2762477,1.3818359375
,64.2911119,1.6455078125
,64.3435476,1.8896484375
,64.3440334,2.0751953125
,64.3517637,2.216796875
,64.389091,2.3046875
,64.3956171,2.373046875
,64.4301952,2.392578125
,64.4357718,2.36328125
,64.4846312,2.294921875
,64.4850392,2.1728515625
,64.4924106,2.041015625
,64.5272163,1.9189453125
,64.5484461,1.8212890625
,64.5534594,1.728515625
,64.5895054,1.650390625
,64.6227744,1.572265625
,64.6232689,1.494140625
,64.6310275,1.4111328125
,64.6667231,1.34765625
,64.6869715,1.2744140625
,64.6944884,1.201171875
,64.7135187,1.1181640625
,64.7486209,1.0400390625
,64.7550231,0.95703125
,64.791111,0.8837890625
,64.7937327,0.7958984375
,64.8100587,0.712890625
,64.8447223,0.6396484375
,64.865737,0.5712890625
,64.8735374,0.498046875
,64.9085834,0.4248046875
,64.9144527,0.400390625
,64.9318914,0.4052734375
,64.952262,0.458984375
,65.0008356,0.498046875
,65.0015456,0.4638671875
,65.0134573,0.48828125
,65.0631728,0.517578125
,65.0636683,0.5712890625
,65.094252,0.7080078125
,65.0947257,0.9423828125
,65.1307202,1.201171875
,65.1353682,1.474609375
,65.1867068,1.7138671875
,65.1870221,1.9287109375
,65.1940115,2.080078125
,65.214486,2.2265625
,65.264636,2.32421875
,65.2651266,2.3974609375
,65.2746037,2.431640625
,65.3108869,2.4365234375
,65.3150242,2.3681640625
,65.3580207,2.2509765625
,65.3583407,2.1044921875
,65.3732001,1.97265625
,65.4192538,1.865234375
,65.4197304,1.806640625
,65.4345533,1.7529296875
,65.4808345,1.708984375
,65.4811998,1.6796875
,65.4952355,1.650390625
,65.5413166,1.62109375
,65.5418126,1.591796875
,65.5524686,1.572265625
,65.6050643,1.5380859375
,65.6053914,1.494140625
,65.6351246,1.4404296875
,65.635553,1.3818359375
,65.6722531,1.328125
,65.6755091,1.2841796875
,65.6938055,1.2353515625
,65.729437,1.2109375
,65.731694,1.1962890625
,65.755135,1.1767578125
,65.7902581,1.162109375
,65.793561,1.15234375
,65.8311637,1.1572265625
,65.8360467,1.1474609375
,65.8834973,1.15234375
,65.8838532,1.15234375
,65.8971254,1.1669921875
,65.9129385,1.2158203125
,65.9490327,1.3671875
,65.9558806,1.572265625
,65.9747056,1.8310546875
,66.025002,2.0703125
,66.0260149,2.2900390625
,66.0366631,2.4462890625
,66.0880944,2.5732421875
,66.0884807,2.666015625
,66.0949771,2.7001953125
,66.1389304,2.71484375
,66.1393944,2.67578125
,66.1541828,2.587890625
,66.1961051,2.4365234375
,66.1965154,2.255859375
,66.2179448,2.0751953125
,66.2588852,1.9189453125
,66.2591999,1.796875
,66.2747284,1.689453125
,66.3103861,1.5966796875
,66.3157767,1.5087890625
,66.3523263,1.4111328125
,66.3529584,1.318359375
,66.3989017,1.2255859375
,66.3992402,1.1328125
,66.4197585,1.0400390625
,66.4345392,0.95703125
,66.4538924,0.87890625
,66.4901207,0.7958984375
,66.5109817,0.72265625
,66.5153985,0.654296875
,66.5359508,0.5908203125
,66.5709587,0.5322265625
,66.5737223,0.48828125
,66.5931213,0.4833984375
,66.6286293,0.44921875
,66.6344853,0.41015625
,66.6718348,0.3759765625
,66.6765759,0.3271484375
,66.7264578,0.302734375
,66.7268094,0.2783203125
,66.7363853,0.2587890625
,66.7586549,0.2880859375
,66.7740414,0.3955078125
,66.8045208,0.6591796875
,66.8141053,0.9326171875
,66.8510089,1.259765625
,66.8556594,1.54296875
,66.8906798,1.8115234375
,66.8959562,2.0166015625
,66.9309338,2.177734375
,66.9523209,2.2900390625
,66.9582619,2.373046875
,66.975957,2.40234375
,67.0200123,2.3876953125
,67.0204995,2.314453125
,67.0343768,2.1826171875
,67.0824667,2.03125
,67.0829449,1.8896484375
,67.097257,1.7724609375
,67.1323489,1.669921875
,67.1386814,1.5771484375
,67.1540299,1.4892578125
,67.1740759,1.416015625
,67.2104628,1.3330078125
,67.2316649,1.2548828125
,67.2365932,1.171875
,67.285332,1.0888671875
,67.2858318,1.005859375
,67.2977774,0.927734375
,67.3154386,0.8447265625
,67.3637431,0.7861328125
,67.364084,0.7177734375
,67.3756536,0.6591796875
,67.4268489,0.615234375
,67.4271841,0.5712890625
,67.4351013,0.52734375
,67.4735283,0.5029296875
,67.4738397,0.4736328125
,67.5101677,0.4833984375
,67.5147013,0.439453125
,67.5514054,0.400390625
,67.5715454,0.37109375
,67.5767605,0.341796875
,67.613931,0.361328125
,67.6197254,0.458984375
,67.6377796,0.673828125
,67.6744182,0.966796875
,67.6786629,1.2451171875
,67.7151498,1.5234375
,67.7155281,1.748046875
,67.7422054,1.953125
,67.7563745,2.08984375
,67.791311,2.2021484375
,67.7992956,2.2607421875
,67.8202528,2.294921875
,67.8659069,2.275390625
,67.8662378,2.2021484375
,67.8755104,2.080078125
,67.9128995,1.9580078125
,67.9175409,1.8408203125
,67.9541752,1.7333984375
,67.9545304,1.640625
,68.0039045,1.572265625
,68.0042546,1.4892578125
,68.0254721,1.40625
,68.0376304,1.3134765625
,68.0549254,1.2255859375
,68.0927652,1.1474609375
,68.0981644,1.0595703125
,68.1167088,0.9765625
,68.1599064,0.8984375
,68.160298,0.8251953125
,68.1942708,0.751953125
,68.1998963,0.6884765625
,68.2170548,0.6298828125
,68.2519852,0.6005859375
,68.2554596,0.56640625
,68.2977867,0.5322265625
,68.2983832,0.5078125
,68.3183831,0.4736328125
,68.359268,0.439453125
,68.3597164,0.41015625
,68.3941383,0.390625
,68.3944622,0.37109375
,68.431017,0.3955078125
,68.4514514,0.4345703125
,68.4567606,0.5126953125
,68.4940622,0.6787109375
,68.4988038,0.9521484375
,68.5454947,1.220703125
,68.5458205,1.494140625
,68.5592758,1.7138671875
,68.5965796,1.9091796875
,68.597121,2.0361328125
,68.63952,2.1435546875
,68.6398387,2.20703125
,68.658707,2.2216796875
,68.6926837,2.20703125
,68.6974518,2.1337890625
,68.7352373,2.0166015625
,68.7400477,1.865234375
,68.759574,1.7138671875
,68.7767637,1.58203125
,68.8259989,1.4794921875
,68.8263021,1.3818359375
,68.8379572,1.3037109375
,68.8721419,1.220703125
,68.8935092,1.142578125
,68.8992933,1.0595703125
,68.9323172,0.9814453125
,68.952932,0.9033203125
,68.9581457,0.8154296875
,68.9951016,0.732421875
,68.9956822,0.654296875
,69.045768,0.5859375
,69.0466311,0.5126953125
,69.0765427,0.439453125
,69.0769485,0.37109375
,69.1136161,0.3466796875
,69.1350016,0.3125
,69.1353682,0.25390625
,69.1850302,0.1953125
,69.1853516,0.146484375
,69.2163531,0.0927734375
,69.2168578,0.05859375
,69.2344988,0.0146484375
,69.2563509,0.0390625
,69.2932105,0.068359375
,69.3146478,0.107421875
,69.3177035,0.322265625
,69.3546592,0.6103515625
,69.3583978,0.9375
,69.4036781,1.240234375
,69.404001,1.533203125
,69.419104,1.7529296875
,69.4560426,1.9384765625
,69.4610281,2.0654296875
,69.5115941,2.1484375
,69.511981,2.1923828125
,69.5194342,2.2265625
,69.5401588,2.1826171875
,69.5612919,2.0751953125
,69.5789641,1.9287109375
,69.619363,1.767578125
,69.6495926,1.6162109375
,69.6499026,1.4892578125
,69.6593899,1.3916015625
,69.6782202,1.298828125
,69.7152269,1.220703125
,69.7195791,1.1376953125
,69.759384,1.0595703125
,69.7596981,0.9716796875
,69.7969134,0.8935546875
,69.7975634,0.80078125
,69.8369492,0.7177734375
,69.868512,0.6298828125
,69.8688526,0.5615234375
,69.8776963,0.48828125
,69.9158694,0.439453125
,69.9203628,0.3759765625
,69.9628167,0.33203125
,69.9631289,0.2880859375
,69.9786759,0.25390625
,70.0092821,0.2587890625
,70.0184356,0.2099609375
,70.0375609,0.185546875
,70.0859603,0.1611328125
,70.0868052,0.126953125
,70.1078937,0.09765625
,70.1195653,0.0927734375
,70.1553988,0.1513671875
,70.1807469,0.3369140625
,70.1812176,0.6103515625
,70.2283237,0.95703125
,70.2286426,1.2890625
,70.2580782,1.5625
,70.2583988,1.8115234375
,70.2938361,1.982421875
,70.3147476,2.119140625
,70.3207893,2.197265625
,70.3667511,2.2314453125
,70.3673082,2.20703125
,70.3833146,2.1240234375
,70.3985344,1.9873046875
,70.4337018,1.845703125
,70.4383059,1.69921875
,70.4736581,1.572265625
,70.4940401,1.46484375
,70.5012101,1.376953125
,70.5371712,1.2890625
,70.5423606,1.2255859375
,70.5827485,1.15234375
,70.5831089,1.0791015625
,70.598815,1.0107421875
,70.6455273,0.9375
,70.6460082,0.869140625
,70.6611113,0.7958984375
,70.6819473,0.732421875
,70.7019386,0.6689453125
,70.7393349,0.6103515625
,70.7396529,0.5517578125
,70.7590871,0.5126953125
,70.8009033,0.4736328125
,70.8013763,0.44921875
,70.8200462,0.4150390625
,70.8573686,0.3955078125
,70.8603748,0.37109375
,70.8970215,0.341796875
,70.9023804,0.3173828125
,70.9179823,0.2978515625
,70.9411479,0.361328125
,70.9879521,0.48828125
,70.9882591,0.6884765625
,71.0023412,0.95703125
,71.037379,1.2646484375
,71.0421395,1.5283203125
,71.0816497,1.77734375
,71.0820415,1.9580078125
,71.1186158,2.1142578125
,71.1193079,2.2021484375
,71.1414521,2.2705078125
,71.1771444,2.294921875
,71.1823895,2.275390625
,71.2182964,2.1826171875
,71.2226894,2.0458984375
,71.2620101,1.89453125
,71.2624545,1.7578125
,71.2981218,1.6455078125
,71.2984394,1.5478515625
,71.3355768,1.4794921875
,71.3409873,1.4013671875
,71.3879149,1.328125
,71.3883743,1.240234375
,71.4002749,1.1572265625
,71.4393886,1.064453125
,71.4422029,0.9814453125
,71.4585293,0.8935546875
,71.4808437,0.810546875
,71.5265729,0.7421875
,71.5269296,0.6689453125
,71.5402298,0.60546875
,71.5766123,0.556640625
,71.5969508,0.5224609375
,71.5972655,0.4833984375
,71.6374233,0.478515625
,71.6377314,0.458984375
,71.6588137,0.4052734375
,71.697545,0.3466796875
,71.6984079,0.3076171875
,71.7482135,0.2685546875
,71.7486862,0.2880859375
,71.7797059,0.380859375
,71.7825549,0.60546875
,71.8182602,0.888671875
,71.8392728,1.220703125
,71.8441972,1.513671875
,71.8605094,1.7431640625
,71.9023184,1.953125
,71.9026782,2.1044921875
,71.9224972,2.2265625
,71.9644113,2.294921875
,71.964774,2.34375
,72.010539,2.333984375
,72.0108974,2.2802734375
,72.0199246,2.1630859375
,72.0561257,2.0166015625
,72.0612178,1.884765625
,72.0973629,1.767578125
,72.1031128,1.6650390625
,72.150151,1.5771484375
,72.1510961,1.4990234375
,72.1648633,1.4111328125
,72.2148546,1.328125
,72.2152417,1.240234375
,72.2204573,1.1767578125
,72.2567216,1.09375
,72.2623206,1.005859375
,72.2996091,0.908203125
,72.3025739,0.810546875
,72.3545735,0.7177734375
,72.3550557,0.634765625
,72.361271,0.56640625
,72.3813725,0.517578125
,72.4017207,0.46875
,72.4461555,0.4248046875
,72.4466122,0.3662109375
,72.4657122,0.322265625
,72.4844168,0.263671875
,72.5194049,0.2197265625
,72.5244753,0.1806640625
,72.5412393,0.1708984375
,72.5867318,0.2587890625
,72.587207,0.4248046875
,72.6179163,0.6640625
,72.6214552,0.9423828125
,72.6634325,1.240234375
,72.6639,1.494140625
,72.6975033,1.71875
,72.7180015,1.884765625
,72.723859,2.0263671875
,72.7406417,2.1142578125
,72.7775488,2.16796875
,72.7824014,2.1875
,72.8213226,2.138671875
,72.8216442,2.0361328125
,72.8689428,1.884765625
,72.8693968,1.728515625
,72.9001893,1.58203125
,72.904736,1.4599609375
,72.9220462,1.357421875
,72.9614299,1.2939453125
,72.9925295,1.2255859375
,72.9928701,1.162109375
,73.0043996,1.09375
,73.054354,1.0302734375
,73.05478,0.95703125
,73.0641803,0.8837890625
,73.0806749,0.810546875
,73.1317317,0.7568359375
,73.1322037,0.703125
,73.1613883,0.6396484375
,73.1622201,0.595703125
,73.185148,0.546875
,73.2244978,0.5029296875
,73.2249903,0.4541015625
,73.2387939,0.458984375
,73.2730261,0.4443359375
,73.294392,0.380859375
,73.3026588,0.3173828125
,73.3486751,0.2490234375
,73.3491634,0.1953125
,73.3650626,0.17578125
,73.3995758,0.21484375
,73.4049367,0.3759765625
,73.4262856,0.6494140625
,73.4466234,0.9521484375
,73.4837145,1.2646484375
,73.4841996,1.5283203125
,73.5195906,1.787109375
,73.5213213,1.9873046875
,73.5593302,2.1533203125
,73.564633,2.265625
,73.5846993,2.3486328125
,73.6218982,2.314453125
,73.626211,2.1875
,73.6422055,2.0068359375
,73.6632799,1.8212890625
,73.7044935,1.6552734375
,73.7048988,1.513671875
,73.7494348,1.4111328125
,73.7499381,1.328125
,73.7643316,1.2548828125
,73.7992342,1.181640625
,73.8196213,1.1181640625
,73.8223797,1.0546875
,73.8586714,1.025390625
,73.8644399,1.0107421875
,73.9047669,1.0009765625
,73.9050701,0.9814453125
,73.9498387,0.95703125
,73.9502675,0.9375
,73.9650752,0.9423828125
,73.9817337,0.9619140625
,74.0297805,0.99609375
,74.0301158,1.0107421875
,74.049551,1.005859375
,74.0641309,0.9716796875
,74.10783,0.8984375
,74.1082753,0.7763671875
,74.1275491,0.5859375
,74.1679076,0.302734375
,74.1687754,0.009765625
,74.1825759,0.0048828125
,74.22119,0.0048828125
,74.2215372,0.0048828125
,74.2560608,0.0244140625
,74.2771674,0.2978515625
,74.2849257,0.5419921875
,74.3216178,0.8056640625
,74.3256446,1.123046875
,74.3596014,1.5625
,74.3808322,1.962890625
,74.3835206,2.3388671875
,74.4314993,2.5927734375
,74.4318353,2.7099609375
,74.4433783,2.71484375
,74.4826422,2.646484375
,74.4833126,2.5439453125
,74.5252915,2.4658203125
,74.5255905,2.4072265625
,74.5462677,2.36328125
,74.5633739,2.3193359375
,74.6030723,2.265625
,74.6037516,2.20703125
,74.6401003,2.1484375
,74.6651355,2.0947265625
,74.6655893,2.0263671875
,74.7007262,1.9482421875
,74.7212907,1.865234375
,74.724171,1.7724609375
,74.761504,1.7041015625
,74.7619756,1.6357421875
,74.8063513,1.5673828125
,74.8068311,1.4990234375
,74.8273926,1.435546875
,74.8466551,1.3623046875
,74.8809665,1.30859375
,74.8834002,1.2646484375
,74.9211312,1.2646484375
,74.9260278,1.2646484375
,74.9441305,1.30859375
,74.9659901,1.38671875
,75.0023905,1.5576171875
,75.0077353,1.8017578125
,75.0546545,2.16796875
,75.0551418,2.578125
,75.0671393,2.978515625
,75.1042131,3.37890625
,75.1046659,3.681640625
,75.1325464,3.69140625
,75.1449176,3.6962890625
,75.1817763,3.69140625
,75.1902688,3.6962890625
,75.2062309,3.69140625
,75.2553511,3.6962890625
,75.2556566,3.69140625
,75.2877511,3.69140625
,75.2881298,3.4326171875
,75.3046102,3.10546875
,75.3481888,2.8076171875
,75.3485102,2.548828125
,75.3672674,2.3193359375
,75.4099805,2.1044921875
,75.410306,1.9091796875
,75.4287787,1.7333984375
,75.4460731,1.58203125
,75.4818565,1.455078125
,75.4864728,1.337890625
,75.5062154,1.23046875
,75.5482708,1.1376953125
,75.5486458,1.0595703125
,75.5662362,0.9814453125
,75.6107143,0.91796875
,75.6110171,0.8447265625
,75.6317677,0.78125
,75.6468507,0.72265625
,75.6656263,0.68359375
,75.6868927,0.6396484375
,75.7368747,0.6005859375
,75.7373754,0.5419921875
,75.7490719,0.4931640625
,75.7634272,0.46875
,75.7868884,0.5419921875
,75.8216584,0.6396484375
,75.8424544,0.849609375
,75.8429556,1.11328125
,75.8893166,1.3525390625
,75.8896197,1.5625
,75.9101943,1.71875
,75.928679,1.8505859375
,75.9641137,1.9189453125
,75.9691566,1.9482421875
,75.9896401,1.943359375
,76.0070275,1.8798828125
,76.0258156,1.8017578125
,76.0622494,1.669921875
,76.0660895,1.50390625
,76.1082993,1.3427734375
,76.1086826,1.201171875
,76.1367088,1.0791015625
,76.1496315,0.966796875
,76.1644634,0.8544921875
,76.2141445,0.751953125
,76.2148411,0.6396484375
,76.2278324,0.52734375
,76.2781393,0.41015625
,76.2786266,0.2734375
,76.2843759,0.13671875
,76.3208128,0.0537109375
,76.3413419,0.0048828125
,76.3451082,0.0048828125
,76.3864789,0.0048828125
,76.3869607,0.0048828125
,76.4223662,0.0048828125
,76.4228211,0.0048828125
,76.4611328,0.0048828125
,76.4820569,0.0048828125
,76.4824941,0.0048828125
,76.5258472,0.0048828125
,76.5261486,0.0048828125
,76.5474692,0.0048828125
,76.5664216,0.0048828125
,76.5844417,0.0048828125
,76.6059479,0.0048828125
,76.6536379,0.2783203125
,76.6541289,0.5224609375
,76.6845808,0.7568359375
,76.6894476,0.9326171875
,76.7267865,1.09375
,76.7272733,1.1962890625
,76.7634888,1.2939453125
,76.7663057,1.337890625
,76.8023291,1.3427734375
,76.8238521,1.2939453125
,76.8296246,1.2109375
,76.8487398,1.0888671875
,76.8839221,0.9814453125
,76.9058517,0.8984375
,76.9063203,0.849609375
,76.9258073,0.8154296875
,76.9613911,0.791015625
,76.9829317,0.76171875
,76.9868168,0.72265625
,77.0414107,0.6982421875
,77.0417292,0.6787109375
,77.0514749,0.673828125
,77.0679059,0.6689453125
,77.1164876,0.6787109375
,77.1168053,0.6884765625
,77.1283782,0.68359375
,77.1630762,0.6591796875
,77.1833287,0.6103515625
,77.1879768,0.5419921875
,77.2051769,0.4541015625
,77.2242465,0.380859375
,77.2632304,0.234375
,77.267996,0.0634765625
,77.2879653,0.0048828125
,77.3219327,0.0048828125
,77.3424594,0.0048828125
,77.3427768,0.0048828125
,77.3774039,0.0439453125
,77.3973238,0.361328125
,77.4074322,0.6787109375
,77.4587361,0.9716796875
,77.4591893,1.1572265625
,77.4673853,1.3623046875
,77.5026171,1.4990234375
,77.507994,1.6064453125
,77.5436317,1.669921875
,77.5643649,1.708984375
,77.5703267,1.69921875
,77.6064924,1.650390625
,77.6098093,1.5380859375
,77.6282849,1.396484375
,77.6670443,1.2646484375
,77.6675261,1.1474609375
,77.7057062,1.0400390625
,77.7109363,0.966796875
,77.7296717,0.908203125
,77.7669421,0.849609375
,77.7691987,0.791015625
,77.8035048,0.7275390625
,77.8067337,0.6689453125
,77.8547075,0.6005859375
,77.8550755,0.537109375
,77.8740251,0.46875
,77.8894612,0.3955078125
,77.932365,0.33203125
,77.9327024,0.2587890625
,77.9633988,0.244140625
,77.9684295,0.2197265625
,78.0051025,0.166015625
,78.0055219,0.1123046875
,78.0575367,0.0732421875
,78.057843,0.0390625
,78.0875985,0.05859375
,78.0880709,0.01953125
,78.1239388,0.068359375
,78.1450504,0.15625
,78.1482422,0.3271484375
,78.1680102,0.6005859375
,78.2121154,0.9423828125
,78.2125923,1.2548828125
,78.2301206,1.5380859375
,78.2492225,1.7626953125
,78.2841647,1.9140625
,78.3047524,2.0263671875
,78.311898,2.080078125
,78.3518275,2.1044921875
,78.3523024,2.08984375
,78.3696606,2.0751953125
,78.3886947,1.953125
,78.4236699,1.8017578125
,78.4308896,1.640625
,78.4510359,1.474609375
,78.4916232,1.337890625
,78.4920582,1.23046875
,78.5072356,1.1328125
,78.5532024,1.044921875
,78.5535249,0.966796875
,78.5737049,0.87890625
,78.5896538,0.7861328125
,78.6296213,0.68359375
,78.6300922,0.5908203125
,78.6481632,0.48828125
,78.6759085,0.4345703125
,78.6881646,0.380859375
,78.7265313,0.29296875
,78.727033,0.21484375
,78.7694665,0.166015625
,78.7699428,0.1171875
,78.8003873,0.0830078125
,78.807626,0.0537109375
,78.847107,0.0732421875
,78.8778784,0.078125
,78.8781967,0.0390625
,78.8899804,0.0146484375
,78.9391617,0.01953125
,78.9396228,0.1416015625
,78.9498139,0.3564453125
,78.9855879,0.6640625
,79.0071038,0.9814453125
,79.0122508,1.2939453125
,79.0262605,1.5283203125
,79.0607136,1.748046875
,79.0826518,1.904296875
,79.0910634,2.03125
,79.1097068,2.109375
,79.1557607,2.158203125
,79.1562363,2.158203125
,79.1860819,2.0947265625
,79.1905348,1.9921875
,79.2347365,1.8505859375
,79.2353537,1.7138671875
,79.2643083,1.6015625
,79.2693144,1.5234375
,79.3080309,1.4453125
,79.3085342,1.3720703125
,79.3425364,1.298828125
,79.364512,1.2255859375
,79.3722987,1.1474609375
,79.4227748,1.07421875
,79.4235469,0.9912109375
,79.4304169,0.91796875
,79.4516182,0.849609375
,79.4722574,0.771484375
,79.4931033,0.693359375
,79.5128809,0.634765625
,79.5339279,0.576171875
,79.5551451,0.517578125
,79.568767,0.4736328125
,79.6081516,0.46875
,79.6084851,0.4296875
,79.6430713,0.3955078125
,79.6688511,0.37109375
,79.6693274,0.341796875
,79.7074188,0.3076171875
,79.7078932,0.2978515625
,79.7479062,0.3857421875
,79.7780246,0.556640625
,79.7784851,0.810546875
,79.7911656,1.0986328125
,79.8107495,1.3916015625
,79.8316216,1.66015625
,79.8664728,1.865234375
,79.8714502,2.041015625
,79.8918593,2.158203125
,79.9286899,2.255859375
,79.9316893,2.294921875
,79.966426,2.28515625
,79.9865113,2.255859375
,79.9899738,2.1923828125
,80.0402031,2.0751953125
,80.0405037,1.943359375
,80.0615991,1.806640625
,80.0735365,1.6943359375
,80.109574,1.5966796875
,80.1135468,1.5185546875
,80.1305906,1.435546875
,80.1657773,1.3720703125
,80.1704969,1.3037109375
,80.2126192,1.23046875
,80.2131114,1.1572265625
,80.2498001,1.0888671875
,80.2506623,1.015625
,80.3040727,0.947265625
,80.3045305,0.888671875
,80.3095613,0.830078125
,80.3517481,0.78125
,80.3522275,0.7373046875
,80.3881775,0.6884765625
,80.3915438,0.6494140625
,80.4290469,0.615234375
,80.4314383,0.5810546875
,80.4677365,0.537109375
,80.4923349,0.5126953125
,80.4928176,0.46875
,80.5081687,0.4443359375
,80.5450339,0.4052734375
,80.5669427,0.3955078125
,80.5727287,0.419921875
,80.5925567,0.5517578125
,80.6291715,0.7763671875
,80.6324441,1.0791015625
,80.6497388,1.3525390625
,80.6962613,1.6357421875
,80.6967596,1.845703125
,80.7274075,2.0263671875
,80.7319131,2.1533203125
,80.7728734,2.2412109375
,80.7733472,2.2802734375
,80.8104042,2.3095703125
,80.8119971,2.2802734375
,80.8488126,2.1875
,80.8559436,2.060546875
,80.8725065,1.9140625
,80.891117,1.7822265625
,80.9283963,1.6650390625
,80.9590233,1.5673828125
,80.9595116,1.474609375
,80.9713809,1.38671875
,81.0079625,1.3037109375
,81.0356523,1.220703125
,81.0360812,1.1474609375
,81.0517013,1.083984375
,81.09812,1.0009765625
,81.0985789,0.9228515625
,81.1132588,0.849609375
,81.147092,0.7666015625
,81.1684278,0.6884765625
,81.1742826,0.615234375
,81.2084292,0.5517578125
,81.2285736,0.4931640625
,81.2308395,0.4541015625
,81.2714133,0.41015625
,81.2724059,0.37109375
,81.293523,0.33203125
,81.3305272,0.3076171875
,81.3311911,0.2734375
,81.367034,0.283203125
,81.3881376,0.283203125
,81.3886971,0.2392578125
,81.4276522,0.244140625
,81.4465239,0.341796875
,81.4516475,0.5517578125
,81.4887032,0.8154296875
,81.508798,1.1328125
,81.5158701,1.4013671875
,81.5351946,1.6455078125
,81.555656,1.8310546875
,81.5765392,1.953125
,81.5916617,2.0263671875
,81.6268177,2.1240234375
,81.647527,2.1728515625
,81.6534319,2.1630859375
,81.6892908,2.08984375
,81.6941502,1.982421875
,81.7303011,1.845703125
,81.7529162,1.7041015625
,81.7574582,1.5966796875
,81.7716314,1.494140625
,81.8086079,1.4111328125
,81.8318254,1.337890625
,81.8321468,1.2744140625
,81.8799095,1.201171875
,81.8803908,1.1279296875
,81.9090644,1.0498046875
,81.9144788,0.9765625
,81.9324536,0.8984375
,81.9674387,0.8349609375
,81.9875792,0.7568359375
,81.9947251,0.693359375
,82.0332439,0.625
,82.033706,0.5615234375
,82.0718096,0.5029296875
,82.0723959,0.4638671875
,82.1097107,0.46875
,82.1306287,0.4541015625
,82.1337941,0.4052734375
,82.1738509,0.361328125
,82.1741701,0.322265625
,82.2197471,0.2783203125
,82.2200604,0.2392578125
,82.2296166,0.205078125
,82.2664839,0.2392578125
,82.2872551,0.3271484375
,82.2945046,0.48828125
,82.311171,0.732421875
,82.3455595,1.044921875
,82.366552,1.328125
,82.3764684,1.591796875
,82.3950751,1.8115234375
,82.4307664,1.9580078125
,82.4374919,2.080078125
,82.4573243,2.1533203125
,82.5037002,2.197265625
,82.5040454,2.1875
,82.5136043,2.1484375
,82.5510133,2.0458984375
,82.5815674,1.9189453125
,82.5820168,1.7822265625
,82.5947436,1.6650390625
,82.615985,1.5576171875
,82.658556,1.474609375
,82.6590293,1.3916015625
,82.6732407,1.328125
,82.6937707,1.2451171875
,82.7286539,1.181640625
,82.7335836,1.0986328125
,82.7714468,1.025390625
,82.7903913,0.9521484375
,82.7961264,0.888671875
,82.8332336,0.8154296875
,82.8337133,0.7568359375
,82.867811,0.7080078125
,82.8725642,0.6591796875
,82.908794,0.6103515625
,82.929782,0.576171875
,82.9349559,0.537109375
,82.9868954,0.498046875
,82.9871956,0.46875
,82.9926323,0.4736328125
,83.0132441,0.4296875
,83.0651546,0.3955078125
,83.0656656,0.3564453125
,83.0738746,0.3271484375
,83.1071452,0.3076171875
,83.1283537,0.3271484375
,83.1338618,0.4150390625
,83.1741255,0.673828125
,83.1744409,0.9375
,83.2041308,1.25
,83.2115989,1.5185546875
,83.2505129,1.767578125
,83.2713689,1.9482421875
,83.272915,2.099609375
,83.3123329,2.197265625
,83.3202735,2.265625
,83.3370777,2.2900390625
,83.357667,2.28515625
,83.393285,2.2216796875
,83.3937569,2.0947265625
,83.4301582,1.962890625
,83.4356593,1.8310546875
,83.4727981,1.7041015625
,83.4744233,1.5966796875
,83.5202421,1.50390625
,83.520551,1.416015625
,83.5415047,1.337890625
,83.5546217,1.259765625
,83.5750343,1.19140625
,83.617676,1.1181640625
,83.6180689,1.044921875
,83.635434,0.9716796875
,83.6743,0.8935546875
,83.6747753,0.830078125
,83.7120884,0.7470703125
,83.7177676,0.6884765625
,83.7339389,0.6396484375
,83.7711835,0.60546875
,83.7897402,0.5615234375
,83.7951121,0.517578125
,83.8308347,0.46875
,83.8354927,0.4248046875
,83.8789181,0.3759765625
,83.8793717,0.3857421875
,83.9004373,0.3759765625
,83.9157567,0.3271484375
,83.9349338,0.2880859375
,83.9745486,0.25390625
,83.9748907,0.234375
,84.0138303,0.302734375
,84.0170326,0.4736328125
,84.0528707,0.7275390625
,84.0578783,1.0498046875
,84.0778092,1.337890625
,84.1287079,1.572265625
,84.1290711,1.7822265625
,84.1503942,1.9677734375
,84.1578706,2.08984375
,84.1769092,2.1728515625
,84.2135184,2.2119140625
,84.2189187,2.2216796875
,84.2392656,2.177734375
,84.2839151,2.080078125
,84.2843286,1.943359375
,84.2946501,1.8115234375
,84.3307068,1.689453125
,84.3519327,1.5771484375
,84.3577608,1.4892578125
,84.3761361,1.40625
,84.4251847,1.3330078125
,84.4255039,1.2548828125
,84.4393871,1.181640625
,84.4554452,1.0986328125
,84.474146,1.0302734375
,84.5115858,0.9521484375
,84.516949,0.8837890625
,84.5513727,0.8056640625
,84.5725124,0.7373046875
,84.5794133,0.6640625
,84.5981694,0.6005859375
,84.6141097,0.537109375
,84.6489161,0.5029296875
,84.6698233,0.458984375
,84.67498,0.419921875
,84.7097619,0.390625
,84.7303233,0.3564453125
,84.7376729,0.3271484375
,84.7545933,0.2978515625
,84.781253,0.3125
,84.7946511,0.3076171875
,84.8300288,0.263671875
,84.8512784,0.2294921875
,84.8563176,0.2392578125
,84.8930267,0.3271484375
,84.8976079,0.546875
,84.9352535,0.830078125
,84.9356078,1.15234375
,84.9741531,1.4501953125
,84.9955217,1.669921875
,85.0006563,1.865234375
,85.0157779,1.9970703125
,85.0531757,2.109375
,85.0748706,2.158203125
,85.0753394,2.1826171875
,85.1138789,2.1484375
,85.1197582,2.0654296875
,85.1623321,1.943359375
,85.1626526,1.8115234375
,85.177621,1.689453125
,85.2137232,1.5966796875
,85.2173259,1.5087890625
,85.2368273,1.4404296875
,85.2842335,1.3671875
,85.2845318,1.298828125
,85.3055108,1.23046875
,85.3204164,1.15234375
,85.3619874,1.0791015625
,85.3626398,1.005859375
,85.3771658,0.9423828125
,85.413955,0.87890625
,85.4185135,0.8154296875
,85.4539492,0.7568359375
,85.4572214,0.6982421875
,85.5016466,0.64453125
,85.5021248,0.5908203125
,85.5154426,0.546875
,85.5360418,0.5126953125
,85.5802256,0.478515625
,85.580707,0.4443359375
,85.5959546,0.4150390625
,85.6358822,0.3759765625
,85.636377,0.3369140625
,85.6534752,0.2978515625
,85.6754814,0.3076171875
,85.7115521,0.3076171875
,85.7168157,0.3076171875
,85.7658286,0.390625
,85.7662089,0.6005859375
,85.7773022,0.8740234375
,85.8281193,1.19140625
,85.8284573,1.4697265625
,85.8476485,1.71875
,85.8598416,1.8994140625
,85.9070565,2.0458984375
,85.9073745,2.12890625
,85.9166657,2.2216796875
,85.9535963,2.2509765625
,85.9836209,2.2314453125
,85.9839259,2.158203125
,85.9986997,2.041015625
,86.0333884,1.8994140625
,86.0537963,1.767578125
,86.0598503,1.6552734375
,86.0776249,1.5625
,86.098901,1.484375
,86.1357102,1.416015625
,86.1360898,1.34765625
,86.1867592,1.279296875
,86.1870908,1.2109375
,86.2082598,1.1328125
,86.2210267,1.0546875
,86.2655295,0.9814453125
,86.2660058,0.8984375
,86.2789144,0.830078125
,86.3143165,0.7568359375
,86.3188491,0.6982421875
,86.3556139,0.6396484375
,86.3610797,0.595703125
,86.3794489,0.5517578125
,86.3999464,0.517578125
,86.4165457,0.48828125
,86.4510491,0.478515625
,86.4721274,0.458984375
,86.4762982,0.439453125
,86.5280362,0.41015625
,86.528511,0.3857421875
,86.5500607,0.3564453125
,86.5591873,0.380859375
,86.6081317,0.37109375
,86.6086005,0.439453125
,86.6385225,0.673828125
,86.6388795,0.927734375
,86.6750075,1.25
,86.6799342,1.533203125
,86.6994262,1.7919921875
,86.7370181,1.9921875
,86.7404444,2.1484375
,86.7766098,2.2509765625
,86.8103119,2.32421875
,86.8109288,2.3486328125
,86.8166713,2.353515625
,86.8575214,2.294921875
,86.8880256,2.1923828125
,86.888379,2.05078125
,86.9011625,1.904296875
,86.9499469,1.7724609375
,86.9505762,1.6650390625
,86.9626005,1.572265625
,86.9801428,1.4892578125
,87.0001761,1.4208984375
,87.0185125,1.34765625
,87.0601732,1.26953125
,87.0605411,1.19140625
,87.081371,1.11328125
,87.1021334,1.0302734375
,87.1235433,0.9619140625
,87.1376697,0.8837890625
,87.1748527,0.8251953125
,87.1790853,0.7568359375
,87.2144758,0.7080078125
,87.2201081,0.654296875
,87.2623213,0.60546875
,87.2627339,0.56640625
,87.2916116,0.537109375
,87.3023133,0.5029296875
,87.3187565,0.4736328125
,87.3401997,0.4541015625
,87.3851474,0.4248046875
,87.3861334,0.3955078125
,87.4007861,0.37109375
,87.4467606,0.3369140625
,87.4470754,0.3125
,87.4611613,0.341796875
,87.4790559,0.44921875
,87.5013609,0.7275390625
,87.5372278,1.0302734375
,87.5578376,1.318359375
,87.5583143,1.611328125
,87.5938537,1.8408203125
,87.6133024,2.0361328125
,87.6205265,2.16796875
,87.6558796,2.265625
,87.6762782,2.3193359375
,87.6811562,2.3486328125
,87.7166138,2.3291015625
,87.7198565,2.2705078125
,87.7575905,2.158203125
,87.7579106,2.021484375
,87.8027738,1.884765625
,87.8031237,1.767578125
,87.8243273,1.6650390625
,87.842161,1.5869140625
,87.8766762,1.5087890625
,87.8966908,1.435546875
,87.9014057,1.3818359375
,87.9216124,1.3232421875
,87.9411363,1.259765625
,87.9915875,1.1962890625
,87.9920513,1.1376953125
,88.0005173,1.083984375
,88.0356707,1.0205078125
,88.0695948,0.966796875
,88.0699129,0.9130859375
,88.0793231,0.8544921875
,88.1169156,0.7958984375
,88.1352032,0.7373046875
,88.1423516,0.6787109375
,88.1611949,0.634765625
,88.1822389,0.5859375
,88.22473,0.5419921875
,88.2252027,0.498046875
,88.2457093,0.4248046875
,88.2597382,0.3955078125
,88.295611,0.37109375
,88.3004121,0.341796875
,88.3365216,0.33203125
,88.3417063,0.37109375
,88.3794354,0.5224609375
,88.3991155,0.751953125
,88.4041504,1.044921875
,88.4192294,1.3134765625
,88.4544155,1.5673828125
,88.475522,1.748046875
,88.4826451,1.8994140625
,88.5200386,1.9970703125
,88.5205353,2.0458984375
,88.5583804,2.0654296875
,88.5613886,2.041015625
,88.5980345,1.97265625
,88.6186676,1.865234375
,88.6189636,1.748046875
,88.6395492,1.630859375
,88.6772206,1.5234375
,88.6817494,1.4404296875
,88.7169856,1.357421875
,88.7232169,1.279296875
,88.7688961,1.2060546875
,88.7692035,1.123046875
,88.7907391,1.044921875
,88.8003312,0.966796875
,88.8467051,0.87890625
,88.8470173,0.7763671875
,88.8611895,0.6787109375
,88.8986581,0.5859375
,88.9038149,0.4931640625
,88.9186077,0.4150390625
,88.9555937,0.380859375
,88.9771122,0.3173828125
,88.9804586,0.2587890625
,89.0012781,0.21484375
,89.0379196,0.1611328125
,89.0404519,0.09765625
,89.0821001,0.0048828125
,89.0825157,0.0048828125
,89.1122019,0.0048828125
,89.121532,0.0048828125
,89.1578975,0.0048828125
,89.1788351,0.0048828125
,89.1794105,0.0048828125
,89.2211415,0.009765625
,89.250779,0.3076171875
,89.2510803,0.615234375
,89.2624674,0.9326171875
,89.2997403,1.171875
,89.3042538,1.3720703125
,89.3199762,1.513671875
,89.3612963,1.6748046875
,89.3617638,1.8603515625
,89.3985212,2.0361328125
,89.401237,2.119140625
,89.4374043,2.109375
,89.4421494,2.0263671875
,89.4827832,1.9189453125
,89.5044513,1.7919921875
,89.5047812,1.6650390625
,89.5218541,1.552734375
,89.5430634,1.42578125
,89.5631557,1.3037109375
,89.5845735,1.181640625
,89.6053819,1.07421875
,89.6540043,0.9765625
,89.6544096,0.8984375
,89.662098,0.8349609375
,89.7002838,0.80078125
,89.7006583,0.78125
,89.7378851,0.78125
,89.7637024,0.7861328125
,89.7640338,0.8154296875
,89.8085009,0.8349609375
,89.8088631,0.849609375
,89.8246808,0.8544921875
,89.8445477,0.859375
,89.8657701,0.8203125
,89.8824448,0.78125
,89.9336818,0.7861328125
,89.9339904,0.78125
,89.9438926,0.76171875
,89.9805146,0.732421875
,89.9832804,0.7080078125
,90.0203026,0.6884765625
,90.0245196,0.7421875
,90.042552,0.87890625
,90.0613894,1.1376953125
,90.0952359,1.4404296875
,90.1165079,1.7138671875
,90.1245343,1.97265625
,90.1618091,2.1630859375
,90.1622984,2.333984375
,90.2008879,2.4462890625
,90.2058331,2.5341796875
,90.2223966,2.59765625
,90.2579098,2.646484375
,90.2628608,2.626953125
,90.2991062,2.5244140625
,90.30322,2.36328125
,90.3399122,2.1875
,90.3615781,2.01171875
,90.3669336,1.8310546875
,90.383363,1.6455078125
,90.4029417,1.484375
,90.424216,1.3134765625
,90.4593917,1.1767578125
,90.4624031,1.0595703125
,90.4984146,0.9765625
,90.5202791,0.888671875
,90.5249351,0.8203125
,90.5600137,0.751953125
,90.5605038,0.6884765625
,90.5970794,0.6298828125
,90.6318551,0.5810546875
,90.6321717,0.546875
,90.6430613,0.517578125
,90.6789098,0.4931640625
,90.679517,0.4736328125
,90.7180484,0.498046875
,90.7441434,0.4736328125
,90.7446102,0.4443359375
,90.7609175,0.4638671875
,90.7809206,0.4638671875
,90.8213271,0.4296875
,90.8411503,0.3955078125
,90.8442385,0.3857421875
,90.8788144,0.4296875
,90.8991553,0.5859375
,90.9045377,0.830078125
,90.9259417,1.1474609375
,90.9420765,1.435546875
,90.9938137,1.7236328125
,90.9942038,1.93359375
,91.0247036,2.1044921875
,91.0251723,2.2119140625
,91.043506,2.3046875
,91.0867668,2.34375
,91.0872381,2.3388671875
,91.1242501,2.2900390625
,91.1247214,2.1875
,91.1432758,2.060546875
,91.1798148,1.9287109375
,91.1826283,1.806640625
,91.2181693,1.7041015625
,91.2392136,1.6259765625
,91.2464647,1.552734375
,91.2863907,1.474609375
,91.2867697,1.4013671875
,91.3039802,1.337890625
,91.3229999,1.2646484375
,91.363485,1.19140625
,91.3639622,1.123046875
,91.3869723,1.0498046875
,91.4058272,0.9912109375
,91.4254763,0.9326171875
,91.4735581,0.8837890625
,91.4740156,0.830078125
,91.5053227,0.7958984375
,91.5058109,0.72265625
,91.5238889,0.7080078125
,91.5599827,0.6787109375
,91.5651031,0.6494140625
,91.6009664,0.615234375
,91.6066039,0.595703125
,91.6260865,0.5712890625
,91.6622449,0.5517578125
,91.6809301,0.5322265625
,91.6858077,0.546875
,91.704299,0.615234375
,91.7404225,0.7568359375
,91.7598083,1.0107421875
,91.764907,1.279296875
,91.8176134,1.572265625
,91.8179467,1.8115234375
,91.8267882,2.0263671875
,91.8424456,2.16796875
,91.8787811,2.2900390625
,91.8997063,2.3583984375
,91.9050452,2.392578125
,91.9430106,2.373046875
,91.9459101,2.3046875
,91.9825717,2.177734375
,91.9871428,2.0458984375
,92.0348715,1.9384765625
,92.0352376,1.8408203125
,92.0421343,1.767578125
,92.0815397,1.7041015625
,92.1121683,1.650390625
,92.1125124,1.572265625
,92.1269433,1.494140625
,92.1467207,1.4111328125
,92.1833049,1.3232421875
,92.1836259,1.2353515625
,92.2199561,1.1669921875
,92.2245598,1.09375
,92.2597368,1.025390625
,92.2658646,0.9521484375
,92.2875129,0.888671875
,92.3067173,0.8251953125
,92.3447708,0.78125
,92.3644286,0.7373046875
,92.364854,0.693359375
,92.400391,0.654296875
,92.4209449,0.6103515625
,92.4239509,0.576171875
,92.4682898,0.537109375
,92.4687533,0.5029296875
,92.4881964,0.46875
,92.5233007,0.4443359375
,92.5238692,0.4833984375
,92.5634587,0.6640625
,92.563908,0.8740234375
,92.5849628,1.162109375
,92.6069766,1.4208984375
,92.6421255,1.66015625
,92.6449748,1.8603515625
,92.6818581,1.9873046875
,92.6867406,2.0947265625
,92.7343367,2.1533203125
,92.7346975,2.1923828125
,92.7558492,2.177734375
,92.765089,2.12890625
,92.8012293,2.021484375
,92.805763,1.8896484375
,92.8410696,1.7529296875
,92.862044,1.640625
,92.8676397,1.533203125
,92.8879037,1.4453125
,92.9051792,1.3623046875
,92.941591,1.298828125
,92.9463251,1.220703125
,92.9845712,1.162109375
,92.9849952,1.083984375
,93.0317386,1.005859375
,93.0322109,0.927734375
,93.0611469,0.8544921875
,93.0681848,0.78125
,93.085195,0.7177734375
,93.1247682,0.6689453125
,93.1251724,0.6201171875
,93.1734312,0.5712890625
,93.1737506,0.5322265625
,93.1876459,0.498046875
,93.2233514,0.4638671875
,93.2279092,0.439453125
,93.2440468,0.4052734375
,93.2647848,0.41015625
,93.3147189,0.41015625
,93.3150382,0.390625
,93.345905,0.3466796875
,93.3462212,0.341796875
,93.3667411,0.439453125
,93.407424,0.6298828125
,93.4077989,0.9228515625
,93.4434961,1.2109375
,93.4504701,1.5087890625
,93.4652237,1.7431640625
,93.4860708,1.962890625
,93.534748,2.1142578125
,93.5350758,2.236328125
,93.5490102,2.2998046875
,93.5675799,2.3388671875
,93.5875759,2.314453125
,93.6324687,2.24609375
,93.6329413,2.119140625
,93.6651923,1.962890625
,93.6655083,1.8310546875
,93.7117295,1.708984375
,93.7122136,1.6015625
,93.7282185,1.513671875
,93.7728756,1.42578125
,93.7733545,1.3427734375
,93.7877324,1.2646484375
,93.8219453,1.181640625
,93.8277017,1.1083984375
,93.8644531,1.0302734375
,93.865059,0.9619140625
,93.9121743,0.87890625
,93.912628,0.8056640625
,93.9325794,0.7421875
,93.9499977,0.673828125
,93.9906801,0.60546875
,93.9911674,0.546875
,94.0080394,0.46875
,94.0269316,0.4443359375
,94.0628504,0.4248046875
,94.0697141,0.400390625
,94.0884513,0.380859375
,94.1294595,0.3564453125
,94.129843,0.341796875
,94.1466917,0.3173828125
,94.1757322,0.3369140625
,94.1861686,0.3564453125
,94.2238638,0.3857421875
,94.2285456,0.5029296875
,94.2723031,0.751953125
,94.2726306,1.064453125
,94.2896615,1.357421875
,94.3253078,1.640625
,94.3281629,1.865234375
,94.3661968,2.060546875
,94.3966869,2.1923828125
,94.3969864,2.314453125
,94.4072993,2.373046875
,94.4453931,2.392578125
,94.4513327,2.353515625
,94.4685766,2.2607421875
,94.5040766,2.1240234375
,94.5251791,1.9775390625
,94.5256588,1.8359375
,94.5699452,1.7236328125
,94.5704373,1.630859375
,94.5880596,1.54296875
,94.6339081,1.455078125
,94.6343786,1.3720703125
,94.6500907,1.2939453125
,94.6946334,1.2109375
,94.6949334,1.123046875
,94.7060938,1.044921875
,94.741072,0.9716796875
,94.7621856,0.8935546875
,94.76644,0.830078125
,94.8028757,0.76171875
,94.8240981,0.703125
,94.8293509,0.64453125
,94.8659752,0.5859375
,94.869319,0.5322265625
,94.9129181,0.5029296875
,94.9132322,0.4736328125
,94.9344556,0.478515625
,94.9495325,0.439453125
,94.9920657,0.400390625
,94.9923853,0.361328125
,95.0107795,0.322265625
,95.0472251,0.3076171875
,95.0476802,0.2978515625
,95.0832294,0.37109375
,95.1042228,0.5126953125
,95.1074215,0.7275390625
,95.1434938,1.005859375
,95.1488401,1.328125
,95.1935696,1.611328125
,95.1940491,1.8701171875
,95.2106051,2.080078125
,95.2493926,2.2216796875
,95.2497113,2.333984375
,95.2680545,2.392578125
,95.3166631,2.44140625
,95.3170032,2.4169921875
,95.3302551,2.3486328125
,95.3795087,2.2314453125
,95.3798683,2.099609375
,95.390538,1.97265625
,95.4251787,1.875
,95.4454612,1.7822265625
,95.4465389,1.708984375
,95.4853597,1.6357421875
,95.4877943,1.5576171875
,95.5247264,1.474609375
,95.5305904,1.4013671875
,95.5822173,1.318359375
,95.582689,1.2353515625
,95.5912408,1.1572265625
,95.6114372,1.09375
,95.6333988,0.9912109375
,95.6491355,0.908203125
,95.6890838,0.87890625
,95.6894049,0.83984375
,95.7360924,0.8056640625
,95.7365606,0.7666015625
,95.7504854,0.732421875
,95.7855585,0.6982421875
,95.7927392,0.673828125
,95.8093818,0.64453125
,95.8598127,0.6201171875
,95.8602754,0.6005859375
,95.8703962,0.56640625
,95.8906816,0.546875
,95.9258976,0.5517578125
,95.9460811,0.6396484375
,95.9517502,0.810546875
,95.9886004,1.083984375
,95.9889074,1.357421875
,96.0086643,1.6455078125
,96.0446191,1.8798828125
,96.0493514,2.0849609375
,96.0919578,2.2265625
,96.0922666,2.3291015625
,96.1364641,2.3876953125
,96.1367815,2.412109375
,96.1499082,2.3828125
,96.1698055,2.3291015625
,96.2058036,2.236328125
,96.2086228,2.119140625
,96.2478495,2.0068359375
,96.2509411,1.9189453125
,96.2718028,1.8359375
,96.3091503,1.767578125
,96.3094864,1.6943359375
,96.355134,1.6162109375
,96.3554816,1.552734375
,96.3695277,1.4794921875
,96.4043112,1.4111328125
,96.4255579,1.34765625
,96.4303054,1.2890625
,96.4785996,1.2255859375
,96.4794242,1.1669921875
,96.4996519,1.1181640625
,96.5123714,1.0595703125
,96.556508,1.005859375
,96.5568094,0.966796875
,96.5780405,0.9521484375
,96.5910338,0.9228515625
,96.6324553,0.9033203125
,96.6328894,0.8740234375
,96.6539173,0.849609375
,96.6720876,0.8154296875
,96.7066353,0.80078125
,96.7273109,0.771484375
,96.729699,0.771484375
,96.7663477,0.8056640625
,96.7711096,0.9423828125
,96.8199673,1.162109375
,96.820357,1.474609375
,96.8322163,1.806640625
,96.8826923,2.08984375
,96.8831707,2.3486328125
,96.8881235,2.5390625
,96.9238166,2.71484375
,96.9442537,2.83203125
,96.9502364,2.919921875
,96.9859652,2.94921875
,97.0067277,2.939453125
,97.013868,2.8564453125
,97.0507708,2.7099609375
,97.0512405,2.529296875
,97.0717377,2.373046875
,97.0901657,2.216796875
,97.1305146,2.099609375
,97.1309123,1.9921875
,97.1511842,1.8896484375
,97.1880681,1.7822265625
,97.19352,1.6796875
,97.2295074,1.5869140625
,97.229974,1.484375
,97.2707872,1.396484375
,97.2711622,1.30859375
,97.3082729,1.2255859375
,97.3119651,1.142578125
,97.3492229,1.07421875
,97.3522402,1.005859375
,97.38833,0.9423828125
,97.408359,0.888671875
,97.4149671,0.8447265625
,97.4324969,0.7958984375
,97.4511936,0.7763671875
,97.4907993,0.7470703125
,97.5199929,0.712890625
,97.5203482,0.6787109375
,97.5339018,0.6396484375
,97.5696711,0.6103515625
,97.5715956,0.6103515625
,97.6108958,0.7080078125
,97.6112015,0.9033203125
,97.6323073,1.1962890625
,97.6681217,1.4794921875
,97.6712333,1.7626953125
,97.7081636,1.9970703125
,97.7133143,2.20703125
,97.7727338,2.3583984375
,97.7731487,2.48046875
,97.7733677,2.5732421875
,97.7899735,2.6025390625
,97.8236924,2.59765625
,97.8444204,2.5146484375
,97.852051,2.3779296875
,97.8723324,2.20703125
,97.9087701,2.0654296875
,97.91428,1.953125
,97.9504256,1.8603515625
,97.9507355,1.7724609375
,97.9872902,1.69921875
,97.992596,1.6162109375
,98.0127684,1.533203125
,98.0331196,1.4501953125
,98.0782668,1.3671875
,98.0786434,1.2890625
,98.0918507,1.220703125
,98.1274111,1.15234375
,98.1542533,1.083984375
,98.1545572,0.9912109375
,98.1878982,0.9423828125
,98.1908466,0.8984375
,98.2316361,0.8642578125
,98.2320756,0.8447265625
,98.2713174,0.8251953125
,98.2887751,0.8056640625
,98.2940499,0.78125
,98.3290549,0.7568359375
,98.3317288,0.7177734375
,98.3655346,0.6787109375
,98.3866642,0.6298828125
,98.393829,0.6005859375
,98.4434547,0.64453125
,98.4438456,0.78125
,98.4523665,1.0205078125
,98.4861883,1.279296875
,98.5065787,1.552734375
,98.5119274,1.7626953125
,98.5468134,1.9677734375
,98.5519715,2.099609375
,98.5885389,2.20703125
,98.5930342,2.2607421875
,98.6296375,2.3046875
,98.6507249,2.28515625
,98.6528793,2.216796875
,98.6864653,2.08984375
,98.6916721,1.943359375
,98.7373964,1.796875
,98.7377773,1.6748046875
,98.7532387,1.5673828125
,98.7996281,1.474609375
,98.8000114,1.3916015625
,98.8148803,1.3134765625
,98.8614105,1.2353515625
