fs,t,y
51.73379525086759,0.5156124000000002,1.533203125
,0.5251667000000002,1.5380859375
,0.5450124999999999,1.5478515625
,0.5944053999999999,1.5966796875
,0.5946457999999999,1.650390625
,0.6037802000000001,1.7236328125
,0.6382843,1.767578125
,0.6409258000000002,1.8359375
,0.6751602999999999,1.875
,0.6946919,1.9189453125
,0.7024181999999999,1.943359375
,0.7378705000000001,1.962890625
,0.7648896000000001,1.9677734375
,0.7652325000000002,1.9677734375
,0.784084,1.9580078125
,0.8031571999999998,1.953125
,0.8422295000000002,1.93359375
,0.8424800000000001,1.9482421875
,0.8898742999999998,1.9384765625
,0.8902565999999998,1.9140625
,0.9194013999999999,1.89453125
,0.9256397000000001,1.8701171875
,0.9621881000000001,1.8505859375
,0.9625043,1.826171875
,1.0120974,1.8212890625
,1.0126721,1.8017578125
,1.0233949999999998,1.787109375
,1.0436383999999999,1.7578125
,1.0790213999999998,1.73828125
,1.0991094000000001,1.7138671875
,1.1045615,1.69921875
,1.1393271,1.6796875
,1.1599080000000002,1.66015625
,1.1671412,1.650390625
,1.1831718000000002,1.62109375
,1.2194463,1.62109375
,1.2238441999999998,1.6015625
,1.2747468,1.6015625
,1.2750057,1.58203125
,1.2840139000000002,1.5673828125
,1.3196148,1.5576171875
,1.3393514999999998,1.58203125
,1.3426033999999998,1.6259765625
,1.3787533,1.71875
,1.3837955000000002,1.7724609375
,1.4191775999999998,1.826171875
,1.4242091000000001,1.85546875
,1.4608062,1.8798828125
,1.4643859,1.884765625
,1.5035807,1.9091796875
,1.5064308999999998,1.9287109375
,1.5410192,1.923828125
,1.5437645999999998,1.9384765625
,1.5807793,1.93359375
,1.5848531000000001,1.9189453125
,1.6272080999999998,1.904296875
,1.6274451,1.8994140625
,1.6628056999999998,1.884765625
,1.6653399000000002,1.865234375
,1.6808293,1.845703125
,1.7153825,1.8359375
,1.7351827000000002,1.8212890625
,1.7449238,1.806640625
,1.764637,1.7822265625
,1.8163718000000002,1.7578125
,1.8166845999999999,1.7431640625
,1.8256936000000001,1.7138671875
,1.8621425,1.6943359375
,1.8625414,1.6796875
,1.8973548,1.69921875
,1.9181805,1.6845703125
,1.9242952,1.6845703125
,1.9723989,1.6650390625
,1.9728255,1.6552734375
,1.9872949000000002,1.62109375
,2.0233438,1.6162109375
,2.0290372000000003,1.58203125
,2.0488369000000004,1.5673828125
,2.0641549,1.54296875
,2.0984493000000004,1.58203125
,2.1198961,1.62109375
,2.1247920999999996,1.689453125
,2.1725771,1.73828125
,2.1728302,1.767578125
,2.1875688,1.796875
,2.2351970999999997,1.806640625
,2.235443,1.826171875
,2.2430486,1.8212890625
,2.2821768999999996,1.8408203125
,2.3019789,1.8408203125
,2.3037327000000003,1.8408203125
,2.3400116000000004,1.8212890625
,2.3600171000000003,1.8017578125
,2.3658023999999997,1.787109375
,2.4071968000000004,1.7919921875
,2.4074498999999996,1.7822265625
,2.4252098999999996,1.796875
,2.4685221000000004,1.806640625
,2.4687647000000004,1.796875
,2.4854561000000004,1.7919921875
,2.5209286000000004,1.77734375
,2.5257886000000003,1.7724609375
,2.5620684999999996,1.748046875
,2.5688012999999996,1.7333984375
,2.5852163,1.708984375
,2.6036456,1.708984375
,2.6397541999999996,1.6943359375
,2.6708117,1.69921875
,2.6712023,1.6845703125
,2.6876663,1.6748046875
,2.7077468,1.6650390625
,2.7418997000000003,1.66015625
,2.7421667000000003,1.640625
,2.7779979,1.6455078125
,2.7982015000000002,1.5771484375
,2.8064703,1.5185546875
,2.8408343,1.5625
,2.8461603999999996,1.6162109375
,2.8881664999999996,1.6845703125
,2.8885463,1.7529296875
,2.9091975000000003,1.8359375
,2.9277314,1.875
,2.9674563999999997,1.923828125
,2.9678721,1.9482421875
,2.9861098999999998,1.982421875
,3.0050714999999997,2.001953125
,3.0440003000000004,2.0263671875
,3.04457,2.021484375
,3.0791188,2.01171875
,3.1013306,1.9970703125
,3.1074650999999998,1.9677734375
,3.1548295,1.943359375
,3.1552166,1.9189453125
,3.185887,1.9287109375
,3.1862771,1.9140625
,3.231509,1.904296875
,3.2317514999999997,1.8798828125
,3.2529664,1.85546875
,3.2661968000000003,1.8212890625
,3.302046,1.8017578125
,3.3237172,1.77734375
,3.3240258999999996,1.77734375
,3.3597799999999998,1.7578125
,3.3800546000000002,1.7431640625
,3.3855785999999997,1.71875
,3.4207365000000003,1.7236328125
,3.4411217,1.7138671875
,3.4478115000000003,1.689453125
,3.4949757999999997,1.6748046875
,3.4953013000000004,1.650390625
,3.5165099,1.640625
,3.5261498,1.6259765625
,3.5717765000000004,1.6162109375
,3.5720279,1.6015625
,3.5883003999999996,1.591796875
,3.6238538,1.6064453125
,3.62634,1.640625
,3.6486794,1.6748046875
,3.6955104,1.6796875
,3.6957487999999996,1.71875
,3.7152849999999997,1.7724609375
,3.7270830000000004,1.8212890625
,3.7638748,1.8359375
,3.7645590999999996,1.865234375
,3.8053847000000003,1.8701171875
,3.8379665999999997,1.884765625
,3.8383672000000004,1.8701171875
,3.8498446,1.8603515625
,3.8661724,1.8359375
,3.9148682,1.8408203125
,3.9154434,1.8310546875
,3.9275165000000003,1.8505859375
,3.9783621,1.8359375
,3.9787548,1.8310546875
,3.9900108999999997,1.8115234375
,4.0108024,1.8017578125
,4.0254116,1.7724609375
,4.0708482,1.7822265625
,4.0713191,1.767578125
,4.0885037,1.748046875
,4.12415,1.7236328125
,4.1293716,1.69921875
,4.1662722,1.6796875
,4.1666121,1.66015625
,4.2111891,1.640625
,4.2114285,1.6259765625
,4.231905,1.6259765625
,4.246644,1.62109375
,4.2900689,1.6064453125
,4.2903851,1.5966796875
,4.3098283,1.58203125
,4.3304264,1.5673828125
,4.3680228,1.552734375
,4.3683825,1.572265625
,4.3865927,1.591796875
,4.4301504,1.6552734375
,4.4305868,1.708984375
,4.4476157,1.77734375
,4.490338,1.8115234375
,4.4905874,1.8408203125
,4.5074459,1.8505859375
,4.5463279,1.8701171875
,4.5508729,1.875
,4.5854499,1.8896484375
,4.5857203,1.8896484375
,4.6326351,1.8994140625
,4.6328753,1.8798828125
,4.6634807,1.8701171875
,4.6680374,1.8505859375
,4.7044791,1.845703125
,4.7273216,1.8359375
,4.7276644,1.8115234375
,4.7739427,1.806640625
,4.774344,1.7919921875
,4.8044797,1.796875
,4.8077961,1.787109375
,4.8522276,1.7724609375
,4.8525457,1.7578125
,4.8833029,1.748046875
,4.8900064,1.7236328125
,4.9295281,1.7041015625
,4.9298433,1.6796875
,4.9487322,1.69921875
,4.967264,1.6845703125
,5.0043584,1.6748046875
,5.0076679,1.669921875
,5.0564724,1.640625
,5.0568615,1.62109375
,5.0700885,1.6015625
,5.1053009,1.5966796875
,5.1322749,1.58203125
,5.132559,1.58203125
,5.1479866,1.58203125
,5.1846642,1.611328125
,5.1878234,1.650390625
,5.2393423,1.708984375
,5.2396402,1.7431640625
,5.2515937,1.7724609375
,5.2651595,1.7919921875
,5.3023777,1.8212890625
,5.3220356,1.8359375
,5.3280754,1.8603515625
,5.365112,1.8701171875
,5.3696815,1.865234375
,5.410503,1.85546875
,5.4107543,1.8408203125
,5.4312977,1.8310546875
,5.4668776,1.806640625
,5.4698716,1.806640625
,5.487756,1.787109375
,5.5234072,1.787109375
,5.5505135,1.767578125
,5.5509046,1.7578125
,5.5861992,1.73828125
,5.5908124,1.7333984375
,5.6265114,1.7041015625
,5.6298955,1.689453125
,5.6747959,1.6748046875
,5.6751837,1.650390625
,5.6882095,1.650390625
,5.7357483,1.640625
,5.7360118,1.640625
,5.7489313,1.6259765625
,5.7826389,1.6162109375
,5.8031852,1.5966796875
,5.8107957,1.5966796875
,5.8291131,1.572265625
,5.8480377,1.591796875
,5.884897,1.58203125
,5.8878435,1.58203125
,5.9245745,1.572265625
,5.9452914,1.58203125
,5.9501442,1.6015625
,6.001148199999999,1.6796875
,6.0013895,1.7431640625
,6.0078052,1.7822265625
,6.047719000000001,1.826171875
,6.047956599999999,1.85546875
,6.0925618,1.8798828125
,6.0927992,1.8896484375
,6.112145099999999,1.904296875
,6.130691799999999,1.904296875
,6.1711422,1.89453125
,6.171386,1.8701171875
,6.192542400000001,1.806640625
,6.2096573,1.748046875
,6.248339700000001,1.7822265625
,6.2486426,1.787109375
,6.2952087,1.787109375
,6.2955985000000005,1.7919921875
,6.3263874,1.7724609375
,6.3313123000000004,1.7626953125
,6.3722023,1.7333984375
,6.372590199999999,1.7236328125
,6.3884395000000005,1.6943359375
,6.4232496,1.689453125
,6.444933799999999,1.6748046875
,6.4508197,1.66015625
,6.4856321999999995,1.6357421875
,6.4911294999999996,1.6455078125
,6.527163099999999,1.6259765625
,6.5327001,1.62109375
,6.5491033000000005,1.5966796875
,6.5825051000000006,1.6162109375
,6.604167800000001,1.6015625
,6.6107958,1.611328125
,6.6498346,1.6015625
,6.6503669,1.5869140625
,6.695797600000001,1.5771484375
,6.6960394,1.5576171875
,6.710539300000001,1.572265625
,6.7297227,1.6064453125
,6.7756857,1.6796875
,6.7760786,1.7333984375
,6.7910246999999995,1.77734375
,6.836834700000001,1.8017578125
,6.8370882,1.8310546875
,6.850964299999999,1.8408203125
,6.8868884,1.865234375
,6.8871556,1.875
,6.924171100000001,1.89453125
,6.9448647999999995,1.9091796875
,6.949757,1.8994140625
,6.986843800000001,1.8896484375
,6.9915562,1.884765625
,7.041892000000001,1.8798828125
,7.042212900000001,1.8603515625
,7.0518722,1.8505859375
,7.0728174,1.8310546875
,7.1216691,1.7724609375
,7.122358200000001,1.7626953125
,7.1272082,1.7724609375
,7.1678046,1.7626953125
,7.189333400000001,1.7529296875
,7.1916478999999995,1.73828125
,7.2306477000000005,1.728515625
,7.230885600000001,1.708984375
,7.2666849,1.708984375
,7.2870156999999995,1.6943359375
,7.2874117,1.6748046875
,7.3238579,1.6748046875
,7.3447447,1.6650390625
,7.351509999999999,1.6552734375
,7.401980099999999,1.640625
,7.4022351,1.630859375
,7.412628700000001,1.6162109375
,7.446906500000001,1.6015625
,7.467556999999999,1.58203125
,7.470383200000001,1.5869140625
,7.511168400000001,1.5869140625
,7.511404300000001,1.6357421875
,7.5463833000000005,1.6748046875
,7.551335,1.728515625
,7.5872215999999995,1.787109375
,7.5932219,1.8212890625
,7.6122291,1.85546875
,7.6280958000000005,1.8701171875
,7.6624783,1.9140625
,7.6835652,1.93359375
,7.690450500000001,1.9482421875
,7.7435201,1.953125
,7.7439108,1.9580078125
,7.772619799999999,1.9482421875
,7.7729149,1.9482421875
,7.789417800000001,1.9384765625
,7.825806200000001,1.9384765625
,7.8311656,1.9384765625
,7.881638499999999,1.9287109375
,7.881900999999999,1.9140625
,7.8909267,1.904296875
,7.929581799999999,1.89453125
,7.9328754,1.865234375
,7.974425200000001,1.845703125
,7.974669199999999,1.81640625
,7.995987599999999,1.8017578125
,8.0115698,1.7919921875
,8.0310196,1.8017578125
,8.0689789,1.8017578125
,8.0901516,1.8017578125
,8.0904266,1.787109375
,8.1259065,1.767578125
,8.1480726,1.7529296875
,8.1552486,1.7431640625
,8.1717712,1.7138671875
,8.1909458,1.708984375
,8.2414512,1.7138671875
,8.2420346,1.69921875
,8.2536399,1.6845703125
,8.2729114,1.6748046875
,8.307955,1.6796875
,8.3137956,1.6748046875
,8.3501422,1.7041015625
,8.3505315,1.7333984375
,8.3960946,1.796875
,8.3964182,1.8359375
,8.4105828,1.884765625
,8.4462813,1.904296875
,8.474047,1.93359375
,8.4743071,1.9384765625
,8.5232476,1.9482421875
,8.5236437,1.943359375
,8.5302285,1.982421875
,8.5657284,1.9873046875
,8.5717068,1.982421875
,8.6153747,1.97265625
,8.6156254,1.9580078125
,8.6330158,1.943359375
,8.6776182,1.9189453125
,8.6779386,1.904296875
,8.6911917,1.884765625
,8.7152646,1.884765625
,8.7309548,1.8017578125
,8.772474,1.8115234375
,8.7729088,1.8115234375
,8.8022803,1.8115234375
,8.8132973,1.7919921875
,8.8482931,1.77734375
,8.8696026,1.7724609375
,8.8746662,1.7431640625
,8.9097204,1.728515625
,8.9099644,1.7041015625
,8.9434356,1.71875
,8.9650651,1.69921875
,8.9740043,1.69921875
,9.0212531,1.6748046875
,9.0214962,1.6650390625
,9.0345803,1.6455078125
,9.0836061,1.6552734375
,9.083915,1.6357421875
,9.092634,1.650390625
,9.1127078,1.6552734375
,9.1491171,1.6943359375
,9.155464,1.7333984375
,9.1897923,1.787109375
,9.1944086,1.8212890625
,9.2304467,1.845703125
,9.235087,1.8701171875
,9.2504362,1.875
,9.2925491,1.8994140625
,9.2928148,1.9140625
,9.322411,1.923828125
,9.3342314,1.9189453125
,9.3851169,1.9091796875
,9.3853632,1.884765625
,9.3958593,1.8701171875
,9.4122381,1.845703125
,9.4623256,1.8408203125
,9.4625703,1.8212890625
,9.4722518,1.8115234375
,9.5066793,1.796875
,9.5275459,1.7724609375
,9.5329562,1.7529296875
,9.5735995,1.7333984375
,9.5739181,1.7236328125
,9.5956439,1.69921875
,9.6164187,1.630859375
,9.6339603,1.5625
,9.6545022,1.5869140625
,9.6906579,1.5966796875
,9.6912209,1.6015625
,9.7292909,1.58203125
,9.7494661,1.5771484375
,9.7559764,1.5625
,9.8068459,1.5478515625
,9.8070841,1.5234375
,9.8139056,1.5380859375
,9.8338872,1.54296875
,9.8846998,1.533203125
,9.8851122,1.5283203125
,9.8940432,1.5185546875
,9.9296319,1.54296875
,9.9339048,1.5771484375
,9.9772287,1.630859375
,9.9774687,1.669921875
,10.0090726,1.7236328125
,10.0135606,1.7578125
,10.0546694,1.7822265625
,10.0549159,1.8017578125
,10.0907907,1.845703125
,10.0969813,1.85546875
,10.1166635,1.8603515625
,10.1648161,1.8603515625
,10.1654553,1.8359375
,10.173292,1.8310546875
,10.212285,1.81640625
,10.2427658,1.8115234375
,10.2430292,1.7919921875
,10.2554365,1.7724609375
,10.3041216,1.7431640625
,10.3044152,1.7236328125
,10.3129906,1.689453125
,10.3342911,1.6943359375
,10.3698306,1.669921875
,10.3744744,1.6650390625
,10.4109128,1.6455078125
,10.4155343,1.630859375
,10.4523803,1.6015625
,10.4553464,1.5966796875
,10.5056697,1.58203125
,10.5059143,1.5576171875
,10.5185677,1.5380859375
,10.5329992,1.5185546875
,10.5680835,1.513671875
,10.5878492,1.4990234375
,10.5946373,1.494140625
,10.6149955,1.4794921875
,10.6489762,1.4697265625
,10.6698292,1.455078125
,10.6776623,1.4501953125
,10.6934026,1.455078125
,10.7294769,1.5087890625
,10.7334095,1.5625
,10.7673581,1.62109375
,10.7878619,1.6796875
,10.7948837,1.7138671875
,10.8316163,1.7529296875
,10.8370996,1.7822265625
,10.879376,1.81640625
,10.8796143,1.8212890625
,10.8938172,1.85546875
,10.9411071,1.8603515625
,10.9415051,1.865234375
,10.9556485,1.8505859375
,10.9892469,1.8408203125
,11.0186532,1.81640625
,11.0188965,1.806640625
,11.0334845,1.7822265625
,11.0818743,1.7822265625
,11.0822644,1.767578125
,11.1120678,1.77734375
,11.1151778,1.7724609375
,11.151909,1.7529296875
,11.1571279,1.7431640625
,11.2052423,1.71875
,11.2057084,1.6943359375
,11.2130253,1.6748046875
,11.2328757,1.6650390625
,11.2853165,1.650390625
,11.2857073,1.640625
,11.3154242,1.6259765625
,11.3156661,1.6162109375
,11.3611454,1.6064453125
,11.3613951,1.6015625
,11.3764929,1.58203125
,11.4119933,1.5673828125
,11.4419169,1.5625
,11.4423328,1.5380859375
,11.4550158,1.5478515625
,11.4900555,1.5380859375
,11.4956312,1.5478515625
,11.532122,1.5576171875
,11.5516411,1.6064453125
,11.5571855,1.650390625
,11.5932132,1.69921875
,11.6269718,1.7431640625
,11.6273951,1.806640625
,11.6366891,1.8359375
,11.6564372,1.8701171875
,11.7039398,1.875
,11.7041837,1.884765625
,11.7177494,1.8798828125
,11.7660414,1.884765625
,11.7664881,1.8701171875
,11.7749316,1.8505859375
,11.8116158,1.8505859375
,11.8140474,1.8408203125
,11.8508956,1.8359375
,11.8561765,1.826171875
,11.9067315,1.8212890625
,11.9071396,1.806640625
,11.9182762,1.7919921875
,11.9340068,1.767578125
,11.9712501,1.7626953125
,11.9757871,1.748046875
,12.0148264,1.748046875
,12.0152083,1.7333984375
,12.0617766,1.71875
,12.062199,1.7041015625
,12.0912254,1.6796875
,12.0967746,1.66015625
,12.131311,1.66015625
,12.1386113,1.6943359375
,12.155378,1.630859375
,12.1917299,1.6552734375
,12.21124,1.6650390625
,12.2189409,1.669921875
,12.2649575,1.6552734375
,12.2653462,1.650390625
,12.2793027,1.6357421875
,12.314592,1.6357421875
,12.314897,1.6552734375
,12.3573823,1.7041015625
,12.3576845,1.7431640625
,12.4042032,1.796875
,12.4044519,1.8359375
,12.4180803,1.8408203125
,12.4543571,1.8603515625
,12.4594157,1.865234375
,12.4981328,1.8701171875
,12.4984299,1.865234375
,12.5324037,1.8798828125
,12.5351725,1.875
,12.5706663,1.865234375
,12.5925595,1.8505859375
,12.597615,1.8359375
,12.6332362,1.8115234375
,12.6389447,1.8115234375
,12.6540055,1.7822265625
,12.6959464,1.7822265625
,12.696331,1.7822265625
,12.7261,1.7578125
,12.7382813,1.73828125
,12.7746924,1.7138671875
,12.7793497,1.7041015625
,12.8182589,1.669921875
,12.8184951,1.6552734375
,12.8348595,1.62109375
,12.8794046,1.6259765625
,12.8796474,1.6064453125
,12.9007902,1.611328125
,12.9182104,1.58203125
,12.9574381,1.572265625
,12.9576842,1.5478515625
,12.9935233,1.5380859375
,13.0136871,1.5087890625
,13.0202543,1.455078125
,13.0574786,1.40625
,13.0578023,1.4208984375
,13.0908336,1.455078125
,13.0950347,1.5283203125
,13.1460527,1.5966796875
,13.1464604,1.66015625
,13.1770428,1.728515625
,13.1774306,1.7724609375
,13.2121849,1.806640625
,13.2330174,1.826171875
,13.2362764,1.8603515625
,13.2701337,1.875
,13.2915436,1.904296875
,13.2992881,1.904296875
,13.3187936,1.904296875
,13.3609868,1.9091796875
,13.3613423,1.884765625
,13.3817898,1.875
,13.3974893,1.8505859375
,13.432493,1.8603515625
,13.4380857,1.8408203125
,13.4744,1.8359375
,13.4774521,1.8115234375
,13.5188435,1.8017578125
,13.5492574,1.7822265625
,13.5495862,1.7724609375
,13.5561012,1.73828125
,13.5934276,1.73828125
,13.6160312,1.7236328125
,13.6164281,1.7138671875
,13.6583657,1.6845703125
,13.6587559,1.6943359375
,13.6878553,1.6845703125
,13.699242,1.6748046875
,13.7352525,1.66015625
,13.766902,1.650390625
,13.7671544,1.6552734375
,13.7772406,1.6455078125
,13.8120669,1.6357421875
,13.8328374,1.62109375
,13.8380773,1.611328125
,13.8602741,1.6015625
,13.9056373,1.6064453125
,13.9060441,1.6259765625
,13.9216838,1.6748046875
,13.9374511,1.708984375
,13.98461,1.7626953125
,13.9850007,1.81640625
,14.015732199999999,1.8359375
,14.021565800000001,1.865234375
,14.0408619,1.875
,14.060120600000001,1.884765625
,14.108920699999999,1.884765625
,14.109368100000001,1.8896484375
,14.1405241,1.875
,14.140798100000001,1.884765625
,14.159561700000001,1.884765625
,14.1791257,1.9091796875
,14.213591000000001,1.89453125
,14.2344839,1.89453125
,14.239286,1.875
,14.275348399999999,1.8603515625
,14.275598599999999,1.8310546875
,14.297795700000002,1.8408203125
,14.332763499999999,1.8310546875
,14.338393,1.806640625
,14.359873799999999,1.7919921875
,14.379214699999999,1.77734375
,14.413771400000002,1.7626953125
,14.434115299999998,1.73828125
,14.4421447,1.728515625
,14.4560758,1.7041015625
,14.495338,1.7041015625
,14.5158865,1.69921875
,14.518749499999998,1.6943359375
,14.5583116,1.669921875
,14.558651900000001,1.66015625
,14.591759499999998,1.6357421875
,14.612499499999998,1.62109375
,14.620365199999998,1.6162109375
,14.637141799999998,1.591796875
,14.673202400000001,1.6015625
,14.700019600000001,1.611328125
,14.700266500000001,1.6552734375
,14.737610799999999,1.6943359375
,14.7379171,1.748046875
,14.778451,1.77734375
,14.797955900000002,1.8115234375
,14.801423799999998,1.8212890625
,14.839934,1.8359375
,14.8401755,1.8359375
,14.874832999999999,1.865234375
,14.8792318,1.8701171875
,14.916241800000002,1.8701171875
,14.921767599999999,1.85546875
,14.9583108,1.85546875
,14.961185100000002,1.8408203125
,14.996484200000001,1.8212890625
,15.002487899999998,1.8115234375
,15.019632099999999,1.787109375
,15.056133299999999,1.787109375
,15.0590203,1.7724609375
,15.094089799999999,1.767578125
,15.1017598,1.748046875
,15.149654000000002,1.728515625
,15.1500394,1.708984375
,15.163386,1.689453125
,15.1799456,1.669921875
,15.198053999999999,1.6943359375
,15.2440711,1.689453125
,15.244862900000001,1.6845703125
,15.260276099999999,1.689453125
,15.2803872,1.66015625
,15.3210911,1.650390625
,15.3214842,1.630859375
,15.367598999999998,1.6162109375
,15.3679882,1.591796875
,15.3783822,1.6015625
,15.428726999999999,1.591796875
,15.4291066,1.5966796875
,15.457662599999999,1.5771484375
,15.460301600000001,1.5869140625
,15.496307000000002,1.5869140625
,15.5008457,1.62109375
,15.5352964,1.6552734375
,15.5427484,1.7138671875
,15.5587032,1.6796875
,15.601303699999999,1.748046875
,15.601542899999998,1.7919921875
,15.635525999999999,1.8115234375
,15.6404374,1.8359375
,15.6787192,1.845703125
,15.6834739,1.8505859375
,15.7018679,1.845703125
,15.737730899999999,1.8505859375
,15.7379715,1.845703125
,15.7582543,1.8505859375
,15.8024952,1.8359375
,15.802869000000001,1.826171875
,15.822571700000001,1.796875
,15.8410221,1.7724609375
,15.8752627,1.7431640625
,15.8967302,1.708984375
,15.904304499999999,1.6943359375
,15.9204315,1.650390625
,15.956044200000001,1.640625
,15.9613756,1.6162109375
,15.9978336,1.6064453125
,16.0025241,1.572265625
,16.0512355,1.5625
,16.0514979,1.54296875
,16.0624617,1.5380859375
,16.0792672,1.513671875
,16.1143716,1.5380859375
,16.121498,1.5283203125
,16.1572776,1.5283203125
,16.1594355,1.5185546875
,16.1959321,1.513671875
,16.2219201,1.4892578125
,16.2223359,1.513671875
,16.25728,1.5185546875
,16.2766988,1.5185546875
,16.2788117,1.5673828125
,16.3141998,1.62109375
,16.3346037,1.6796875
,16.3420211,1.7236328125
,16.3761367,1.77734375
,16.3969522,1.806640625
,16.4026735,1.8408203125
,16.4226453,1.85546875
,16.4436105,1.826171875
,16.4598134,1.806640625
,16.4941693,1.875
,16.5159374,1.8994140625
,16.5223037,1.9140625
,16.5628609,1.923828125
,16.56325,1.9091796875
,16.6088585,1.8994140625
,16.6092516,1.8798828125
,16.6245182,1.875
,16.6414556,1.845703125
,16.6876698,1.8408203125
,16.688061,1.8212890625
,16.7020921,1.81640625
,16.7490938,1.796875
,16.7493376,1.7919921875
,16.7645307,1.767578125
,16.799886,1.7529296875
,16.8003785,1.7333984375
,16.8196872,1.728515625
,16.8546739,1.71875
,16.8756465,1.71875
,16.8829417,1.708984375
,16.9346019,1.6845703125
,16.9349916,1.669921875
,16.9436457,1.650390625
,16.9957548,1.6357421875
,16.9962276,1.6162109375
,17.0011039,1.6259765625
,17.0422233,1.611328125
,17.042468,1.611328125
,17.0784348,1.6162109375
,17.0833832,1.6455078125
,17.1190466,1.6845703125
,17.1246748,1.73828125
,17.1405007,1.767578125
,17.1838183,1.8212890625
,17.1842087,1.875
,17.2001854,1.8994140625
,17.2366994,1.9140625
,17.2571085,1.9384765625
,17.2625019,1.962890625
,17.2842936,1.962890625
,17.3229856,1.953125
,17.3232336,1.943359375
,17.3591294,1.923828125
,17.3789694,1.904296875
,17.3837305,1.9091796875
,17.4016326,1.884765625
,17.449076,1.875
,17.449318,1.8505859375
,17.4701985,1.8359375
,17.4838345,1.806640625
,17.5284292,1.796875
,17.5286719,1.77734375
,17.5403873,1.7431640625
,17.5919203,1.73828125
,17.5921569,1.7236328125
,17.6214347,1.708984375
,17.6216783,1.6845703125
,17.6562586,1.669921875
,17.6786355,1.6455078125
,17.6856673,1.630859375
,17.7024655,1.611328125
,17.7222427,1.6064453125
,17.7413983,1.5966796875
,17.7764951,1.5966796875
,17.7966025,1.58203125
,17.8032465,1.5673828125
,17.8257604,1.5673828125
,17.8598972,1.552734375
,17.8656261,1.5576171875
,17.8805154,1.58203125
,17.9187023,1.6455078125
,17.9490831,1.689453125
,17.949478,1.7431640625
,17.962762,1.77734375
,18.0088945,1.8115234375
,18.0091841,1.826171875
,18.0251314,1.85546875
,18.0412196,1.8505859375
,18.0884993,1.8798828125
,18.0887498,1.8798828125
,18.1031743,1.8798828125
,18.1377232,1.8603515625
,18.1583793,1.8603515625
,18.1635745,1.8408203125
,18.1992528,1.81640625
,18.2043037,1.806640625
,18.2412849,1.787109375
,18.2458054,1.767578125
,18.260587,1.7626953125
,18.2928873,1.77734375
,18.3154941,1.7626953125
,18.3246313,1.748046875
,18.3601526,1.7333984375
,18.3636912,1.7138671875
,18.4142867,1.689453125
,18.4146095,1.669921875
,18.4464978,1.650390625
,18.4468895,1.6357421875
,18.4624203,1.640625
,18.5069173,1.6162109375
,18.5071606,1.6015625
,18.5275882,1.572265625
,18.5443046,1.5673828125
,18.5842858,1.5380859375
,18.5845271,1.5234375
,18.6052531,1.50390625
,18.6223812,1.5087890625
,18.6638683,1.5234375
,18.664107,1.572265625
,18.6990785,1.6064453125
,18.7050945,1.66015625
,18.7251766,1.6943359375
,18.7758301,1.73828125
,18.7760728,1.748046875
,18.7828996,1.8017578125
,18.8242591,1.826171875
,18.8246999,1.8359375
,18.8459834,1.8408203125
,18.8645264,1.826171875
,18.8995562,1.81640625
,18.9204979,1.7919921875
,18.9255881,1.7822265625
,18.9471263,1.7578125
,18.9668656,1.6943359375
,18.983516,1.6455078125
,19.0038791,1.6748046875
,19.0380342,1.6845703125
,19.0591259,1.69921875
,19.0632439,1.6943359375
,19.1003604,1.6845703125
,19.1211618,1.6796875
,19.1260409,1.6552734375
,19.1761921,1.640625
,19.1765416,1.611328125
,19.1832022,1.6162109375
,19.2188993,1.5966796875
,19.2252919,1.5966796875
,19.2452448,1.58203125
,19.2798148,1.58203125
,19.3001658,1.5673828125
,19.3073162,1.572265625
,19.3236441,1.552734375
,19.3431302,1.5625
,19.3918443,1.5576171875
,19.3920934,1.5576171875
,19.4050764,1.552734375
,19.455965,1.591796875
,19.4563558,1.640625
,19.48496,1.6845703125
,19.4852103,1.7431640625
,19.5217359,1.7822265625
,19.521981,1.8408203125
,19.5631247,1.8701171875
,19.5633632,1.9189453125
,19.5830972,1.93359375
,19.6176902,1.9580078125
,19.6388166,1.9580078125
,19.6462172,1.9677734375
,19.6629111,1.943359375
,19.6847109,1.9482421875
,19.7356865,1.93359375
,19.7360773,1.923828125
,19.7445924,1.9140625
,19.7811654,1.884765625
,19.7857872,1.8701171875
,19.8260295,1.85546875
,19.8262671,1.845703125
,19.8467754,1.81640625
,19.8825441,1.8017578125
,19.9026205,1.767578125
,19.9051392,1.7626953125
,19.941762,1.73828125
,19.9449452,1.7333984375
,19.9835588,1.69921875
,20.0132321,1.6845703125
,20.0135417,1.66015625
,20.028174,1.6455078125
,20.0426789,1.611328125
,20.0756004,1.62109375
,20.0958409,1.611328125
,20.1038611,1.5869140625
,20.140639,1.572265625
,20.1618248,1.552734375
,20.1668796,1.533203125
,20.2196644,1.5234375
,20.2200108,1.5478515625
,20.2248866,1.58203125
,20.2466076,1.650390625
,20.2954128,1.7041015625
,20.2956866,1.7578125
,20.3048558,1.796875
,20.3273033,1.8505859375
,20.3473608,1.8798828125
,20.3889226,1.904296875
,20.3891729,1.9384765625
,20.4040697,1.9287109375
,20.4412261,1.9384765625
,20.4444228,1.9189453125
,20.4849731,1.9091796875
,20.5132129,1.884765625
,20.5134575,1.875
,20.5268846,1.845703125
,20.5617584,1.8310546875
,20.582291,1.796875
,20.5825366,1.806640625
,20.617658,1.7822265625
,20.6382045,1.7724609375
,20.6463923,1.748046875
,20.6810489,1.7333984375
,20.6881222,1.7041015625
,20.7085359,1.6943359375
,20.7277759,1.669921875
,20.7619364,1.6455078125
,20.7827504,1.6259765625
,20.785202,1.611328125
,20.8216622,1.611328125
,20.8274732,1.6015625
,20.8461157,1.5966796875
,20.8814088,1.58203125
,20.9015011,1.572265625
,20.9073241,1.5576171875
,20.9498352,1.5478515625
,20.9502233,1.5380859375
,20.9661103,1.58203125
,21.0101269,1.6259765625
,21.010417,1.689453125
,21.0268191,1.7578125
,21.072901,1.7919921875
,21.0733869,1.8310546875
,21.0900008,1.8505859375
,21.1342695,1.884765625
,21.1345906,1.8896484375
,21.1454134,1.9189453125
,21.181367,1.9189453125
,21.1865227,1.923828125
,21.219977,1.904296875
,21.2406648,1.89453125
,21.2474501,1.8701171875
,21.2834717,1.85546875
,21.3051552,1.8310546875
,21.305557,1.8310546875
,21.341799,1.81640625
,21.3463508,1.8212890625
,21.3659528,1.81640625
,21.4013317,1.7919921875
,21.4287059,1.7724609375
,21.4290955,1.7431640625
,21.4759988,1.728515625
,21.4763459,1.7041015625
,21.4859277,1.69921875
,21.5374546,1.6748046875
,21.5377733,1.669921875
,21.5465262,1.650390625
,21.5892684,1.630859375
,21.5896625,1.611328125
,21.6373205,1.6064453125
,21.6377153,1.572265625
,21.6493118,1.5625
,21.7009433,1.552734375
,21.701244,1.5234375
,21.7306186,1.5283203125
,21.7309311,1.5478515625
,21.7499097,1.591796875
,21.7683118,1.6357421875
,21.8066483,1.6748046875
,21.8070335,1.71875
,21.8561762,1.7529296875
,21.8565861,1.7919921875
,21.8742836,1.8505859375
,21.8868829,1.89453125
,21.9284154,1.9287109375
,21.9426563,1.9384765625
,21.9466698,1.93359375
,21.980585,1.9091796875
,22.0023472,1.89453125
,22.0097056,1.8798828125
,22.0255699,1.845703125
,22.0731314,1.8359375
,22.0735223,1.81640625
,22.0933417,1.8115234375
,22.1078802,1.7919921875
,22.1525667,1.7822265625
,22.1529568,1.7578125
,22.1725536,1.7431640625
,22.1872448,1.708984375
,22.2228134,1.7041015625
,22.2278772,1.6943359375
,22.2760681,1.6845703125
,22.2763187,1.6552734375
,22.2899266,1.640625
,22.3382013,1.630859375
,22.3387586,1.5966796875
,22.3493573,1.5771484375
,22.3714048,1.5576171875
,22.3906281,1.50390625
,22.4078694,1.4453125
,22.4432873,1.4794921875
,22.4485425,1.4990234375
,22.4858769,1.5185546875
,22.4905259,1.5380859375
,22.5097281,1.591796875
,22.5463819,1.6357421875
,22.5509244,1.6845703125
,22.5674404,1.71875
,22.602384,1.77734375
,22.6078445,1.806640625
,22.6432841,1.8505859375
,22.6502585,1.8798828125
,22.6699832,1.8896484375
,22.7072743,1.8994140625
,22.7117424,1.89453125
,22.730906,1.8798828125
,22.7470874,1.865234375
,22.7819696,1.8701171875
,22.8020429,1.865234375
,22.8071325,1.85546875
,22.8451752,1.8408203125
,22.8497008,1.8212890625
,22.8851678,1.806640625
,22.8902668,1.8017578125
,22.9071609,1.7822265625
,22.9432199,1.787109375
,22.9492334,1.7919921875
,22.9867665,1.767578125
,22.9871577,1.7529296875
,23.0258014,1.7236328125
,23.0315629,1.7138671875
,23.0509688,1.6796875
,23.0931831,1.669921875
,23.0935828,1.6455078125
,23.1076681,1.6650390625
,23.1575439,1.6455078125
,23.15793,1.6552734375
,23.1677137,1.630859375
,23.204941,1.6259765625
,23.2327834,1.611328125
,23.2330263,1.611328125
,23.2491748,1.611328125
,23.2842727,1.6064453125
,23.306724,1.69921875
,23.3072544,1.7822265625
,23.3587027,1.8798828125
,23.359357,1.9580078125
,23.3688551,2.0166015625
,23.403319,2.05078125
,23.4242518,2.0947265625
,23.4316769,2.109375
,23.4682181,2.119140625
,23.4685555,2.109375
,23.5038671,2.109375
,23.5093043,2.0849609375
,23.5296561,2.0654296875
,23.5512329,2.03125
,23.5695186,2.0068359375
,23.6069311,1.982421875
,23.6118537,1.953125
,23.6478685,1.93359375
,23.6481285,1.89453125
,23.6846896,1.884765625
,23.6886627,1.8603515625
,23.7223497,1.8408203125
,23.7452757,1.8115234375
,23.7520798,1.7919921875
,23.7709187,1.7578125
,23.8056258,1.73828125
,23.8273075,1.7041015625
,23.8275431,1.69921875
,23.8702297,1.6796875
,23.8706389,1.6650390625
,23.8914272,1.6455078125
,23.9103058,1.640625
,23.9455165,1.630859375
,23.9673669,1.611328125
,23.9723161,1.5966796875
,23.9897744,1.5771484375
,24.031722,1.591796875
,24.0321128,1.611328125
,24.0505674,1.66015625
,24.092969,1.7041015625
,24.0933608,1.7626953125
,24.1131212,1.8017578125
,24.1327068,1.8359375
,24.1718425,1.845703125
,24.1722369,1.865234375
,24.1891782,1.865234375
,24.2230128,1.89453125
,24.2429262,1.9091796875
,24.2519104,1.8994140625
,24.2977343,1.8896484375
,24.2981155,1.8798828125
,24.3117891,1.875
,24.3465229,1.8603515625
,24.3663454,1.85546875
,24.3724626,1.8310546875
,24.3907166,1.8310546875
,24.4254632,1.81640625
,24.4309015,1.8212890625
,24.4817974,1.8017578125
,24.4821985,1.796875
,24.4921082,1.767578125
,24.5272833,1.73828125
,24.5275302,1.69921875
,24.5617446,1.7041015625
,24.5834207,1.689453125
,24.5904293,1.669921875
,24.6132998,1.6552734375
,24.632402,1.640625
,24.6671978,1.6259765625
,24.6712911,1.611328125
,24.7053285,1.611328125
,24.7270646,1.5966796875
,24.7299346,1.6015625
,24.762579,1.5966796875
,24.785191,1.6015625
,24.7906337,1.6162109375
,24.8252201,1.6552734375
,24.8455496,1.69921875
,24.8511687,1.748046875
,24.8876017,1.8017578125
,24.9173926,1.826171875
,24.917753,1.875
,24.9321716,1.8896484375
,24.9504595,1.9189453125
,24.9858718,1.923828125
,25.0063103,1.9384765625
,25.0114865,1.9287109375
,25.0321175,1.9189453125
,25.074508,1.8896484375
,25.0747823,1.884765625
,25.0898456,1.8603515625
,25.13741,1.865234375
,25.1377588,1.845703125
,25.1672869,1.8310546875
,25.1716397,1.8017578125
,25.2057052,1.7919921875
,25.2265471,1.767578125
,25.2352424,1.7333984375
,25.26938,1.7041015625
,25.2697963,1.6796875
,25.308313,1.6748046875
,25.3290321,1.66015625
,25.3312824,1.650390625
,25.3724295,1.640625
,25.3729003,1.62109375
,25.3929314,1.6015625
,25.4268652,1.5771484375
,25.4484018,1.5771484375
,25.4511321,1.5966796875
,25.4833745,1.5966796875
,25.5064935,1.5869140625
,25.5115651,1.5966796875
,25.5475177,1.58203125
,25.5760393,1.5966796875
,25.576359,1.611328125
,25.5948293,1.6552734375
,25.6102286,1.6796875
,25.6301933,1.748046875
,25.6679997,1.796875
,25.6707042,1.85546875
,25.7140572,1.89453125
,25.7142928,1.9287109375
,25.7337096,1.943359375
,25.754496,1.953125
,25.7734667,1.943359375
,25.7945348,1.884765625
,25.8114572,1.8212890625
,25.8460948,1.8505859375
,25.8668968,1.8603515625
,25.8722569,1.845703125
,25.91655,1.8310546875
,25.916787,1.8115234375
,25.9323149,1.7919921875
,25.9679909,1.767578125
,25.9881834,1.7529296875
,25.99158,1.7333984375
,26.0112215,1.7333984375
,26.0470196,1.7138671875
,26.0524747,1.7041015625
,26.0875785,1.6845703125
,26.0932852,1.6650390625
,26.1361679,1.6455078125
,26.1365584,1.630859375
,26.1665557,1.62109375
,26.1732738,1.6015625
,26.1914332,1.6015625
,26.2280057,1.591796875
,26.2479694,1.5869140625
,26.2527441,1.572265625
,26.2883171,1.5673828125
,26.2942126,1.5478515625
,26.3286768,1.552734375
,26.3290348,1.5673828125
,26.3650573,1.630859375
,26.3994852,1.6845703125
,26.4000489,1.7529296875
,26.4124952,1.8115234375
,26.4475374,1.8505859375
,26.4688714,1.884765625
,26.4739425,1.9384765625
,26.5115443,1.97265625
,26.5119325,1.982421875
,26.5416899,2.01171875
,26.5520419,2.01171875
,26.5722199,2.001953125
,26.6078268,1.9775390625
,26.635725,1.9580078125
,26.6359655,1.9287109375
,26.6547725,1.9091796875
,26.6900268,1.8798828125
,26.6945288,1.865234375
,26.7128097,1.8359375
,26.7331089,1.8359375
,26.7776602,1.8115234375
,26.7778991,1.796875
,26.7929174,1.7822265625
,26.8274503,1.7529296875
,26.849192,1.7333984375
,26.8560619,1.7041015625
,26.8772359,1.6845703125
,26.8929219,1.6552734375
,26.9288537,1.6552734375
,26.9495031,1.6455078125
,26.9519506,1.640625
,26.9985988,1.6162109375
,26.9989892,1.6162109375
,27.0299312,1.6015625
,27.0347094,1.591796875
,27.0529349,1.5673828125
,27.087423,1.58203125
,27.0931776,1.5869140625
,27.1361087,1.630859375
,27.1364991,1.6796875
,27.1549694,1.728515625
,27.1977108,1.7919921875
,27.197949,1.8310546875
,27.2162823,1.8701171875
,27.2318241,1.89453125
,27.2664679,1.93359375
,27.2870391,1.9482421875
,27.2924495,1.943359375
,27.3284702,1.943359375
,27.3485789,1.9287109375
,27.3535199,1.8994140625
,27.3890623,1.8798828125
,27.4110109,1.85546875
,27.4114781,1.85546875
,27.4615398,1.8505859375
,27.4617736,1.8212890625
,27.4732083,1.806640625
,27.5225467,1.7822265625
,27.5227905,1.7724609375
,27.5431384,1.7431640625
,27.5558873,1.7236328125
,27.5775293,1.689453125
,27.618311,1.6650390625
,27.6186952,1.6357421875
,27.6340572,1.6357421875
,27.6803768,1.611328125
,27.6806503,1.6015625
,27.6953538,1.5771484375
,27.7421744,1.5673828125
,27.7424263,1.54296875
,27.755257,1.5283203125
,27.7918034,1.5087890625
,27.7921492,1.4892578125
,27.8296582,1.494140625
,27.8349573,1.4892578125
,27.8828993,1.494140625
,27.8831759,1.5185546875
,27.8955527,1.5673828125
,27.9318962,1.6162109375
,27.9364083,1.6748046875
,27.9523765,1.71875
,27.9732237,1.767578125
,28.0075973,1.8017578125
,28.0286169,1.845703125
,28.0347057,1.8603515625
,28.0554335,1.875
,28.0758895,1.8798828125
,28.1175831,1.8603515625
,28.1178248,1.845703125
,28.1380326,1.8212890625
,28.1528309,1.8212890625
,28.1983955,1.8017578125
,28.1987321,1.796875
,28.2150382,1.77734375
,28.2604337,1.767578125
,28.2607713,1.7431640625
,28.2761078,1.728515625
,28.2923678,1.6943359375
,28.3136972,1.689453125
,28.3481754,1.669921875
,28.3684206,1.6552734375
,28.3735084,1.630859375
,28.4092214,1.611328125
,28.4301643,1.5966796875
,28.4378484,1.5625
,28.473322,1.5478515625
,28.4760826,1.5283203125
,28.4976758,1.5185546875
,28.5132592,1.513671875
,28.5535186,1.54296875
,28.5855718,1.552734375
,28.5859648,1.5576171875
,28.5969329,1.552734375
,28.6177893,1.5478515625
,28.6641062,1.5625
,28.6643426,1.6162109375
,28.6741248,1.6650390625
,28.7098985,1.7431640625
,28.7133578,1.81640625
,28.7576628,1.85546875
,28.7578996,1.8994140625
,28.7777141,1.9287109375
,28.8195025,1.962890625
,28.8198919,1.9775390625
,28.8371396,1.9873046875
,28.8545811,1.9873046875
,28.8888991,1.9921875
,28.8927064,1.9775390625
,28.9442249,1.9677734375
,28.9447685,1.9482421875
,28.9571854,1.923828125
,28.9927448,1.8994140625
,28.9971975,1.875
,29.0132463,1.845703125
,29.0483697,1.85546875
,29.0537428,1.845703125
,29.0901253,1.8115234375
,29.0951546,1.7919921875
,29.1305947,1.7578125
,29.1369431,1.7333984375
,29.1722845,1.708984375
,29.1774114,1.6943359375
,29.1977745,1.6650390625
,29.2177346,1.591796875
,29.2336533,1.5380859375
,29.2690708,1.5576171875
,29.2880553,1.5576171875
,29.2947655,1.5576171875
,29.3351048,1.54296875
,29.3672146,1.5283203125
,29.3676054,1.5234375
,29.3784791,1.4990234375
,29.3995032,1.494140625
,29.4157679,1.513671875
,29.458426,1.5771484375
,29.4589884,1.6357421875
,29.4790241,1.708984375
,29.5140134,1.7529296875
,29.515789,1.8115234375
,29.5674171,1.8408203125
,29.5678072,1.8896484375
,29.597426,1.8994140625
,29.5976694,1.9384765625
,29.6322021,1.9482421875
,29.6354215,1.953125
,29.6726873,1.9287109375
,29.6778461,1.9287109375
,29.6991282,1.9091796875
,29.7349039,1.8798828125
,29.7370839,1.8603515625
,29.7710349,1.8359375
,29.7756085,1.826171875
,29.8126629,1.8115234375
,29.8167504,1.8017578125
,29.8617561,1.77734375
,29.8619987,1.7578125
,29.878112,1.7333984375
,29.9256129,1.7041015625
,29.9259571,1.6748046875
,29.9352234,1.6796875
,29.970921,1.6552734375
,29.9765054,1.6455078125
,30.0191533,1.6357421875
,30.0193924,1.6015625
,30.037801299999998,1.5869140625
,30.072734500000003,1.572265625
,30.092945399999998,1.5771484375
,30.097808200000003,1.552734375
,30.132725399999998,1.5478515625
,30.152241500000002,1.533203125
,30.156371999999998,1.552734375
,30.191938800000003,1.572265625
,30.196435200000003,1.62109375
,30.233466900000003,1.66015625
,30.238592599999997,1.7236328125
,30.2590176,1.7578125
,30.2980935,1.7919921875
,30.298455699999998,1.8017578125
,30.316332600000003,1.8505859375
,30.360331000000002,1.875
,30.360647200000002,1.875
,30.377097399999997,1.875
,30.4139493,1.865234375
,30.416714900000002,1.8505859375
,30.469170499999997,1.8310546875
,30.4700068,1.81640625
,30.4747073,1.8017578125
,30.5114382,1.796875
,30.515513,1.787109375
,30.552917,1.77734375
,30.5582804,1.7578125
,30.609228299999998,1.7578125
,30.6096607,1.73828125
,30.6208132,1.7236328125
,30.6557677,1.708984375
,30.6561747,1.6748046875
,30.700150899999997,1.669921875
,30.7004717,1.6552734375
,30.7188503,1.650390625
,30.7376911,1.630859375
,30.7743269,1.611328125
,30.778782399999997,1.5869140625
,30.8145169,1.5673828125
,30.815023600000004,1.54296875
,30.851658999999998,1.5478515625
,30.8572584,1.533203125
,30.9007887,1.5185546875
,30.901133899999998,1.50390625
,30.917434900000003,1.4990234375
,30.9614768,1.494140625
,30.961866800000003,1.5380859375
,30.980348499999998,1.5869140625
,31.0249022,1.6162109375
,31.025175599999997,1.6552734375
,31.036223,1.6796875
,31.087277200000003,1.7138671875
,31.0877039,1.73828125
,31.1074579,1.767578125
,31.1190037,1.77734375
,31.154029800000004,1.7822265625
,31.1581812,1.767578125
,31.209497399999997,1.7529296875
,31.209739399999997,1.7236328125
,31.230159999999998,1.73828125
,31.237994200000003,1.7236328125
,31.2885707,1.71875
,31.2889621,1.708984375
,31.300166500000003,1.6796875
,31.335591899999997,1.6650390625
,31.3388086,1.6455078125
,31.3752797,1.630859375
,31.3755289,1.6064453125
,31.4111209,1.6015625
,31.4319846,1.5869140625
,31.437897900000003,1.572265625
,31.474004700000002,1.5478515625
,31.5041302,1.54296875
,31.5043886,1.5234375
,31.5200241,1.5087890625
,31.5368006,1.494140625
,31.5577519,1.494140625
,31.5965949,1.484375
,31.596911900000002,1.4990234375
,31.620147699999997,1.4990234375
,31.6392279,1.484375
,31.675178099999997,1.4794921875
,31.695093800000002,1.46484375
,31.7003888,1.455078125
,31.716839899999997,1.4599609375
,31.751397500000003,1.5087890625
,31.772313500000003,1.494140625
,31.7782134,1.5771484375
,31.8147588,1.6357421875
,31.819566000000002,1.689453125
,31.856185099999998,1.7236328125
,31.860964099999997,1.767578125
,31.896209499999998,1.796875
,31.902543100000003,1.81640625
,31.9208674,1.8359375
,31.9378965,1.826171875
,31.9726165,1.8359375
,31.9930375,1.8310546875
,31.998580099999998,1.8310546875
,32.0361732,1.8115234375
,32.0418857,1.806640625
,32.0601089,1.787109375
,32.0968725,1.7724609375
,32.0971963,1.7578125
,32.1277589,1.7626953125
,32.138404,1.748046875
,32.1729336,1.73828125
,32.1930618,1.7236328125
,32.1976547,1.7138671875
,32.2340661,1.6796875
,32.2544234,1.6748046875
,32.261431,1.66015625
,32.2777537,1.630859375
,32.3283161,1.6259765625
,32.3286119,1.62109375
,32.3576155,1.611328125
,32.3578533,1.5966796875
,32.3944916,1.58203125
,32.4145862,1.5673828125
,32.4212728,1.552734375
,32.4372205,1.5380859375
,32.4842503,1.5380859375
,32.485012,1.5380859375
,32.4987851,1.5673828125
,32.5189879,1.591796875
,32.5546797,1.6357421875
,32.5752769,1.6943359375
,32.5809866,1.728515625
,32.6006706,1.767578125
,32.6199997,1.796875
,32.6551751,1.796875
,32.6836406,1.8359375
,32.6840898,1.884765625
,32.6984596,1.8994140625
,32.7353466,1.9140625
,32.7617665,1.8994140625
,32.7620658,1.8994140625
,32.8097793,1.8798828125
,32.8101146,1.865234375
,32.8190306,1.845703125
,32.8543784,1.8408203125
,32.8593807,1.8212890625
,32.9027353,1.8212890625
,32.9030519,1.81640625
,32.920816,1.7919921875
,32.9429439,1.7724609375
,32.9814201,1.748046875
,32.981724,1.728515625
,33.000057,1.7041015625
,33.0194262,1.708984375
,33.0536594,1.69921875
,33.0754349,1.6845703125
,33.0800613,1.669921875
,33.1208948,1.6552734375
,33.1211328,1.6357421875
,33.1617903,1.6357421875
,33.1621993,1.611328125
,33.1945254,1.6162109375
,33.1989168,1.62109375
,33.2376128,1.6015625
,33.240121,1.6015625
,33.2850294,1.591796875
,33.2853795,1.62109375
,33.3018351,1.650390625
,33.3357508,1.69921875
,33.3563177,1.73828125
,33.3592232,1.8017578125
,33.4079714,1.8408203125
,33.4082181,1.8798828125
,33.4191256,1.89453125
,33.4571565,1.9140625
,33.4627633,1.9189453125
,33.4825365,1.9140625
,33.5321338,1.8994140625
,33.5331335,1.904296875
,33.5434318,1.89453125
,33.5595062,1.865234375
,33.5953026,1.8603515625
,33.6153364,1.8505859375
,33.6230283,1.8310546875
,33.6703877,1.8115234375
,33.670642,1.8115234375
,33.6814144,1.7919921875
,33.7188771,1.7822265625
,33.719287,1.7529296875
,33.7544184,1.748046875
,33.7752629,1.7333984375
,33.7826338,1.728515625
,33.8010111,1.7041015625
,33.8430834,1.6796875
,33.8434372,1.6748046875
,33.8730207,1.6552734375
,33.8826039,1.640625
,33.9008619,1.6162109375
,33.9523562,1.62109375
,33.9526855,1.6064453125
,33.9612229,1.591796875
,33.9984895,1.5673828125
,34.0007555,1.5576171875
,34.0453612,1.54296875
,34.0455977,1.5625
,34.0662943,1.58203125
,34.0782734,1.6455078125
,34.1141378,1.6845703125
,34.1347411,1.728515625
,34.1420086,1.7578125
,34.1785199,1.8017578125
,34.1806287,1.826171875
,34.2162807,1.8408203125
,34.2359934,1.85546875
,34.2394583,1.8505859375
,34.2762481,1.85546875
,34.2812394,1.8505859375
,34.3022434,1.845703125
,34.3370997,1.8310546875
,34.3422252,1.81640625
,34.3872294,1.7919921875
,34.3874869,1.7724609375
,34.4037771,1.7529296875
,34.4241988,1.7431640625
,34.4391946,1.7138671875
,34.4744589,1.708984375
,34.4956307,1.7041015625
,34.5006001,1.6748046875
,34.5387034,1.66015625
,34.544397,1.640625
,34.5913527,1.6259765625
,34.5915996,1.6015625
,34.6047867,1.5869140625
,34.6209853,1.5673828125
,34.6581827,1.572265625
,34.6622252,1.5673828125
,34.6979748,1.5771484375
,34.7025028,1.5673828125
,34.7489242,1.572265625
,34.7492344,1.5576171875
,34.7774258,1.5576171875
,34.7792481,1.5380859375
,34.8251013,1.5771484375
,34.8253566,1.6162109375
,34.8552284,1.66015625
,34.8625855,1.708984375
,34.9014404,1.748046875
,34.9018465,1.787109375
,34.9383537,1.8115234375
,34.9666052,1.8359375
,34.966856,1.8505859375
,34.9818649,1.884765625
,35.0161388,1.8994140625
,35.02122,1.904296875
,35.056511,1.8994140625
,35.0778955,1.8994140625
,35.0845564,1.8798828125
,35.1194882,1.8603515625
,35.1251178,1.845703125
,35.1459077,1.81640625
,35.1651038,1.7431640625
,35.18155,1.6943359375
,35.2173146,1.7333984375
,35.2481617,1.73828125
,35.248594,1.73828125
,35.2641105,1.728515625
,35.284802,1.7138671875
,35.3258843,1.689453125
,35.3261265,1.6748046875
,35.3417348,1.650390625
,35.3895878,1.650390625
,35.3898396,1.6357421875
,35.403391,1.62109375
,35.4526717,1.6015625
,35.4531487,1.5966796875
,35.4650954,1.5869140625
,35.5147757,1.5625
,35.5151668,1.5478515625
,35.5202683,1.533203125
,35.5611437,1.533203125
,35.5616141,1.533203125
,35.5818037,1.5673828125
,35.6236351,1.591796875
,35.6239239,1.630859375
,35.6447082,1.6650390625
,35.6863126,1.7041015625
,35.6865611,1.7333984375
,35.7069902,1.7822265625
,35.7229626,1.8017578125
,35.7592547,1.8310546875
,35.7624095,1.8505859375
,35.8111269,1.845703125
,35.8113678,1.8408203125
,35.8317374,1.826171875
,35.8455822,1.81640625
,35.8616926,1.796875
,35.8995949,1.796875
,35.9038472,1.787109375
,35.9400356,1.7822265625
,35.9445295,1.767578125
,35.9952336,1.7626953125
,35.9954764,1.748046875
,36.0055751,1.728515625
,36.0253446,1.708984375
,36.0574645,1.650390625
,36.0607421,1.5966796875
,36.1042866,1.630859375
,36.1046796,1.6552734375
,36.1354744,1.6455078125
,36.1444047,1.6455078125
,36.1811349,1.6357421875
,36.1856332,1.630859375
,36.221162,1.6162109375
,36.2264788,1.62109375
,36.2445965,1.611328125
,36.2628269,1.6162109375
,36.3050295,1.6064453125
,36.3054778,1.611328125
,36.3424439,1.5966796875
,36.3452288,1.6162109375
,36.3660095,1.630859375
,36.4136185,1.6650390625
,36.4140363,1.7138671875
,36.4427053,1.7431640625
,36.4429459,1.787109375
,36.4792478,1.806640625
,36.4821647,1.8408203125
,36.5223045,1.8408203125
,36.543041,1.85546875
,36.5457726,1.8505859375
,36.5796358,1.845703125
,36.6016377,1.8310546875
,36.6018974,1.845703125
,36.6482272,1.8310546875
,36.6484654,1.8310546875
,36.6631057,1.8212890625
,36.699806,1.8115234375
,36.7270083,1.7919921875
,36.727262,1.8115234375
,36.7604159,1.806640625
,36.763123,1.7919921875
,36.7976683,1.796875
,36.803086,1.787109375
,36.8374817,1.7724609375
,36.8596088,1.7578125
,36.8664451,1.7431640625
,36.8858245,1.728515625
,36.9222934,1.708984375
,36.9267142,1.6845703125
,36.9790538,1.669921875
,36.979428,1.6455078125
,36.9835585,1.6552734375
,37.0233843,1.6357421875
,37.0236341,1.630859375
,37.0611128,1.6259765625
,37.0668597,1.5966796875
,37.1161814,1.5869140625
,37.1166594,1.5771484375
,37.128228,1.6015625
,37.144699,1.6162109375
,37.1795124,1.669921875
,37.1856138,1.69921875
,37.205519,1.73828125
,37.2399099,1.7529296875
,37.259746,1.787109375
,37.2652131,1.787109375
,37.3042546,1.796875
,37.3044965,1.7822265625
,37.3412836,1.796875
,37.341522,1.77734375
,37.3824721,1.7822265625
,37.4114742,1.767578125
,37.4117547,1.7431640625
,37.4257171,1.728515625
,37.4736936,1.7041015625
,37.4740147,1.689453125
,37.495408,1.6650390625
,37.5051638,1.6650390625
,37.5400659,1.650390625
,37.5452955,1.640625
,37.5810517,1.6162109375
,37.5875824,1.6015625
,37.6056842,1.5771484375
,37.6408188,1.5771484375
,37.6742157,1.5576171875
,37.6744585,1.5673828125
,37.684567,1.5673828125
,37.7357185,1.552734375
,37.7359725,1.5478515625
,37.7456582,1.533203125
,37.779646,1.533203125
,37.8013231,1.5283203125
,37.8078476,1.5185546875
,37.8274409,1.4892578125
,37.8626501,1.4892578125
,37.8834362,1.484375
,37.8837328,1.5283203125
,37.9231249,1.5576171875
,37.9253463,1.6064453125
,37.9457792,1.640625
,37.9840263,1.669921875
,37.9867198,1.6845703125
,38.0230628,1.71875
,38.0291386,1.73828125
,38.0461126,1.73828125
,38.0961331,1.7626953125
,38.0965259,1.767578125
,38.1057545,1.767578125
,38.1433688,1.7529296875
,38.1481455,1.748046875
,38.1846575,1.7333984375
,38.1895465,1.7236328125
,38.2059959,1.7041015625
,38.2255865,1.708984375
,38.2684863,1.69921875
,38.2688789,1.708984375
,38.2868053,1.6943359375
,38.3310681,1.69921875
,38.331474,1.689453125
,38.3478991,1.6650390625
,38.3838313,1.6455078125
,38.3843281,1.62109375
,38.4061152,1.6259765625
,38.4540622,1.6162109375
,38.4543064,1.6064453125
,38.4667314,1.591796875
,38.5026529,1.5869140625
,38.5067717,1.5625
,38.547397,1.5576171875
,38.547638,1.54296875
,38.5677291,1.552734375
,38.5846286,1.484375
,38.6225401,1.50390625
,38.625416,1.5087890625
,38.6608635,1.5380859375
,38.681322,1.572265625
,38.6861324,1.611328125
,38.7235817,1.66015625
,38.7294139,1.689453125
,38.7486006,1.7236328125
,38.7667812,1.7578125
,38.802437,1.8115234375
,38.8044503,1.8408203125
,38.8398552,1.8603515625
,38.8588653,1.865234375
,38.8670872,1.8603515625
,38.9019123,1.845703125
,38.9218273,1.8359375
,38.9251727,1.81640625
,38.9681831,1.8115234375
,38.9684298,1.8212890625
,38.9886672,1.806640625
,39.0312387,1.796875
,39.031641,1.7822265625
,39.0484605,1.7724609375
,39.0938511,1.7529296875
,39.0942387,1.7431640625
,39.1040188,1.7236328125
,39.1426149,1.7333984375
,39.1471684,1.7138671875
,39.1870217,1.7138671875
,39.187339,1.69921875
,39.2255167,1.6943359375
,39.2258161,1.669921875
,39.2610092,1.6552734375
,39.2815454,1.6357421875
,39.2843562,1.6552734375
,39.3255717,1.650390625
,39.3258201,1.6455078125
,39.3631444,1.640625
,39.3833648,1.630859375
,39.3881664,1.6259765625
,39.422362,1.6259765625
,39.4427151,1.6552734375
,39.4509506,1.689453125
,39.4875914,1.6796875
,39.4879115,1.7333984375
,39.5330939,1.7919921875
,39.5336516,1.8359375
,39.5474923,1.8701171875
,39.5960956,1.884765625
,39.5967157,1.8994140625
,39.6099715,1.9189453125
,39.64488,1.904296875
,39.6653505,1.904296875
,39.6657977,1.884765625
,39.7047497,1.89453125
,39.7252593,1.884765625
,39.7282322,1.8798828125
,39.7660837,1.85546875
,39.7666719,1.8408203125
,39.8134387,1.81640625
,39.8138113,1.8115234375
,39.8446836,1.796875
,39.8463856,1.796875
,39.8816881,1.77734375
,39.9063386,1.767578125
,39.9065968,1.7431640625
,39.9447117,1.73828125
,39.9491705,1.7236328125
,39.9844958,1.69921875
,39.9901395,1.6845703125
,40.0075073,1.6552734375
,40.047954,1.66015625
,40.0483158,1.640625
,40.0839923,1.6357421875
,40.0890863,1.6162109375
,40.1084261,1.6015625
,40.1557126,1.5771484375
,40.1559497,1.572265625
,40.1755365,1.5576171875
,40.1860085,1.5966796875
,40.2326283,1.630859375
,40.2329069,1.6796875
,40.2533409,1.71875
,40.2692142,1.73828125
,40.291316,1.7578125
,40.3273112,1.767578125
,40.3276391,1.787109375
,40.3730108,1.7919921875
,40.3733971,1.796875
,40.404256,1.7919921875
,40.4083496,1.8017578125
,40.4293469,1.7919921875
,40.4664186,1.787109375
,40.4709039,1.7724609375
,40.5111839,1.7578125
,40.5114351,1.73828125
,40.529985,1.7236328125
,40.5476082,1.7041015625
,40.5671533,1.708984375
,40.6019056,1.708984375
,40.6229111,1.689453125
,40.629383,1.6748046875
,40.6670075,1.650390625
,40.6717751,1.630859375
,40.6905355,1.6015625
,40.7291896,1.5966796875
,40.7294345,1.58203125
,40.7651794,1.5869140625
,40.768015,1.5771484375
,40.8089658,1.572265625
,40.8092012,1.5576171875
,40.8544756,1.5673828125
,40.8548508,1.552734375
,40.8714479,1.552734375
,40.9172903,1.552734375
,40.9176815,1.533203125
,40.9289379,1.5576171875
,40.9774015,1.5771484375
,40.9776462,1.640625
,40.9899524,1.6748046875
,41.0397416,1.7236328125
,41.040053,1.748046875
,41.0514407,1.7919921875
,41.0676921,1.8017578125
,41.102276,1.845703125
,41.1073975,1.865234375
,41.1492118,1.8896484375
,41.1494767,1.8896484375
,41.1788019,1.89453125
,41.1891911,1.8701171875
,41.2246368,1.8701171875
,41.258783,1.8603515625
,41.2591848,1.845703125
,41.2717653,1.8310546875
,41.2894297,1.8115234375
,41.3267003,1.8115234375
,41.32709,1.8017578125
,41.3666039,1.8017578125
,41.3974017,1.787109375
,41.3976375,1.7724609375
,41.4117294,1.7431640625
,41.4470516,1.7236328125
,41.4752218,1.69921875
,41.4756125,1.6943359375
,41.4894048,1.6845703125
,41.537825,1.669921875
,41.5380617,1.6650390625
,41.5523323,1.640625
,41.5708038,1.630859375
,41.6160991,1.6015625
,41.616707,1.6015625
,41.6264003,1.5771484375
,41.6600003,1.58203125
,41.6804591,1.5673828125
,41.6904605,1.572265625
,41.7380516,1.5771484375
,41.7382901,1.62109375
,41.7520956,1.6552734375
,41.7991876,1.7138671875
,41.7995047,1.748046875
,41.8091876,1.8017578125
,41.8442593,1.8212890625
,41.8494162,1.8798828125
,41.8878935,1.9140625
,41.8882877,1.93359375
,41.9240682,1.943359375
,41.9442201,1.943359375
,41.9517323,1.9287109375
,41.9729784,1.904296875
,41.9940596,1.8359375
,42.009772,1.7822265625
,42.044456,1.81640625
,42.0495696,1.8212890625
,42.0955416,1.826171875
,42.0957768,1.8115234375
,42.1162857,1.806640625
,42.1339764,1.77734375
,42.1524762,1.7529296875
,42.190541,1.7333984375
,42.1909281,1.7041015625
,42.2114882,1.6943359375
,42.2308157,1.6748046875
,42.2516077,1.6650390625
,42.2865024,1.6455078125
,42.291936,1.630859375
,42.3137616,1.6064453125
,42.3630502,1.591796875
,42.3632857,1.5771484375
,42.3685594,1.5869140625
,42.4091977,1.58203125
,42.409435,1.58203125
,42.4301681,1.5771484375
,42.4656701,1.5771484375
,42.4852359,1.5771484375
,42.4925652,1.6162109375
,42.5273651,1.6650390625
,42.527613,1.7041015625
,42.5624963,1.767578125
,42.5838086,1.806640625
,42.5896706,1.8505859375
,42.6249138,1.865234375
,42.6471684,1.89453125
,42.6520932,1.904296875
,42.6864697,1.9091796875
,42.7099814,1.8994140625
,42.7103715,1.9091796875
,42.7302551,1.89453125
,42.7675796,1.8994140625
,42.7723429,1.8798828125
,42.7918717,1.875
,42.8305487,1.865234375
,42.8308765,1.845703125
,42.8504784,1.826171875
,42.8740455,1.8115234375
,42.925651,1.7626953125
,42.9260112,1.7626953125
,42.9303983,1.77734375
,42.9729734,1.7578125
,42.9732126,1.7529296875
,42.9925649,1.7333984375
,43.0270604,1.71875
,43.0477148,1.69921875
,43.0536345,1.6796875
,43.0685258,1.650390625
,43.1031942,1.6455078125
,43.1236892,1.6259765625
,43.131082,1.6259765625
,43.1736492,1.611328125
,43.1740358,1.5771484375
,43.2047062,1.5673828125
,43.2143248,1.552734375
,43.2519577,1.552734375
,43.2522728,1.5673828125
,43.2713895,1.6259765625
,43.306181,1.669921875
,43.3265142,1.7041015625
,43.3314207,1.7138671875
,43.3756954,1.7333984375
,43.3760832,1.7431640625
,43.3950841,1.7626953125
,43.4111069,1.7626953125
,43.4468228,1.77734375
,43.4513424,1.787109375
,43.4866293,1.7724609375
,43.5071611,1.7626953125
,43.5130281,1.73828125
,43.5481016,1.7333984375
,43.5536319,1.708984375
,43.5946212,1.689453125
,43.5950147,1.66015625
,43.6092621,1.66015625
,43.6576834,1.6357421875
,43.6582437,1.6357421875
,43.6790058,1.611328125
,43.6919594,1.591796875
,43.7366393,1.5625
,43.7370277,1.54296875
,43.7676873,1.5087890625
,43.7736298,1.5087890625
,43.8144455,1.4892578125
,43.8148322,1.4697265625
,43.8449141,1.46484375
,43.8517331,1.455078125
,43.891494,1.4404296875
,43.8917816,1.42578125
,43.9379221,1.42578125
,43.9383113,1.416015625
,43.9690098,1.416015625
,43.969249,1.416015625
,44.0141962,1.4501953125
,44.0144368,1.4990234375
,44.0347613,1.5625
,44.0695055,1.611328125
,44.0725149,1.66015625
,44.1252882,1.708984375
,44.1256907,1.7333984375
,44.1346592,1.7626953125
,44.1507825,1.77734375
,44.1862242,1.8212890625
,44.208138,1.826171875
,44.212545,1.8359375
,44.2487797,1.8212890625
,44.25521,1.8212890625
,44.2961457,1.8017578125
,44.2963817,1.806640625
,44.3115031,1.787109375
,44.3467615,1.796875
,44.3518701,1.7919921875
,44.3876,1.7919921875
,44.3926956,1.7822265625
,44.4294503,1.7822265625
,44.4340227,1.77734375
,44.4699182,1.7578125
,44.4765974,1.748046875
,44.4907478,1.728515625
,44.5256041,1.7333984375
,44.5459293,1.728515625
,44.5535581,1.728515625
,44.5958326,1.7138671875
,44.5961811,1.708984375
,44.6156178,1.6943359375
,44.6577277,1.69921875
,44.6583093,1.689453125
,44.6747021,1.6943359375
,44.6925044,1.6796875
,44.7291054,1.6943359375
,44.7317736,1.7041015625
,44.7688522,1.708984375
,44.7738614,1.73828125
,44.8106164,1.7724609375
,44.815763,1.8212890625
,44.8564882,1.8505859375
,44.8569008,1.8896484375
,44.8724688,1.904296875
,44.9092572,1.943359375
,44.912193,1.97265625
,44.9470649,2.021484375
,44.9676891,2.0361328125
,44.9733684,2.0458984375
,45.0090379,2.0361328125
,45.042712,2.0263671875
,45.0429526,1.9970703125
,45.0525712,2.001953125
,45.0896885,1.9970703125
,45.1106966,1.9775390625
,45.113592,1.962890625
,45.1547049,1.93359375
,45.1550836,1.904296875
,45.1842761,1.8701171875
,45.1982728,1.845703125
,45.2117858,1.8017578125
,45.2609857,1.796875
,45.2613329,1.7724609375
,45.281764,1.7578125
,45.2929564,1.728515625
,45.3388784,1.71875
,45.3391196,1.689453125
,45.3594321,1.6796875
,45.3753372,1.6748046875
,45.3970578,1.650390625
,45.4186485,1.58203125
,45.4347226,1.5380859375
,45.4702754,1.58203125
,45.4750703,1.6015625
,45.4940937,1.62109375
,45.5285385,1.640625
,45.5494497,1.6845703125
,45.5570662,1.71875
,45.5760337,1.77734375
,45.5937159,1.806640625
,45.6284538,1.8505859375
,45.6337342,1.875
,45.682932,1.8896484375
,45.6835284,1.884765625
,45.6952429,1.8994140625
,45.7281666,1.8896484375
,45.7507427,1.865234375
,45.7578153,1.845703125
,45.7732796,1.826171875
,45.8092474,1.826171875
,45.8393978,1.81640625
,45.839799,1.81640625
,45.8559377,1.806640625
,45.9020498,1.8017578125
,45.9024399,1.77734375
,45.9172702,1.767578125
,45.9328456,1.7431640625
,45.9782101,1.7578125
,45.9785201,1.73828125
,45.997013,1.7236328125
,46.0404162,1.71875
,46.0408295,1.6845703125
,46.0564023,1.6650390625
,46.1013911,1.640625
,46.1016433,1.6259765625
,46.1123141,1.5966796875
,46.150054,1.591796875
,46.1783235,1.58203125
,46.1785725,1.5771484375
,46.195313,1.552734375
,46.2170086,1.5380859375
,46.2518588,1.513671875
,46.2555052,1.5087890625
,46.2771973,1.513671875
,46.3216724,1.4990234375
,46.3219118,1.54296875
,46.3355062,1.62109375
,46.3552513,1.669921875
,46.3978257,1.69921875
,46.3980634,1.728515625
,46.4266379,1.748046875
,46.4384118,1.7626953125
,46.4569733,1.7626953125
,46.4939569,1.7724609375
,46.4941936,1.7626953125
,46.5302249,1.7578125
,46.5354425,1.748046875
,46.5845013,1.728515625
,46.5848078,1.708984375
,46.5967056,1.7041015625
,46.6307862,1.6796875
,46.6517247,1.6650390625
,46.6568038,1.66015625
,46.6738025,1.630859375
,46.7106588,1.6259765625
,46.7156124,1.611328125
,46.7502764,1.6015625
,46.7698755,1.572265625
,46.7777792,1.5625
,46.7986002,1.533203125
,46.8347207,1.5234375
,46.8351314,1.50390625
,46.8699058,1.5087890625
,46.8943867,1.50390625
,46.8946392,1.50390625
,46.930993,1.4892578125
,46.9360702,1.4794921875
,46.9738026,1.455078125
,46.9784895,1.474609375
,47.0127582,1.474609375
,47.0130321,1.474609375
,47.0501202,1.513671875
,47.0799716,1.552734375
,47.080213,1.6015625
,47.0966074,1.6357421875
,47.1309724,1.6748046875
,47.1523733,1.69921875
,47.1603328,1.71875
,47.1947973,1.7333984375
,47.1970579,1.7431640625
,47.2144221,1.73828125
,47.2484539,1.7626953125
,47.268929,1.7578125
,47.2751684,1.748046875
,47.3100388,1.7431640625
,47.3304021,1.71875
,47.3380812,1.7041015625
,47.373094,1.6845703125
,47.3787403,1.6748046875
,47.3947924,1.650390625
,47.429638,1.6552734375
,47.4512672,1.6455078125
,47.4563636,1.640625
,47.4997851,1.6162109375
,47.5000246,1.6162109375
,47.5205122,1.591796875
,47.5388426,1.5771484375
,47.5553491,1.5625
,47.5931152,1.5673828125
,47.6133159,1.5576171875
,47.6159117,1.5625
,47.655913,1.5478515625
,47.656151,1.5283203125
,47.6759737,1.5234375
,47.7110379,1.50390625
,47.7316211,1.494140625
,47.7324305,1.4697265625
,47.7814123,1.4794921875
,47.7818001,1.474609375
,47.8103122,1.4990234375
,47.8179228,1.5234375
,47.857416,1.572265625
,47.857808,1.6064453125
,47.8925763,1.650390625
,47.9133377,1.669921875
,47.9171474,1.7138671875
,47.9409963,1.7529296875
,47.9558444,1.69921875
,47.9960823,1.73828125
,47.9964715,1.7626953125
,48.0167244,1.7822265625
,48.0538121,1.77734375
,48.0598489,1.77734375
,48.0783905,1.767578125
,48.1135338,1.7724609375
,48.133604,1.7578125
,48.1366013,1.767578125
,48.1837141,1.7529296875
,48.1839627,1.748046875
,48.1977593,1.73828125
,48.2193766,1.7236328125
,48.2547609,1.7041015625
,48.2593265,1.6943359375
,48.2796965,1.6748046875
,48.2955373,1.650390625
,48.3410838,1.6552734375
,48.3413526,1.6455078125
,48.3727888,1.640625
,48.3796388,1.6259765625
,48.4180239,1.62109375
,48.4182778,1.5966796875
,48.4559998,1.58203125
,48.4563485,1.5673828125
,48.4952381,1.572265625
,48.4955578,1.5673828125
,48.5414186,1.572265625
,48.5417094,1.5625
,48.5563452,1.572265625
,48.6049642,1.6015625
,48.6053545,1.6259765625
,48.618477,1.669921875
,48.6352405,1.69921875
,48.6704735,1.7626953125
,48.6908689,1.787109375
,48.6985112,1.81640625
,48.7434552,1.826171875
,48.7441697,1.8408203125
,48.7587294,1.8359375
,48.7937483,1.8408203125
,48.8132929,1.826171875
,48.820332,1.767578125
,48.8381767,1.7138671875
,48.8576481,1.7529296875
,48.8927705,1.7578125
,48.9134233,1.7822265625
,48.9183533,1.77734375
,48.9537329,1.7626953125
,48.9743618,1.7529296875
,48.9820043,1.73828125
,49.0008967,1.71875
,49.0174432,1.7138671875
,49.053962,1.728515625
,49.0591441,1.728515625
,49.079801,1.7333984375
,49.0996299,1.7236328125
,49.1195803,1.708984375
,49.1663775,1.689453125
,49.16676,1.689453125
,49.1966245,1.669921875
,49.196927,1.669921875
,49.2446066,1.6748046875
,49.2449584,1.650390625
,49.2747,1.640625
,49.2791025,1.6259765625
,49.2997175,1.62109375
,49.3376725,1.6015625
,49.3422358,1.611328125
,49.3566631,1.630859375
,49.3915904,1.6845703125
,49.4122487,1.7236328125
,49.4172311,1.7626953125
,49.4530193,1.7724609375
,49.4774126,1.796875
,49.4778002,1.796875
,49.5226369,1.8017578125
,49.5228719,1.7919921875
,49.5432913,1.81640625
,49.5562647,1.8212890625
,49.595171,1.8017578125
,49.6003043,1.7919921875
,49.6476809,1.767578125
,49.6480789,1.7578125
,49.659686,1.73828125
,49.7104137,1.7236328125
,49.7107337,1.69921875
,49.7215317,1.6357421875
,49.7375891,1.630859375
,49.7747619,1.6357421875
,49.7942698,1.630859375
,49.7989945,1.630859375
,49.8348121,1.611328125
,49.8673184,1.611328125
,49.8677063,1.611328125
,49.881558,1.591796875
,49.9154978,1.58203125
,49.9370982,1.5625
,49.9375774,1.572265625
,49.9738179,1.5673828125
,49.9948822,1.572265625
,49.9999432,1.5625
,50.0370871,1.552734375
,50.0417823,1.533203125
,50.0828918,1.5478515625
,50.0831474,1.5380859375
,50.0974183,1.5771484375
,50.1342997,1.611328125
,50.1401888,1.66015625
,50.1771244,1.689453125
,50.1814498,1.728515625
,50.2011775,1.7529296875
,50.2391992,1.7578125
,50.2394967,1.7724609375
,50.2577882,1.7724609375
,50.2808136,1.7919921875
,50.2981957,1.787109375
,50.3355683,1.787109375
,50.3405823,1.767578125
,50.3765915,1.7578125
,50.3798192,1.748046875
,50.431335,1.73828125
,50.4317218,1.7236328125
,50.4382012,1.7333984375
,50.4732213,1.728515625
,50.4930981,1.71875
,50.4986036,1.71875
,50.5395659,1.6943359375
,50.5399542,1.6796875
,50.5838872,1.66015625
,50.5841233,1.6552734375
,50.6038452,1.630859375
,50.638189,1.62109375
,50.6385932,1.6015625
,50.6743597,1.6015625
,50.6793139,1.591796875
,50.7137863,1.5966796875
,50.7344745,1.58203125
,50.7420142,1.572265625
,50.7866323,1.5576171875
,50.7871846,1.5576171875
,50.7989581,1.5380859375
,50.8348506,1.5576171875
,50.8555314,1.5673828125
,50.8588147,1.572265625
,50.897697,1.611328125
,50.9023156,1.650390625
,50.9225182,1.689453125
,50.9724971,1.71875
,50.9727529,1.7578125
,50.9782358,1.7822265625
,51.0201554,1.8212890625
,51.0204043,1.845703125
,51.055479,1.865234375
,51.0607604,1.875
,51.0961288,1.8896484375
,51.1023313,1.884765625
,51.1383525,1.875
,51.1432704,1.8701171875
,51.1593427,1.8408203125
,51.1927631,1.845703125
,51.214294,1.8310546875
,51.2223706,1.8310546875
,51.2703204,1.8017578125
,51.2706384,1.8017578125
,51.2815129,1.77734375
,51.3175871,1.767578125
,51.3180251,1.7333984375
,51.35221,1.7431640625
,51.3726435,1.7236328125
,51.3799755,1.71875
,51.4156214,1.69921875
,51.4366648,1.689453125
,51.4417452,1.669921875
,51.4892146,1.6650390625
,51.4896193,1.6552734375
,51.5033666,1.6357421875
,51.5386009,1.62109375
,51.5589039,1.6064453125
,51.5617359,1.6064453125
,51.581723,1.6015625
,51.6165888,1.62109375
,51.6227705,1.62109375
,51.6576661,1.6455078125
,51.6630471,1.6796875
,51.7029949,1.71875
,51.7034051,1.748046875
,51.7193922,1.796875
,51.756892,1.81640625
,51.7774967,1.8359375
,51.7829458,1.865234375
,51.802641,1.865234375
,51.8224604,1.865234375
,51.8601855,1.85546875
,51.8804573,1.8505859375
,51.8807025,1.8310546875
,51.8999233,1.826171875
,51.9379969,1.8212890625
,51.9588839,1.81640625
,51.9616536,1.806640625
,51.9990956,1.796875
,52.0047506,1.77734375
,52.022854,1.767578125
,52.0395592,1.748046875
,52.077862,1.748046875
,52.079914,1.7333984375
,52.124529,1.7431640625
,52.1247704,1.73828125
,52.1432271,1.71875
,52.1872016,1.7138671875
,52.1875688,1.69921875
,52.20417,1.689453125
,52.2246674,1.669921875
,52.2445324,1.611328125
,52.2624277,1.5576171875
,52.3093412,1.5966796875
,52.3097286,1.611328125
,52.3236701,1.6162109375
,52.3690863,1.6064453125
,52.369332,1.611328125
,52.3847141,1.611328125
,52.4221141,1.630859375
,52.4249689,1.669921875
,52.4399448,1.69921875
,52.4745955,1.748046875
,52.4952336,1.7822265625
,52.5021849,1.806640625
,52.5364463,1.8115234375
,52.5572774,1.8310546875
,52.5636629,1.826171875
,52.5979048,1.8310546875
,52.6184707,1.81640625
,52.6216388,1.826171875
,52.6570864,1.8115234375
,52.6619728,1.806640625
,52.7104454,1.7919921875
,52.7106873,1.7822265625
,52.7225017,1.7578125
,52.7583415,1.748046875
,52.7786259,1.7236328125
,52.7788519,1.6943359375
,52.8201737,1.6943359375
,52.8487982,1.689453125
,52.8490429,1.6748046875
,52.8626146,1.6552734375
,52.8987694,1.6455078125
,52.9297084,1.630859375
,52.9300594,1.62109375
,52.9429424,1.6064453125
,52.9770474,1.611328125
,52.9816598,1.6015625
,53.0228456,1.5966796875
,53.0232013,1.58203125
,53.0564311,1.572265625
,53.0760182,1.5771484375
,53.0851831,1.5576171875
,53.1324185,1.5576171875
,53.132656,1.5576171875
,53.1472454,1.591796875
,53.1627094,1.62109375
,53.2109739,1.6796875
,53.2113811,1.71875
,53.2235979,1.7724609375
,53.259868,1.7919921875
,53.2650279,1.826171875
,53.302379,1.826171875
,53.3042708,1.845703125
,53.3210558,1.845703125
,53.3575512,1.8701171875
,53.3818197,1.8701171875
,53.3822087,1.8798828125
,53.4268163,1.865234375
,53.4271011,1.845703125
,53.4471209,1.8359375
,53.4636749,1.81640625
,53.5053733,1.8017578125
,53.5056147,1.7822265625
,53.5220767,1.7919921875
,53.5668509,1.787109375
,53.5670885,1.7724609375
,53.5984267,1.7626953125
,53.6054578,1.7431640625
,53.6416515,1.71875
,53.6467792,1.708984375
,53.6634033,1.689453125
,53.7063277,1.6845703125
,53.706602,1.689453125
,53.7240803,1.669921875
,53.7682849,1.66015625
,53.7685218,1.6455078125
,53.7839125,1.640625
,53.8188392,1.6162109375
,53.8403558,1.6064453125
,53.8411087,1.5869140625
,53.8776121,1.5966796875
,53.8826974,1.591796875
,53.9174278,1.6064453125
,53.9381698,1.62109375
,53.9430218,1.66015625
,53.9811107,1.689453125
,53.9865697,1.7236328125
,54.0345486,1.73828125
,54.034871,1.767578125
,54.0483769,1.787109375
,54.062729,1.7919921875
,54.1114973,1.8212890625
,54.1118886,1.8359375
,54.1254505,1.845703125
,54.1716944,1.8408203125
,54.1719465,1.8408203125
,54.1848556,1.8310546875
,54.2356762,1.81640625
,54.2360717,1.796875
,54.2655355,1.8017578125
,54.2657793,1.7919921875
,54.3163601,1.7919921875
,54.3166459,1.767578125
,54.3256609,1.7578125
,54.3616815,1.7529296875
,54.3664504,1.728515625
,54.4027502,1.7138671875
,54.4031468,1.6796875
,54.4376077,1.6796875
,54.4577829,1.669921875
,54.4632539,1.6650390625
,54.5009979,1.6455078125
,54.5054058,1.6357421875
,54.5477999,1.62109375
,54.5482511,1.62109375
,54.5782662,1.6015625
,54.5829615,1.6015625
,54.6033527,1.6015625
,54.641656,1.591796875
,54.6455992,1.5869140625
,54.6662597,1.5966796875
,54.6869859,1.6162109375
,54.7231374,1.640625
,54.7274443,1.6845703125
,54.7439426,1.708984375
,54.7809823,1.7578125
,54.7812286,1.7138671875
,54.8291799,1.7626953125
,54.8295688,1.787109375
,54.8598073,1.8115234375
,54.8650118,1.81640625
,54.9068994,1.81640625
,54.9071403,1.8017578125
,54.9273793,1.8017578125
,54.9446402,1.7822265625
,54.9806425,1.787109375
,54.9859114,1.796875
,55.0211125,1.7822265625
,55.0265388,1.77734375
,55.063555,1.7626953125
,55.0640065,1.7578125
,55.1095234,1.73828125
,55.1097625,1.728515625
,55.1412952,1.7041015625
,55.1455895,1.71875
,55.1809289,1.708984375
,55.1856269,1.7236328125
,55.233047,1.708984375
,55.2334126,1.708984375
,55.2468257,1.6943359375
,55.2680959,1.6845703125
,55.2828243,1.66015625
,55.3236967,1.6748046875
,55.3240141,1.6748046875
,55.3696719,1.66015625
,55.3699434,1.6552734375
,55.3904701,1.6455078125
,55.4075102,1.6357421875
,55.4428733,1.6259765625
,55.4480539,1.6357421875
,55.4642316,1.66015625
,55.4847474,1.708984375
,55.524987,1.748046875
,55.5252289,1.7724609375
,55.5635399,1.7822265625
,55.5639343,1.8017578125
,55.5993651,1.8017578125
,55.6207962,1.8017578125
,55.6278512,1.8115234375
,55.6481116,1.787109375
,55.6823775,1.728515625
,55.6827707,1.669921875
,55.7270135,1.708984375
,55.7272498,1.708984375
,55.7574745,1.728515625
,55.7669071,1.71875
,55.7881953,1.7138671875
,55.8236955,1.69921875
,55.8281818,1.6943359375
,55.8434185,1.6650390625
,55.8820475,1.6650390625
,55.8892404,1.6552734375
,55.9065078,1.650390625
,55.9432201,1.62109375
,55.9456185,1.62109375
,55.9798764,1.6064453125
,56.0005629,1.591796875
,56.0083792,1.5771484375
,56.0263537,1.5625
,56.0615192,1.5673828125
,56.0644443,1.5673828125
,56.1000131,1.5673828125
,56.1282224,1.5576171875
,56.1286139,1.5478515625
,56.1639233,1.533203125
,56.1664633,1.533203125
,56.1831191,1.5380859375
,56.220139,1.5966796875
,56.2396846,1.640625
,56.2452677,1.689453125
,56.2810395,1.73828125
,56.3146905,1.7578125
,56.3149507,1.7822265625
,56.3278001,1.7919921875
,56.376907,1.8115234375
,56.3772132,1.81640625
,56.3978411,1.8359375
,56.4060358,1.8359375
,56.4429598,1.8359375
,56.4475584,1.81640625
,56.4886599,1.81640625
,56.4890493,1.796875
,56.5337573,1.7919921875
,56.534002,1.77734375
,56.5488013,1.7626953125
,56.5651026,1.73828125
,56.6012174,1.748046875
,56.6066134,1.748046875
,56.6452043,1.728515625
,56.6454441,1.71875
,56.6936792,1.69921875
,56.6939821,1.689453125
,56.7232196,1.6650390625
,56.728158,1.6552734375
,56.7432841,1.640625
,56.7865279,1.6357421875
,56.7869352,1.630859375
,56.8092127,1.6259765625
,56.8443434,1.6162109375
,56.8496324,1.6162109375
,56.8690444,1.5966796875
,56.9108338,1.5869140625
,56.9112995,1.5869140625
,56.9265705,1.572265625
,56.9736889,1.591796875
,56.9739376,1.6162109375
,56.9874708,1.6650390625
,57.0394863,1.7041015625
,57.0398743,1.7431640625
,57.0489722,1.7724609375
,57.0832767,1.796875
,57.1042676,1.806640625
,57.1045807,1.8408203125
,57.1407026,1.85546875
,57.1610945,1.8701171875
,57.1668933,1.875
,57.2021052,1.875
,57.223182,1.8603515625
,57.2286359,1.875
,57.2649991,1.865234375
,57.2652383,1.85546875
,57.3021971,1.8603515625
,57.3074229,1.8603515625
,57.3270122,1.8505859375
,57.3624003,1.8408203125
,57.3830278,1.8310546875
,57.38947,1.8115234375
,57.4092774,1.8017578125
,57.4474012,1.7724609375
,57.4477921,1.7529296875
,57.4661591,1.7333984375
,57.502177,1.73828125
,57.5072514,1.728515625
,57.5427025,1.71875
,57.5484243,1.71875
,57.5852792,1.6943359375
,57.5899325,1.6845703125
,57.6299701,1.6650390625
,57.6303698,1.669921875
,57.647597,1.650390625
,57.6839638,1.66015625
,57.6872358,1.650390625
,57.73663,1.6650390625
,57.7368888,1.6845703125
,57.7492202,1.728515625
,57.7827049,1.7529296875
,57.8023123,1.796875
,57.8051849,1.81640625
,57.8417174,1.8505859375
,57.8640147,1.8603515625
,57.8686682,1.8896484375
,57.8882746,1.8994140625
,57.9253069,1.8896484375
,57.9311458,1.8798828125
,57.949713,1.8701171875
,57.9847493,1.8408203125
,58.005172,1.8212890625
,58.0054063,1.8212890625
,58.0468803,1.8115234375
,58.0761481,1.8017578125
,58.0763921,1.796875
,58.0894679,1.7822265625
,58.1108129,1.7626953125
,58.1307869,1.7431640625
,58.1457817,1.7236328125
,58.1870212,1.7138671875
,58.2079578,1.7138671875
,58.20824,1.6259765625
,58.2278856,1.640625
,58.2646975,1.6357421875
,58.2987873,1.6552734375
,58.2991782,1.6455078125
,58.3105047,1.6455078125
,58.3614965,1.6259765625
,58.361889,1.62109375
,58.3690607,1.6015625
,58.4074693,1.611328125
,58.4077184,1.6015625
,58.4545657,1.6015625
,58.4549857,1.591796875
,58.4808843,1.5869140625
,58.4928035,1.5966796875
,58.510606,1.630859375
,58.5464398,1.669921875
,58.5740291,1.689453125
,58.5742784,1.728515625
,58.5904349,1.748046875
,58.626451,1.7578125
,58.6286417,1.7626953125
,58.6629624,1.767578125
,58.6839965,1.7626953125
,58.6910223,1.7578125
,58.7076587,1.7333984375
,58.7478268,1.7333984375
,58.7483983,1.7236328125
,58.7946416,1.728515625
,58.795047,1.708984375
,58.8095853,1.7041015625
,58.844135,1.69921875
,58.864445,1.6796875
,58.8715346,1.66015625
,58.8877723,1.640625
,58.9239667,1.6455078125
,58.9308129,1.6357421875
,58.9504529,1.6259765625
,58.9880175,1.6064453125
,58.9884195,1.6015625
,59.0254665,1.58203125
,59.0455706,1.572265625
,59.050424,1.5576171875
,59.0739747,1.494140625
,59.0892413,1.4501953125
,59.1363025,1.484375
,59.1365414,1.4990234375
,59.1661842,1.5185546875
,59.169461,1.5283203125
,59.2140614,1.5185546875
,59.2143773,1.513671875
,59.2322837,1.513671875
,59.2670478,1.5283203125
,59.2695168,1.5625
,59.305467,1.6357421875
,59.3099214,1.6796875
,59.3456008,1.7236328125
,59.3507038,1.748046875
,59.3718813,1.7724609375
,59.4051267,1.7822265625
,59.4262438,1.8017578125
,59.4265381,1.796875
,59.4627723,1.8115234375
,59.4845317,1.826171875
,59.4913592,1.8115234375
,59.5405224,1.7919921875
,59.5407664,1.77734375
,59.5503602,1.7724609375
,59.6033875,1.748046875
,59.6037662,1.73828125
,59.6103355,1.7236328125
,59.6291466,1.728515625
,59.6814142,1.71875
,59.6816635,1.71875
,59.6914189,1.6943359375
,59.7107729,1.6845703125
,59.7455509,1.6650390625
,59.7653631,1.650390625
,59.7687688,1.6259765625
,59.804882,1.640625
,59.8098541,1.640625
,59.84411,1.630859375
,59.8493001,1.62109375
,59.887778,1.6064453125
,59.892368,1.5966796875
,59.931081,1.5771484375
,59.9317947,1.5625
,59.9701829,1.5478515625
,59.9747486,1.54296875
,59.9915591,1.5380859375
,60.0103314,1.5576171875
,60.0466109,1.5966796875
,60.0512705,1.640625
,60.0709251,1.6748046875
,60.1062881,1.7138671875
,60.1265766,1.7529296875
,60.1319179,1.7626953125
,60.1810016,1.77734375
,60.181425,1.77734375
,60.1895462,1.8017578125
,60.2109458,1.796875
,60.2308356,1.8017578125
,60.273886,1.7822265625
,60.2741735,1.767578125
,60.2937906,1.7431640625
,60.3279898,1.73828125
,60.3476562,1.71875
,60.3494609,1.728515625
,60.3851588,1.7236328125
,60.3903761,1.728515625
,60.4113596,1.71875
,60.4612636,1.7236328125
,60.4616696,1.7138671875
,60.4906505,1.6943359375
,60.4951222,1.6796875
,60.5095626,1.6650390625
,60.5463144,1.669921875
,60.5509631,1.6650390625
,60.5712669,1.6552734375
,60.6055154,1.6552734375
,60.6255459,1.6455078125
,60.6327147,1.640625
,60.6776911,1.6259765625
,60.6779686,1.6162109375
,60.6889372,1.630859375
,60.7249066,1.6357421875
,60.7575783,1.640625
,60.7579634,1.650390625
,60.7711761,1.650390625
,60.8191081,1.6748046875
,60.819543,1.708984375
,60.8500334,1.7578125
,60.8553242,1.7919921875
,60.8741595,1.8212890625
,60.8917709,1.826171875
,60.9121759,1.8505859375
,60.9341773,1.85546875
,60.9524225,1.8701171875
,60.9866462,1.865234375
,61.007308,1.8603515625
,61.0129658,1.8505859375
,61.0536136,1.845703125
,61.0538599,1.826171875
,61.0690941,1.8408203125
,61.1061742,1.8408203125
,61.1118456,1.826171875
,61.1476367,1.81640625
,61.1525415,1.8017578125
,61.1889738,1.787109375
,61.1938679,1.767578125
,61.2307471,1.7578125
,61.2310342,1.728515625
,61.2671444,1.728515625
,61.2731542,1.71875
,61.2917407,1.7041015625
,61.3255619,1.689453125
,61.3460113,1.7138671875
,61.3541623,1.708984375
,61.3752352,1.708984375
,61.4095036,1.7138671875
,61.409759,1.6943359375
,61.4439424,1.69921875
,61.4643907,1.689453125
,61.4713734,1.6845703125
,61.518651,1.6650390625
,61.5190632,1.66015625
,61.5500667,1.6552734375
,61.5545251,1.6796875
,61.5714352,1.708984375
,61.606959,1.7626953125
,61.6098171,1.7919921875
,61.6485753,1.8212890625
,61.6504267,1.8359375
,61.6894059,1.845703125
,61.6943516,1.8408203125
,61.7354204,1.85546875
,61.7356648,1.85546875
,61.771116,1.8408203125
,61.7745915,1.826171875
,61.7917763,1.8017578125
,61.8112881,1.8017578125
,61.8481708,1.796875
,61.8530189,1.8017578125
,61.8935,1.7822265625
,61.8938599,1.7529296875
,61.9401376,1.71875
,61.9406116,1.6943359375
,61.9504771,1.669921875
,61.986947,1.6650390625
,62.017664800000006,1.6552734375
,62.01790870000001,1.6455078125
,62.03244170000001,1.650390625
,62.0666964,1.630859375
,62.0975926,1.62109375
,62.0978331,1.611328125
,62.1146629,1.6162109375
,62.1312265,1.5966796875
,62.1657532,1.6064453125
,62.1868669,1.6064453125
,62.192460999999994,1.62109375
,62.238613599999994,1.6162109375
,62.238929600000006,1.630859375
,62.2686765,1.62109375
,62.2767674,1.640625
,62.292263899999995,1.650390625
,62.3306211,1.69921875
,62.331042,1.728515625
,62.378243100000006,1.796875
,62.378487199999995,1.8408203125
,62.3988243,1.8701171875
,62.413726,1.8994140625
,62.4551838,1.9140625
,62.4554586,1.923828125
,62.47706290000001,1.923828125
,62.495530900000006,1.865234375
,62.5131478,1.81640625
,62.54862489999999,1.8408203125
,62.5811782,1.845703125
,62.58157370000001,1.845703125
,62.5939312,1.845703125
,62.629116800000006,1.8603515625
,62.6338176,1.8603515625
,62.6723262,1.85546875
,62.6768021,1.865234375
,62.693546999999995,1.8359375
,62.73669099999999,1.8408203125
,62.737100600000005,1.826171875
,62.7551041,1.8310546875
,62.7994839,1.81640625
,62.7998755,1.806640625
,62.8149171,1.7822265625
,62.8620263,1.7724609375
,62.862339399999996,1.748046875
,62.891825600000004,1.7626953125
,62.892068800000004,1.748046875
,62.9281452,1.748046875
,62.934414200000006,1.728515625
,62.9715082,1.708984375
,62.975651,1.669921875
,63.015761999999995,1.6650390625
,63.016157699999994,1.640625
,63.031679100000005,1.62109375
,63.067172299999996,1.6357421875
,63.0872018,1.6552734375
,63.094177900000005,1.689453125
,63.139696099999995,1.708984375
,63.1399433,1.728515625
,63.155596599999996,1.73828125
,63.2031303,1.7529296875
,63.2035295,1.7529296875
,63.2331183,1.7724609375
,63.23344899999999,1.7822265625
,63.270928299999994,1.796875
,63.275120900000005,1.7822265625
,63.295701199999996,1.7724609375
,63.331340999999995,1.7578125
,63.335760500000006,1.7333984375
,63.374426,1.71875
,63.374813599999996,1.7138671875
,63.41000390000001,1.7236328125
,63.4304575,1.71875
,63.4334185,1.728515625
,63.481908000000004,1.7236328125
,63.4822966,1.7236328125
,63.502356000000006,1.708984375
,63.51643249999999,1.708984375
,63.5510338,1.6748046875
,63.5561407,1.6650390625
,63.572614,1.6357421875
,63.609701799999996,1.630859375
,63.614583100000004,1.6162109375
,63.6496951,1.62109375
,63.65470809999999,1.611328125
,63.6886253,1.591796875
,63.7087197,1.5771484375
,63.718536400000005,1.5576171875
,63.737115599999996,1.5380859375
,63.7544486,1.5234375
,63.793643700000004,1.533203125
,63.793926400000004,1.533203125
,63.830844799999994,1.5478515625
,63.835461800000004,1.572265625
,63.87072190000001,1.6064453125
,63.8769456,1.630859375
,63.91338759999999,1.6650390625
,63.91368799999999,1.6748046875
,63.95113310000001,1.6943359375
,63.955719599999995,1.7236328125
,63.993725999999995,1.71875
,63.994197299999996,1.728515625
,64.0409828,1.728515625
,64.0413849,1.7236328125
,64.0558735,1.7138671875
,64.0915086,1.7041015625
,64.1121788,1.6845703125
,64.1124242,1.69921875
,64.1648297,1.6943359375
,64.1650843,1.7041015625
,64.1761866,1.689453125
,64.1954145,1.6796875
,64.2292253,1.669921875
,64.2505779,1.6650390625
,64.2561835,1.640625
,64.3057158,1.640625
,64.3059538,1.6259765625
,64.3150403,1.6015625
,64.3367421,1.6015625
,64.384166,1.5966796875
,64.3845593,1.591796875
,64.3981137,1.5869140625
,64.434163,1.591796875
,64.437219,1.58203125
,64.4768352,1.572265625
,64.4770755,1.5625
,64.4972567,1.5625
,64.515887,1.552734375
,64.5503662,1.5576171875
,64.5708905,1.5478515625
,64.5772447,1.5625
,64.6142491,1.611328125
,64.6171756,1.630859375
,64.6380206,1.6552734375
,64.6546963,1.6748046875
,64.691723,1.7138671875
,64.6974813,1.728515625
,64.7158629,1.7431640625
,64.7594748,1.73828125
,64.7597702,1.7431640625
,64.7810434,1.7236328125
,64.8232173,1.71875
,64.8236071,1.6943359375
,64.834579,1.69921875
,64.8845322,1.689453125
,64.8847696,1.689453125
,64.8956432,1.669921875
,64.9310502,1.6845703125
,64.9515732,1.6796875
,64.9568746,1.6650390625
,64.9951651,1.66015625
,64.9958722,1.640625
,65.0233122,1.6357421875
,65.0336227,1.630859375
,65.0667546,1.6357421875
,65.0871067,1.62109375
,65.0984867,1.611328125
,65.1329054,1.6015625
,65.138172,1.5966796875
,65.1732609,1.58203125
,65.1781869,1.5869140625
,65.1952274,1.5771484375
,65.2303608,1.58203125
,65.2504204,1.5966796875
,65.2572454,1.58203125
,65.292616,1.5869140625
,65.3121017,1.5771484375
,65.3185864,1.5869140625
,65.3549923,1.5869140625
,65.360777,1.6162109375
,65.377857,1.630859375
,65.3955573,1.669921875
,65.4307111,1.689453125
,65.4360653,1.7333984375
,65.4781845,1.748046875
,65.4785396,1.7626953125
,65.5120614,1.7578125
,65.5328407,1.7626953125
,65.5331749,1.7578125
,65.5710772,1.7822265625
,65.5912677,1.787109375
,65.5969367,1.7724609375
,65.6480975,1.7724609375
,65.6483439,1.7626953125
,65.6583265,1.7626953125
,65.6955057,1.748046875
,65.6981534,1.7529296875
,65.7156673,1.73828125
,65.760399,1.748046875
,65.7608168,1.7431640625
,65.7776712,1.7333984375
,65.8137138,1.7138671875
,65.8184855,1.708984375
,65.8689632,1.69921875
,65.8693571,1.6845703125
,65.8803857,1.6845703125
,65.9008591,1.6650390625
,65.921062,1.6015625
,65.9357534,1.552734375
,65.9715519,1.611328125
,65.9936794,1.6259765625
,65.9969352,1.640625
,66.0191787,1.630859375
,66.0553792,1.6259765625
,66.0604419,1.611328125
,66.1041827,1.6162109375
,66.1044282,1.6064453125
,66.1179107,1.640625
,66.1679648,1.6748046875
,66.1683503,1.708984375
,66.1797031,1.7236328125
,66.2142407,1.7626953125
,66.2184336,1.787109375
,66.2550369,1.7919921875
,66.2597313,1.8017578125
,66.2774586,1.796875
,66.3221827,1.806640625
,66.3225738,1.8017578125
,66.3383686,1.8017578125
,66.3843932,1.7919921875
,66.3846461,1.7822265625
,66.4010067,1.767578125
,66.420692,1.7529296875
,66.4365403,1.7333984375
,66.477189,1.7578125
,66.4774479,1.748046875
,66.5250843,1.748046875
,66.5253232,1.748046875
,66.5398884,1.7333984375
,66.5863774,1.728515625
,66.586622,1.708984375
,66.6006446,1.7138671875
,66.6174254,1.6943359375
,66.653857,1.7041015625
,66.6583418,1.7041015625
,66.6974384,1.7041015625
,66.697689,1.6943359375
,66.7438818,1.69921875
,66.7441339,1.6796875
,66.760522,1.6796875
,66.7797522,1.66015625
,66.8164896,1.6064453125
,66.8167338,1.6064453125
,66.8546975,1.640625
,66.8592184,1.6650390625
,66.8993961,1.6845703125
,66.8996321,1.7236328125
,66.9477658,1.7529296875
,66.9480208,1.77734375
,66.9608866,1.7822265625
,66.9816177,1.8017578125
,66.998347,1.806640625
,67.041153,1.826171875
,67.0413902,1.826171875
,67.0606222,1.8310546875
,67.0805111,1.8115234375
,67.117975,1.8115234375
,67.1182724,1.796875
,67.1537589,1.787109375
,67.1736762,1.787109375
,67.1785874,1.7626953125
,67.2146154,1.7724609375
,67.2199436,1.767578125
,67.2384031,1.7724609375
,67.2893314,1.7529296875
,67.2896901,1.748046875
,67.3008894,1.7236328125
,67.3511279,1.7138671875
,67.3515322,1.689453125
,67.3569428,1.69921875
,67.3972836,1.6796875
,67.3976799,1.6796875
,67.4182385,1.669921875
,67.4594714,1.6650390625
,67.4598467,1.640625
,67.4935819,1.66015625
,67.523439,1.66015625
,67.5236765,1.6455078125
,67.5377335,1.650390625
,67.586656,1.6455078125
,67.5870431,1.640625
,67.6173204,1.640625
,67.6192033,1.6455078125
,67.6526473,1.6650390625
,67.6744203,1.689453125
,67.6821698,1.708984375
,67.7273538,1.7236328125
,67.7277426,1.73828125
,67.7372026,1.77734375
,67.7740809,1.787109375
,67.7796947,1.8017578125
,67.8191449,1.81640625
,67.8195219,1.8017578125
,67.8400637,1.796875
,67.8772187,1.77734375
,67.8826095,1.7724609375
,67.8988376,1.7529296875
,67.9345309,1.7578125
,67.9395798,1.748046875
,67.9907257,1.7529296875
,67.9910696,1.73828125
,68.0200274,1.7431640625
,68.0205026,1.7236328125
,68.066069,1.71875
,68.0664649,1.6943359375
,68.0773722,1.69921875
,68.1125672,1.689453125
,68.1332024,1.6943359375
,68.1407661,1.6845703125
,68.1916615,1.6650390625
,68.1920524,1.66015625
,68.203129,1.650390625
,68.2379015,1.6357421875
,68.2381453,1.6259765625
,68.2583778,1.640625
,68.3037748,1.640625
,68.3041604,1.6357421875
,68.3204037,1.6259765625
,68.3560623,1.62109375
,68.3815125,1.611328125
,68.381901,1.6259765625
,68.3978426,1.6357421875
,68.4441578,1.6845703125
,68.4445666,1.73828125
,68.4598269,1.6943359375
,68.4954813,1.73828125
,68.5004999,1.7724609375
,68.5361129,1.8115234375
,68.5419477,1.8212890625
,68.5785925,1.8408203125
,68.5827926,1.8359375
,68.6272285,1.8310546875
,68.6274657,1.81640625
,68.6392756,1.8310546875
,68.6835612,1.8212890625
,68.6839509,1.8212890625
,68.7028925,1.806640625
,68.72102,1.787109375
,68.7612297,1.767578125
,68.7813096,1.7724609375
,68.7844931,1.767578125
,68.8009368,1.73828125
,68.8216877,1.7431640625
,68.8699052,1.7236328125
,68.8702958,1.708984375
,68.8812118,1.6943359375
,68.9014697,1.689453125
,68.9461554,1.669921875
,68.9465416,1.6552734375
,68.9764225,1.6455078125
,68.9805316,1.6455078125
,69.0231087,1.640625
,69.0238115,1.650390625
,69.0529685,1.6455078125
,69.0605549,1.640625
,69.0960964,1.650390625
,69.1166425,1.6357421875
,69.1230933,1.6259765625
,69.1399611,1.611328125
,69.1759513,1.640625
,69.1808108,1.66015625
,69.2242174,1.69921875
,69.2247183,1.71875
,69.2419158,1.7431640625
,69.2770878,1.7578125
,69.2818449,1.7822265625
,69.3025428,1.7822265625
,69.3232706,1.7431640625
,69.3399269,1.708984375
,69.3799818,1.7578125
,69.3802305,1.77734375
,69.4164974,1.806640625
,69.4372861,1.81640625
,69.4425678,1.8017578125
,69.4888573,1.796875
,69.4892473,1.7919921875
,69.5048188,1.7822265625
,69.5212973,1.7822265625
,69.558236,1.806640625
,69.5624285,1.8212890625
,69.5977502,1.8212890625
,69.6021345,1.81640625
,69.6358596,1.806640625
,69.6561925,1.7919921875
,69.6636029,1.7822265625
,69.6799382,1.7626953125
,69.7142614,1.7578125
,69.7203739,1.767578125
,69.7548856,1.7529296875
,69.7742862,1.748046875
,69.7834101,1.7431640625
,69.8024844,1.7529296875
,69.8446034,1.7431640625
,69.8450133,1.73828125
,69.8754176,1.7138671875
,69.8802097,1.728515625
,69.9163991,1.71875
,69.9246554,1.7529296875
,69.9415357,1.767578125
,69.9855849,1.806640625
,69.9858416,1.8212890625
,70.0168016,1.8408203125
,70.0212977,1.8408203125
,70.0624034,1.875
,70.0630728,1.8896484375
,70.0815573,1.8896484375
,70.1243977,1.884765625
,70.124631,1.875
,70.1446755,1.8603515625
,70.1620865,1.8359375
,70.1955789,1.826171875
,70.2159305,1.8017578125
,70.2269998,1.787109375
,70.2422881,1.7578125
,70.2635575,1.7529296875
,70.2828807,1.7431640625
,70.3273391,1.73828125
,70.3276257,1.71875
,70.343748,1.69921875
,70.3890847,1.6845703125
,70.3893217,1.66015625
,70.4086139,1.6455078125
,70.4223972,1.6259765625
,70.4677056,1.6259765625
,70.4680985,1.6162109375
,70.4824968,1.6162109375
,70.5182357,1.5966796875
,70.5388723,1.591796875
,70.5442228,1.5771484375
,70.5669934,1.58203125
,70.5803368,1.5673828125
,70.6137902,1.5771484375
,70.6349366,1.572265625
,70.6425065,1.5869140625
,70.6784879,1.6015625
,70.6836491,1.6455078125
,70.7174257,1.6748046875
,70.7381923,1.6943359375
,70.7449869,1.708984375
,70.7618023,1.7138671875
,70.8130867,1.73828125
,70.8134951,1.748046875
,70.82304,1.767578125
,70.8724888,1.7724609375
,70.8727347,1.7724609375
,70.8853457,1.7626953125
,70.9053167,1.7578125
,70.9214357,1.73828125
,70.9661835,1.7529296875
,70.9664214,1.748046875
,70.9961088,1.748046875
,71.0021034,1.7431640625
,71.0443674,1.7236328125
,71.0447167,1.708984375
,71.0801993,1.69921875
,71.0859839,1.6943359375
,71.1223785,1.6748046875
,71.1265077,1.66015625
,71.1419844,1.640625
,71.1779046,1.650390625
,71.1829771,1.6455078125
,71.2199857,1.6455078125
,71.2249706,1.630859375
,71.2608248,1.62109375
,71.2657979,1.6015625
,71.3066505,1.591796875
,71.3068947,1.5673828125
,71.3221431,1.591796875
,71.3706346,1.5966796875
,71.3709496,1.591796875
,71.3914516,1.6015625
,71.4041507,1.611328125
,71.4403825,1.6455078125
,71.445929,1.6748046875
,71.4661566,1.708984375
,71.4832072,1.7236328125
,71.5185426,1.7578125
,71.5234265,1.77734375
,71.5570428,1.787109375
,71.5766873,1.7919921875
,71.5861682,1.826171875
,71.6049323,1.8359375
,71.6403096,1.8359375
,71.6604945,1.8359375
,71.6607363,1.8115234375
,71.6978446,1.8212890625
,71.7038789,1.8115234375
,71.7401601,1.8212890625
,71.7452963,1.8115234375
,71.7905439,1.8115234375
,71.7907885,1.7919921875
,71.8060987,1.7822265625
,71.8232309,1.7578125
,71.8689615,1.767578125
,71.8692079,1.7578125
,71.8829696,1.7578125
,71.9339233,1.73828125
,71.9343125,1.7333984375
,71.9638834,1.708984375
,71.9642964,1.7138671875
,71.9981103,1.7041015625
,72.0184859,1.689453125
,72.0284568,1.6796875
,72.04369,1.66015625
,72.0889294,1.6650390625
,72.0897586,1.6650390625
,72.1036816,1.6748046875
,72.1386004,1.6748046875
,72.165936,1.6796875
,72.1663251,1.6943359375
,72.2111271,1.71875
,72.2114612,1.7431640625
,72.2231202,1.7919921875
,72.2580546,1.8212890625
,72.2795565,1.8359375
,72.2846385,1.8603515625
,72.3188556,1.8505859375
,72.3388645,1.85546875
,72.3470505,1.845703125
,72.3831493,1.85546875
,72.3835384,1.8359375
,72.4184273,1.845703125
,72.439471,1.826171875
,72.4463977,1.826171875
,72.4811439,1.806640625
,72.4860685,1.8017578125
,72.5258541,1.787109375
,72.5260937,1.77734375
,72.5421675,1.7529296875
,72.5773617,1.7529296875
,72.5976581,1.7431640625
,72.6053015,1.7578125
,72.641266,1.748046875
,72.6433466,1.728515625
,72.6799124,1.7138671875
,72.7003674,1.7041015625
,72.7079408,1.6943359375
,72.7301314,1.6748046875
,72.7475954,1.62109375
,72.7651134,1.5673828125
,72.8001255,1.6015625
,72.8058699,1.6162109375
,72.8260774,1.630859375
,72.8615198,1.6259765625
,72.8678753,1.6357421875
,72.9158915,1.6357421875
,72.9161368,1.6552734375
,72.9265751,1.689453125
,72.9453232,1.69921875
,72.9928017,1.73828125
,72.9932493,1.7529296875
,73.0046001,1.77734375
,73.0409223,1.77734375
,73.060663,1.7822265625
,73.0678087,1.7724609375
,73.1039318,1.767578125
,73.104407,1.7529296875
,73.1243925,1.767578125
,73.1592097,1.7578125
,73.1796845,1.7529296875
,73.1847114,1.73828125
,73.221569,1.728515625
,73.2424053,1.708984375
,73.2481397,1.69921875
,73.2926099,1.689453125
,73.2928445,1.66015625
,73.3043983,1.66015625
,73.3405804,1.6455078125
,73.3451548,1.6455078125
,73.3824587,1.630859375
,73.3878896,1.630859375
,73.4315521,1.611328125
,73.4319024,1.6015625
,73.4435115,1.58203125
,73.4806213,1.58203125
,73.5011182,1.572265625
,73.5057163,1.5771484375
,73.5545681,1.5625
,73.5548121,1.5625
,73.5683877,1.552734375
,73.6170764,1.533203125
,73.6173165,1.533203125
,73.6265429,1.5380859375
,73.6619073,1.5869140625
,73.6950594,1.6162109375
,73.6953021,1.66015625
,73.7060846,1.689453125
,73.7407897,1.71875
,73.7608596,1.728515625
,73.7672895,1.7529296875
,73.8026411,1.748046875
,73.8102904,1.7578125
,73.8246035,1.748046875
,73.866625,1.7578125
,73.8670134,1.748046875
,73.8861803,1.7626953125
,73.9223783,1.7578125
,73.9274746,1.748046875
,73.9482932,1.7333984375
,73.9893234,1.71875
,73.9895624,1.7041015625
,74.0104798,1.689453125
,74.0264531,1.6943359375
,74.0693561,1.689453125
,74.0696307,1.6845703125
,74.0872224,1.669921875
,74.1221599,1.650390625
,74.142474,1.640625
,74.1473442,1.6357421875
,74.1646324,1.6162109375
,74.2108265,1.6259765625
,74.2110772,1.6357421875
,74.2309949,1.62109375
,74.24601,1.6162109375
,74.2815961,1.5966796875
,74.3015692,1.6015625
,74.3097307,1.5869140625
,74.3521978,1.5771484375
,74.3524379,1.5673828125
,74.3635905,1.5966796875
,74.4015273,1.6162109375
,74.4297529,1.6650390625
,74.429995,1.6943359375
,74.4467125,1.7333984375
,74.4834321,1.7578125
,74.4878492,1.77734375
,74.5383897,1.7822265625
,74.5387393,1.8017578125
,74.5686027,1.8212890625
,74.5688463,1.81640625
,74.5864257,1.826171875
,74.6237257,1.826171875
,74.6291595,1.81640625
,74.6800184,1.806640625
,74.6802746,1.8115234375
,74.689831,1.796875
,74.7420062,1.7919921875
,74.7424075,1.77734375
,74.746531,1.77734375
,74.7816247,1.767578125
,74.7872141,1.7626953125
,74.8227987,1.748046875
,74.8284594,1.7431640625
,74.8656112,1.73828125
,74.8703534,1.7138671875
,74.8896255,1.7041015625
,74.9076979,1.689453125
,74.9442192,1.708984375
,74.944549,1.7041015625
,74.9905161,1.69921875
,74.990762,1.689453125
,75.0112601,1.689453125
,75.0291186,1.6748046875
,75.064561,1.6650390625
,75.0648097,1.650390625
,75.1006864,1.6650390625
,75.1210346,1.6650390625
,75.1262747,1.689453125
,75.1659112,1.7041015625
,75.1858097,1.748046875
,75.1882014,1.787109375
,75.2212748,1.8017578125
,75.2418505,1.826171875
,75.2465698,1.8310546875
,75.2699438,1.85546875
,75.286265,1.796875
,75.3204994,1.8359375
,75.3409563,1.8505859375
,75.3488454,1.8603515625
,75.3986873,1.845703125
,75.399066,1.845703125
,75.4100267,1.8359375
,75.4585959,1.8408203125
,75.4588326,1.8212890625
,75.4790781,1.826171875
,75.4883087,1.8310546875
,75.5233488,1.8115234375
,75.5285194,1.8017578125
,75.5698761,1.77734375
,75.5701881,1.767578125
,75.6007521,1.748046875
,75.6100998,1.7333984375
,75.626728,1.7138671875
,75.6631163,1.7236328125
,75.6677701,1.71875
,75.7062257,1.73828125
,75.7092656,1.728515625
,75.745976,1.728515625
,75.7489627,1.71875
,75.786882,1.69921875
,75.7872704,1.6796875
,75.8226416,1.6845703125
,75.8277598,1.689453125
,75.8648102,1.6796875
,75.8695093,1.6943359375
,75.9096987,1.7041015625
,75.9100909,1.7333984375
,75.9556299,1.748046875
,75.9559469,1.767578125
,75.9680308,1.7822265625
,76.0033231,1.806640625
,76.0100513,1.8115234375
,76.0286159,1.81640625
,76.0640069,1.8115234375
,76.0685004,1.81640625
,76.090224,1.8017578125
,76.1251409,1.7822265625
,76.1300461,1.77734375
,76.1522945,1.7529296875
,76.1728394,1.689453125
,76.1882093,1.6357421875
,76.233663,1.6796875
,76.2339028,1.689453125
,76.2536041,1.69921875
,76.2704615,1.689453125
,76.3072777,1.689453125
,76.3129206,1.669921875
,76.3482023,1.6650390625
,76.3486025,1.6357421875
,76.3847031,1.6455078125
,76.389211,1.6357421875
,76.4354411,1.630859375
,76.4356846,1.6064453125
,76.4510948,1.6162109375
,76.4850262,1.611328125
,76.5068446,1.5966796875
,76.5116133,1.58203125
,76.5283291,1.5625
,76.5638151,1.572265625
,76.5682605,1.572265625
,76.6078923,1.58203125
,76.6082063,1.5966796875
,76.654139,1.62109375
,76.6545279,1.640625
,76.6837754,1.6748046875
,76.6865341,1.689453125
,76.7218709,1.73828125
,76.7467303,1.767578125
,76.7469718,1.787109375
,76.7813717,1.8115234375
,76.8014177,1.8115234375
,76.8113149,1.81640625
,76.8547255,1.8017578125
,76.8549717,1.796875
,76.8691428,1.77734375
,76.9043252,1.7822265625
,76.909388,1.77734375
,76.9490884,1.767578125
,76.9802702,1.7578125
,76.9806561,1.7626953125
,76.9911728,1.7431640625
,77.0253821,1.73828125
,77.0465774,1.7041015625
,77.051779,1.6455078125
,77.069966,1.6357421875
,77.1210065,1.66015625
,77.1212438,1.6650390625
,77.1300871,1.6552734375
,77.1505709,1.650390625
,77.186064,1.640625
,77.1910524,1.630859375
,77.2426939,1.62109375
,77.2429576,1.62109375
,77.2484048,1.611328125
,77.2906512,1.6162109375
,77.2910593,1.6162109375
,77.3106676,1.6162109375
,77.3542793,1.611328125
,77.3546654,1.6259765625
,77.3839139,1.640625
,77.3924231,1.6845703125
,77.4268317,1.71875
,77.4495639,1.7333984375
,77.4499494,1.77734375
,77.4851375,1.8017578125
,77.4900082,1.8310546875
,77.5268606,1.8408203125
,77.5577377,1.845703125
,77.5581284,1.8408203125
,77.5740687,1.826171875
,77.5898484,1.8115234375
,77.6099631,1.81640625
,77.6504132,1.8017578125
,77.6506596,1.796875
,77.6889639,1.7822265625
,77.6893487,1.767578125
,77.7280317,1.748046875
,77.7577869,1.77734375
,77.7581841,1.7822265625
,77.7701961,1.7724609375
,77.8186383,1.787109375
,77.81891,1.787109375
,77.830257,1.7822265625
,77.8659446,1.7724609375
,77.8709784,1.7626953125
,77.905423,1.748046875
,77.926106,1.73828125
,77.932903,1.7236328125
,77.968634,1.708984375
,77.9960323,1.689453125
,77.996273,1.7041015625
,78.012618,1.69921875
,78.0478935,1.689453125
,78.0509122,1.6943359375
,78.0702177,1.6748046875
,78.1077528,1.6650390625
,78.1126726,1.669921875
,78.1478559,1.7041015625
,78.168031,1.71875
,78.1699079,1.7578125
,78.2040761,1.7822265625
,78.2231135,1.806640625
,78.2319127,1.81640625
,78.2529227,1.8359375
,78.2905742,1.826171875
,78.2934568,1.8359375
,78.3099356,1.826171875
,78.3451676,1.8359375
,78.3648881,1.8212890625
,78.3722945,1.826171875
,78.4154127,1.81640625
,78.4156473,1.796875
,78.4325747,1.7919921875
,78.4535211,1.77734375
,78.4950465,1.7626953125
,78.4954397,1.748046875
,78.5111574,1.7529296875
,78.5471627,1.748046875
,78.5497217,1.7431640625
,78.5885098,1.7236328125
,78.5931031,1.7041015625
,78.6330114,1.689453125
,78.6332833,1.6748046875
,78.6496148,1.6552734375
,78.6862608,1.650390625
,78.6961275,1.66015625
,78.7128937,1.572265625
,78.7318289,1.58203125
,78.7667603,1.591796875
,78.7868947,1.611328125
,78.7922883,1.5966796875
,78.8367544,1.5966796875
,78.8369876,1.5869140625
,78.858177,1.6064453125
,78.8707175,1.611328125
,78.9072531,1.6552734375
,78.9116828,1.6748046875
,78.9629464,1.7041015625
,78.9631854,1.71875
,78.9748307,1.73828125
,79.0227747,1.728515625
,79.0230203,1.748046875
,79.0349601,1.7529296875
,79.0499816,1.7333984375
,79.085341,1.73828125
,79.1173931,1.7333984375
,79.1178144,1.7236328125
,79.1332212,1.708984375
,79.1790319,1.69921875
,79.1794872,1.6796875
,79.1949149,1.6650390625
,79.2104523,1.650390625
,79.2451626,1.6455078125
,79.2655494,1.640625
,79.2741899,1.6455078125
,79.292292,1.6357421875
,79.3329819,1.6259765625
,79.3530654,1.630859375
,79.3534661,1.6064453125
,79.3894052,1.6064453125
,79.3897108,1.58203125
,79.4257638,1.5966796875
,79.4314605,1.58203125
,79.4714028,1.58203125
,79.4716502,1.5673828125
,79.5098357,1.5673828125
,79.5126158,1.5478515625
,79.5502632,1.5478515625
,79.5556191,1.533203125
,79.5756627,1.474609375
,79.5937545,1.4501953125
,79.641409,1.5185546875
,79.6416477,1.572265625
,79.6520693,1.630859375
,79.6885299,1.669921875
,79.6935861,1.6796875
,79.7339445,1.6943359375
,79.7343336,1.7041015625
,79.7551635,1.71875
,79.773471,1.728515625
,79.8114706,1.787109375
,79.8117322,1.81640625
,79.8466766,1.8310546875
,79.8676937,1.8359375
,79.8730257,1.8408203125
,79.9065537,1.8408203125
,79.9266948,1.8408203125
,79.9313038,1.8359375
,79.9669232,1.8359375
,79.9722931,1.845703125
,80.014406,1.8310546875
,80.0147184,1.8212890625
,80.0518394,1.8115234375
,80.0522802,1.806640625
,80.0885315,1.7822265625
,80.10925,1.7724609375
,80.1117748,1.7529296875
,80.1573765,1.7578125
,80.157766,1.7431640625
,80.1779301,1.73828125
,80.1945724,1.7138671875
,80.2150823,1.69921875
,80.2514621,1.6796875
,80.2556833,1.669921875
,80.2723489,1.6455078125
,80.293039,1.669921875
,80.3139339,1.6748046875
,80.3344563,1.6650390625
,80.3556598,1.689453125
,80.3735934,1.708984375
,80.4097223,1.7431640625
,80.4147494,1.7578125
,80.4488343,1.7822265625
,80.4712685,1.787109375
,80.4760386,1.748046875
,80.4935222,1.767578125
,80.5313436,1.796875
,80.5347249,1.8115234375
,80.5777444,1.826171875
,80.5779865,1.8115234375
,80.5949289,1.8017578125
,80.6296827,1.8017578125
,80.6338761,1.7822265625
,80.6707419,1.7724609375
,80.6904544,1.7529296875
,80.6928158,1.7724609375
,80.7281809,1.7578125
,80.7481414,1.7626953125
,80.7549246,1.748046875
,80.7959848,1.73828125
,80.796364,1.7236328125
,80.8408813,1.728515625
,80.8411577,1.7138671875
,80.8547181,1.71875
,80.9044834,1.7138671875
,80.9047764,1.708984375
,80.9151312,1.6943359375
,80.9545748,1.689453125
,80.9548381,1.6845703125
,80.998573,1.6650390625
,80.9989614,1.66015625
,81.0274707,1.6455078125
,81.0333129,1.6455078125
,81.0677723,1.6357421875
,81.0908863,1.640625
,81.0955817,1.640625
,81.1302009,1.66015625
,81.1360503,1.6796875
,81.1713475,1.7041015625
,81.1716024,1.71875
,81.2067667,1.748046875
,81.2276173,1.7578125
,81.2330388,1.7626953125
,81.2692918,1.77734375
,81.2906356,1.7724609375
,81.2950751,1.7724609375
,81.3356453,1.7578125
,81.3361882,1.7578125
,81.3686232,1.7431640625
,81.3902965,1.73828125
,81.3952752,1.71875
,81.4457636,1.728515625
,81.4460016,1.71875
,81.4551704,1.71875
,81.4915557,1.7041015625
,81.4947974,1.6943359375
,81.5356751,1.6796875
,81.5359673,1.6748046875
,81.5566135,1.650390625
,81.5994457,1.669921875
,81.5996836,1.6650390625
,81.6140489,1.650390625
,81.6626889,1.640625
,81.6629359,1.630859375
,81.6772027,1.6162109375
,81.6991028,1.6015625
,81.7194952,1.5869140625
,81.7349275,1.5673828125
,81.7701519,1.572265625
,81.7754022,1.5673828125
,81.8122823,1.572265625
,81.8175173,1.5625
,81.836675,1.572265625
,81.8730043,1.5869140625
,81.877595,1.611328125
,81.9137967,1.66015625
,81.9141853,1.6748046875
,81.9487148,1.708984375
,81.9540991,1.71875
,81.9908113,1.7333984375
,81.9958563,1.728515625
,82.0341137,1.73828125
,82.0365004,1.7333984375
,82.0726763,1.728515625
,82.0729536,1.708984375
,82.1135752,1.728515625
,82.144283,1.7138671875
,82.1446685,1.708984375
,82.1560898,1.69921875
,82.1901811,1.689453125
,82.2100294,1.669921875
,82.2149974,1.6650390625
,82.2530935,1.6552734375
,82.2819409,1.630859375
,82.282142,1.62109375
,82.2963273,1.6064453125
,82.344007,1.5966796875
,82.3445459,1.58203125
,82.3548102,1.58203125
,82.3879005,1.5771484375
,82.4083768,1.5673828125
,82.4164144,1.5576171875
,82.4512576,1.5478515625
,82.4869395,1.533203125
,82.4872815,1.5478515625
,82.49785,1.54296875
,82.5167128,1.5576171875
,82.5629223,1.5625
,82.5631481,1.552734375
,82.5776257,1.552734375
,82.6256794,1.5625
,82.6258839,1.611328125
,82.6347049,1.630859375
,82.6708779,1.6796875
,82.6904864,1.708984375
,82.6944471,1.73828125
,82.7280054,1.7431640625
,82.7497613,1.7578125
,82.758468,1.7578125
,82.794038,1.7578125
,82.7943657,1.7626953125
,82.8400403,1.77734375
,82.8403674,1.7724609375
,82.8568172,1.7919921875
,82.8778497,1.8017578125
,82.8971678,1.787109375
,82.9191728,1.7822265625
,82.9381667,1.77734375
,82.9597114,1.77734375
,82.9784569,1.767578125
,83.0000463,1.708984375
,83.0189318,1.66015625
,83.0378989,1.7041015625
,83.0589449,1.7138671875
,83.0777485,1.71875
,83.1189411,1.7041015625
,83.1193014,1.69921875
,83.155075,1.6845703125
,83.1606355,1.6748046875
,83.1800174,1.6796875
,83.1968828,1.6650390625
,83.2437242,1.6748046875
,83.2443242,1.6748046875
,83.2575112,1.6845703125
,83.3037223,1.66015625
,83.3040468,1.6552734375
,83.3239196,1.630859375
,83.3385605,1.62109375
,83.3721107,1.611328125
,83.3764606,1.6552734375
,83.4122888,1.689453125
,83.442995,1.7333984375
,83.443322,1.7626953125
,83.4569844,1.796875
,83.4907367,1.806640625
,83.5106077,1.8310546875
,83.5206981,1.8359375
,83.5360273,1.826171875
,83.5568866,1.8408203125
,83.5916976,1.845703125
,83.5957956,1.8359375
,83.6442575,1.826171875
,83.6445865,1.8115234375
,83.6750345,1.7919921875
,83.6806768,1.7724609375
,83.6969138,1.7529296875
,83.7162589,1.7529296875
,83.7518186,1.73828125
,83.7557925,1.7333984375
,83.7885732,1.708984375
,83.8109252,1.6845703125
,83.8187933,1.6748046875
,83.8605485,1.640625
,83.8610565,1.6259765625
,83.9076671,1.611328125
,83.9079972,1.62109375
,83.9290662,1.6015625
,83.9361326,1.611328125
,83.9709486,1.5966796875
,83.9931343,1.5966796875
,83.9994245,1.572265625
,84.0480911,1.58203125
,84.0483831,1.5625
,84.0595504,1.5576171875
,84.0764332,1.5478515625
,84.1223126,1.5625
,84.1226638,1.572265625
,84.1436018,1.62109375
,84.1583774,1.6552734375
,84.201159,1.6748046875
,84.2014856,1.7041015625
,84.2316662,1.7138671875
,84.239693,1.7236328125
,84.2737052,1.71875
,84.2801535,1.748046875
,84.2977177,1.7578125
,84.3401542,1.7578125
,84.340494,1.748046875
,84.3631689,1.73828125
,84.3793139,1.728515625
,84.4199326,1.728515625
,84.4202597,1.7138671875
,84.4503726,1.728515625
,84.4564294,1.7431640625
,84.4898328,1.728515625
,84.5114635,1.7236328125
,84.5174882,1.708984375
,84.550464,1.7138671875
,84.5706628,1.69921875
,84.5810097,1.6943359375
,84.5958604,1.6796875
,84.6353964,1.689453125
,84.6556607,1.6796875
,84.658595,1.6796875
,84.6788141,1.6552734375
,84.7129137,1.650390625
,84.7355048,1.6357421875
,84.7411429,1.6259765625
,84.7595962,1.6064453125
,84.7939591,1.6064453125
,84.8140588,1.591796875
,84.818176,1.572265625
,84.8526801,1.5771484375
,84.8730285,1.58203125
,84.8788065,1.6015625
,84.9283158,1.6259765625
,84.9288673,1.6748046875
,84.9405992,1.6943359375
,84.9610975,1.7138671875
,84.9782115,1.728515625
,85.0225122,1.7578125
,85.0229363,1.7724609375
,85.0386176,1.787109375
,85.0849013,1.7822265625
,85.0851403,1.787109375
,85.0998849,1.7822265625
,85.1350415,1.7626953125
,85.1619185,1.7529296875
,85.1621614,1.7333984375
,85.177185,1.748046875
,85.1996776,1.728515625
,85.2415206,1.7236328125
,85.2417587,1.7138671875
,85.2867741,1.708984375
,85.2873346,1.6943359375
,85.302316,1.6943359375
,85.3160288,1.6748046875
,85.3519485,1.6845703125
,85.3793319,1.6845703125
,85.3797152,1.6943359375
,85.3994667,1.6796875
,85.4338927,1.689453125
,85.4542795,1.689453125
,85.4615496,1.6796875
,85.4958792,1.669921875
,85.4961297,1.6552734375
,85.5170198,1.6552734375
,85.5511521,1.6455078125
,85.5721943,1.640625
,85.5801062,1.6259765625
,85.601424,1.6162109375
,85.6201778,1.6064453125
,85.6731204,1.62109375
,85.6733609,1.640625
,85.6808658,1.6748046875
,85.6986981,1.6943359375
,85.7354199,1.73828125
,85.7551026,1.787109375
,85.7605919,1.8017578125
,85.797794,1.8212890625
,85.801003,1.8310546875
,85.837594,1.845703125
,85.8437768,1.8359375
,85.8627565,1.8310546875
,85.8789702,1.8115234375
,85.9006077,1.81640625
,85.9343873,1.8115234375
,85.9402332,1.8310546875
,85.9779894,1.8212890625
,85.9825459,1.8212890625
,86.001165,1.8115234375
,86.0429477,1.806640625
,86.0433343,1.7822265625
,86.0729091,1.8017578125
,86.0798632,1.7919921875
,86.1196203,1.7724609375
,86.1198633,1.7626953125
,86.155927,1.748046875
,86.175317,1.7333984375
,86.1813629,1.71875
,86.2031353,1.7041015625
,86.2189746,1.6943359375
,86.2541951,1.6943359375
,86.274478,1.6943359375
,86.2814517,1.6845703125
,86.3166753,1.6796875
,86.3236459,1.6748046875
,86.3577013,1.6552734375
,86.3631296,1.640625
,86.3826535,1.650390625
,86.4031468,1.650390625
,86.4229068,1.630859375
,86.4405197,1.6259765625
,86.4750854,1.71875
,86.4950226,1.767578125
,86.5006755,1.8115234375
,86.5361474,1.8359375
,86.5579221,1.865234375
,86.5636057,1.8701171875
,86.6154134,1.8798828125
,86.6158042,1.875
,86.6199095,1.884765625
,86.655536,1.875
,86.6752845,1.865234375
,86.6806678,1.845703125
,86.7168739,1.8505859375
,86.7394735,1.8408203125
,86.7400617,1.8212890625
,86.7771251,1.806640625
,86.802553,1.787109375
,86.8029083,1.7822265625
,86.8202213,1.7724609375
,86.8638194,1.767578125
,86.8640661,1.7578125
,86.8931497,1.748046875
,86.90096,1.7236328125
,86.9366192,1.71875
,86.9573305,1.69921875
,86.9597385,1.7138671875
,86.9959143,1.7138671875
,87.0198132,1.71875
,87.0201996,1.71875
,87.0658677,1.69921875
,87.0661808,1.689453125
,87.0828409,1.6748046875
,87.1273595,1.6650390625
,87.127596,1.650390625
,87.1396022,1.6650390625
,87.1746315,1.6748046875
,87.1950147,1.708984375
,87.2006122,1.7333984375
,87.2354103,1.77734375
,87.2577435,1.8017578125
,87.2647538,1.826171875
,87.2828861,1.8310546875
,87.3300831,1.7822265625
,87.3309436,1.7919921875
,87.3598547,1.8115234375
,87.3600982,1.81640625
,87.4076796,1.8017578125
,87.408055,1.8017578125
,87.4364163,1.77734375
,87.4432785,1.767578125
,87.4841165,1.748046875
,87.4843552,1.73828125
,87.5042579,1.71875
,87.5222285,1.7236328125
,87.5561301,1.71875
,87.561439,1.7138671875
,87.5975704,1.6943359375
,87.6023428,1.689453125
,87.6394675,1.669921875
,87.6596811,1.6552734375
,87.6642359,1.650390625
,87.6828115,1.6259765625
,87.7016021,1.630859375
,87.7364254,1.62109375
,87.7574144,1.6259765625
,87.7624352,1.611328125
,87.797125,1.611328125
,87.8168424,1.6015625
,87.823713,1.6015625
,87.8402333,1.58203125
,87.8774891,1.5966796875
,87.8821341,1.5966796875
,87.9208351,1.6064453125
,87.9210751,1.62109375
,87.9685255,1.66015625
,87.9689244,1.689453125
,87.9991501,1.7578125
,88.0039692,1.796875
,88.0224045,1.8115234375
,88.0407091,1.8505859375
,88.0757731,1.8701171875
,88.0976775,1.884765625
,88.1024282,1.884765625
,88.1537181,1.8798828125
,88.1539662,1.8701171875
,88.165318,1.85546875
,88.1834188,1.8359375
,88.2216549,1.8212890625
,88.2222201,1.8017578125
,88.2616254,1.8115234375
,88.2618698,1.806640625
,88.311321,1.8017578125
,88.3115629,1.806640625
,88.3407959,1.7822265625
,88.3458733,1.7724609375
,88.3640544,1.7431640625
,88.4038544,1.7236328125
,88.4042379,1.69921875
,88.433507,1.708984375
,88.4431369,1.7041015625
,88.4811164,1.69921875
,88.4814323,1.6845703125
,88.5165956,1.6845703125
,88.5373647,1.669921875
,88.5456478,1.6650390625
,88.5619419,1.6455078125
,88.6057594,1.6552734375
,88.6061484,1.6455078125
,88.6222241,1.6552734375
,88.6597769,1.650390625
,88.6626813,1.6455078125
,88.6994156,1.6552734375
,88.7200762,1.6796875
,88.725017,1.7138671875
,88.7419198,1.7333984375
,88.7910832,1.77734375
,88.7913966,1.806640625
,88.8047371,1.8310546875
,88.8398292,1.8505859375
,88.8423321,1.8603515625
,88.8644738,1.8603515625
,88.9004592,1.865234375
,88.9008464,1.8505859375
,88.9452789,1.85546875
,88.9455137,1.8603515625
,88.9666963,1.845703125
,88.9838228,1.8408203125
,89.0232161,1.826171875
,89.0236325,1.8310546875
,89.0718604,1.81640625
,89.0722056,1.8115234375
,89.1036775,1.796875
,89.1040719,1.7822265625
,89.1231793,1.7626953125
,89.1597289,1.767578125
,89.1650697,1.7529296875
,89.2140954,1.748046875
,89.214482,1.728515625
,89.2257698,1.71875
,89.2626235,1.7041015625
,89.2654728,1.708984375
,89.3012581,1.7041015625
,89.3015031,1.6796875
,89.3378823,1.689453125
,89.3580867,1.6845703125
,89.3646001,1.6845703125
,89.4007494,1.669921875
,89.405499,1.669921875
,89.4440061,1.6650390625
,89.4472683,1.6748046875
,89.463327,1.6943359375
,89.4836041,1.7431640625
,89.5201408,1.7822265625
,89.5250726,1.826171875
,89.5447145,1.8408203125
,89.5864212,1.8603515625
,89.5866665,1.884765625
,89.6043493,1.8896484375
,89.638922,1.8994140625
,89.6606229,1.89453125
,89.6626306,1.9091796875
,89.7145247,1.904296875
,89.7148699,1.89453125
,89.7232792,1.884765625
,89.7457339,1.8701171875
,89.7931297,1.85546875
,89.7934616,1.845703125
,89.8068292,1.826171875
,89.8279499,1.7626953125
,89.8443929,1.708984375
,89.8788243,1.73828125
,89.8841179,1.748046875
,89.9215159,1.7578125
,89.9268626,1.7529296875
,89.9453946,1.73828125
,89.9946144,1.7333984375
,89.9949952,1.71875
,90.0080195,1.7041015625
,90.0250816,1.6943359375
,90.0714146,1.708984375
,90.0718056,1.708984375
,90.084668,1.69921875
,90.1063417,1.6943359375
,90.1491584,1.6845703125
,90.1495473,1.669921875
,90.1672687,1.6552734375
,90.1829892,1.6357421875
,90.218512,1.640625
,90.2393497,1.6748046875
,90.2469706,1.6943359375
,90.2651826,1.7333984375
,90.3043177,1.767578125
,90.3045905,1.8115234375
,90.3482807,1.8212890625
,90.3484763,1.845703125
,90.365627,1.845703125
,90.3843887,1.875
,90.4264127,1.875
,90.4266558,1.89453125
,90.447513,1.8798828125
,90.4656484,1.875
,90.5045531,1.8603515625
,90.5338521,1.85546875
,90.5340984,1.826171875
,90.5440844,1.8505859375
,90.5806319,1.85546875
,90.5837935,1.845703125
,90.618726,1.8359375
,90.6389118,1.826171875
,90.6461152,1.806640625
,90.6903912,1.787109375
,90.6907682,1.7724609375
,90.7085443,1.7578125
,90.7435098,1.6943359375
,90.7438573,1.6943359375
,90.7846218,1.69921875
,90.7848613,1.7041015625
,90.8301328,1.7041015625
,90.8304495,1.7041015625
,90.8513159,1.6943359375
,90.8684268,1.69921875
,90.9027682,1.6748046875
,90.9089057,1.66015625
,90.9258488,1.640625
,90.9600352,1.6552734375
,90.9641878,1.6455078125
,91.0007616,1.6650390625
,91.0342544,1.6845703125
,91.0344964,1.728515625
,91.0462968,1.7578125
,91.0811604,1.8017578125
,91.1013922,1.826171875
,91.1046264,1.865234375
,91.1429641,1.884765625
,91.1459956,1.904296875
,91.1913441,1.8994140625
,91.1917499,1.9091796875
,91.2085582,1.9091796875
,91.2441405,1.884765625
,91.2495116,1.8701171875
,91.2651017,1.8505859375
,91.3007787,1.8505859375
,91.3061445,1.8408203125
,91.3403001,1.8359375
,91.3467712,1.8115234375
,91.393258,1.8017578125
,91.3938525,1.77734375
,91.4147251,1.7626953125
,91.4244245,1.7333984375
,91.4611587,1.728515625
,91.4655367,1.7138671875
,91.500414,1.708984375
,91.5225105,1.7041015625
,91.5281342,1.6796875
,91.5661925,1.6650390625
,91.566455,1.6455078125
,91.61244,1.640625
,91.6128275,1.6259765625
,91.6428991,1.6162109375
,91.6452687,1.5966796875
,91.6821315,1.6064453125
,91.6852199,1.5966796875
,91.7366202,1.591796875
,91.7368776,1.5771484375
,91.7464451,1.591796875
,91.7844796,1.611328125
,91.7893207,1.650390625
,91.8056231,1.6845703125
,91.8407033,1.7431640625
,91.8453387,1.787109375
,91.881299,1.806640625
,91.8864138,1.8408203125
,91.9233331,1.85546875
,91.944877,1.8701171875
,91.9495275,1.865234375
,91.9850651,1.865234375
,91.9855072,1.8505859375
,92.02609,1.865234375
,92.0264795,1.85546875
,92.0571033,1.8505859375
,92.0682997,1.8359375
,92.1166913,1.845703125
,92.1169275,1.8310546875
,92.1283248,1.826171875
,92.1640846,1.81640625
,92.1643278,1.8017578125
,92.1848193,1.8017578125
,92.2267404,1.787109375
,92.22714,1.77734375
,92.2623865,1.7578125
,92.267351,1.748046875
,92.3036093,1.71875
,92.3244775,1.708984375
,92.3247217,1.689453125
,92.3681783,1.69921875
,92.3685542,1.689453125
,92.3878097,1.6845703125
,92.4306132,1.669921875
,92.431175,1.66015625
,92.4493862,1.6357421875
,92.4924627,1.6259765625
,92.492785,1.6162109375
,92.5094586,1.6064453125
,92.5576607,1.6259765625
,92.5579789,1.6552734375
,92.5779493,1.7138671875
,92.5879736,1.7578125
,92.6370062,1.8115234375
,92.6372694,1.845703125
,92.6486317,1.875
,92.6993294,1.884765625
,92.6997317,1.904296875
,92.7064414,1.9091796875
,92.7263541,1.93359375
,92.7617438,1.9384765625
,92.7828769,1.93359375
,92.7899278,1.93359375
,92.824816,1.9091796875
,92.8274856,1.8994140625
,92.8645909,1.8798828125
,92.8717683,1.8701171875
,92.8884084,1.8408203125
,92.9333916,1.8408203125
,92.9336676,1.8212890625
,92.9494422,1.806640625
,92.9864359,1.77734375
,92.9867893,1.7626953125
,93.026033,1.728515625
,93.0576097,1.7138671875
,93.0579992,1.6845703125
,93.066716,1.689453125
,93.0867845,1.6748046875
,93.121943,1.6845703125
,93.1422448,1.6796875
,93.1484426,1.66015625
,93.184714,1.6455078125
,93.1896984,1.6259765625
,93.226846,1.611328125
,93.2298509,1.591796875
,93.2520761,1.5234375
,93.2665154,1.474609375
,93.3011091,1.5234375
,93.3220435,1.5625
,93.3278855,1.6162109375
,93.3625427,1.66015625
,93.3830699,1.708984375
,93.3912758,1.7333984375
,93.4274443,1.7626953125
,93.4304679,1.7919921875
,93.4462738,1.8017578125
,93.4830743,1.8310546875
,93.4882234,1.8359375
,93.5238907,1.845703125
,93.5443975,1.8310546875
,93.5515431,1.8212890625
,93.5867713,1.8017578125
,93.5919214,1.796875
,93.6079455,1.7724609375
,93.6471282,1.787109375
,93.6475121,1.77734375
,93.6839693,1.7724609375
,93.7046327,1.7626953125
,93.7104069,1.748046875
,93.7327421,1.7236328125
,93.7517815,1.708984375
,93.8026843,1.69921875
,93.8029348,1.669921875
,93.8088264,1.669921875
,93.828082,1.6650390625
,93.863152,1.6552734375
,93.8700559,1.640625
,93.9065455,1.6357421875
,93.911193,1.62109375
,93.958818,1.611328125
,93.9590644,1.5966796875
,93.9669392,1.6064453125
,94.0036942,1.591796875
,94.0082228,1.591796875
,94.0523785,1.5673828125
,94.0527746,1.5673828125
,94.074494,1.58203125
,94.0911379,1.5966796875
,94.1259795,1.6357421875
,94.1311035,1.6845703125
,94.1782801,1.6943359375
,94.1785426,1.73828125
,94.1991323,1.796875
,94.2083938,1.8212890625
,94.242238,1.85546875
,94.2620624,1.8603515625
,94.2702912,1.8701171875
,94.3042351,1.8603515625
,94.3251351,1.8505859375
,94.3280548,1.8359375
,94.3631893,1.8310546875
,94.3838424,1.8212890625
,94.3909963,1.8212890625
,94.4256234,1.81640625
,94.4310831,1.796875
,94.4769017,1.77734375
,94.4774422,1.7529296875
,94.4914718,1.73828125
,94.5253011,1.7138671875
,94.5275701,1.71875
,94.5699828,1.69921875
,94.5702198,1.6845703125
,94.5909184,1.6650390625
,94.6324597,1.650390625
,94.6329243,1.630859375
,94.6529058,1.6259765625
,94.668592,1.6064453125
,94.7101363,1.6064453125
,94.7105285,1.611328125
,94.7555019,1.591796875
,94.7557524,1.58203125
,94.771834,1.5576171875
,94.7920582,1.5576171875
,94.8342646,1.533203125
,94.8345028,1.5380859375
,94.8484297,1.5478515625
,94.8979252,1.6015625
,94.8983104,1.6259765625
,94.9180072,1.6748046875
,94.9311662,1.6943359375
,94.976695,1.71875
,94.9770841,1.728515625
,94.992878,1.7431640625
,95.0397161,1.73828125
,95.0400771,1.7626953125
,95.0535733,1.7578125
,95.0694855,1.7431640625
,95.1191145,1.748046875
,95.1195513,1.7431640625
,95.1506105,1.73828125
,95.150987,1.728515625
,95.1974955,1.728515625
,95.1978823,1.7138671875
,95.2276093,1.708984375
,95.2278476,1.6943359375
,95.2643728,1.69921875
,95.2851725,1.6845703125
,95.2902077,1.6943359375
,95.3364665,1.6748046875
,95.336786,1.66015625
,95.3526906,1.6650390625
,95.3989277,1.6357421875
,95.3993207,1.62109375
,95.4105249,1.6064453125
,95.4600954,1.6162109375
,95.4604066,1.6015625
,95.4693217,1.6015625
,95.5056028,1.5869140625
,95.5254606,1.58203125
,95.5322684,1.5625
,95.5710635,1.5625
,95.571496,1.54296875
,95.5906022,1.5625
,95.6299053,1.572265625
,95.6301469,1.6064453125
,95.662877,1.630859375
,95.6844234,1.689453125
,95.6923457,1.7236328125
,95.738273,1.7431640625
,95.7385156,1.767578125
,95.7492132,1.7822265625
,95.800338,1.8115234375
,95.8005795,1.826171875
,95.8115464,1.8505859375
,95.8480664,1.845703125
,95.8524173,1.845703125
,95.8940277,1.826171875
,95.8942639,1.81640625
,95.915259,1.796875
,95.9349892,1.7919921875
,95.9517171,1.7724609375
,95.9876169,1.77734375
,95.9894864,1.7822265625
,96.0266617,1.767578125
,96.0504522,1.7626953125
,96.0507392,1.7529296875
,96.0957012,1.7431640625
,96.0959407,1.71875
,96.1181772,1.7041015625
,96.1300155,1.689453125
,96.1660392,1.689453125
,96.1708984,1.6796875
,96.2062783,1.689453125
,96.2373251,1.6796875
,96.2377254,1.669921875
,96.2530578,1.6552734375
,96.2873039,1.6455078125
,96.3092266,1.62109375
,96.3096206,1.6357421875
,96.3454976,1.630859375
,96.3794043,1.6162109375
,96.3798272,1.6064453125
,96.3917314,1.591796875
,96.4401676,1.6064453125
,96.4406487,1.630859375
,96.4552377,1.6748046875
,96.4701281,1.7041015625
,96.5064471,1.748046875
,96.5115518,1.77734375
,96.5329249,1.796875
,96.5675999,1.796875
,96.5726267,1.826171875
,96.6079036,1.826171875
,96.6277151,1.8310546875
,96.6343098,1.8359375
,96.6540238,1.81640625
,96.6748857,1.7431640625
,96.6923652,1.69921875
,96.7364793,1.7431640625
,96.7367288,1.7578125
,96.7519196,1.77734375
,96.7862543,1.767578125
,96.807126,1.7626953125
,96.8149886,1.7431640625
,96.8624752,1.7431640625
,96.8627137,1.7138671875
,96.8712635,1.7138671875
,96.9047204,1.7041015625
,96.9254284,1.6943359375
,96.9328073,1.669921875
,96.966883,1.6748046875
,96.9890127,1.6650390625
,96.9957854,1.6455078125
,97.0312936,1.630859375
,97.0315814,1.6162109375
,97.0668661,1.6162109375
,97.07157,1.6064453125
,97.0922731,1.611328125
,97.1282967,1.6015625
,97.1571491,1.591796875
,97.1575416,1.58203125
,97.1752763,1.5625
,97.1914458,1.5576171875
,97.225687,1.611328125
,97.2470147,1.6455078125
,97.2543243,1.6845703125
,97.2738708,1.71875
,97.3113197,1.728515625
,97.3116364,1.748046875
,97.3442729,1.7578125
,97.3657855,1.77734375
,97.3709705,1.767578125
,97.391432,1.7822265625
,97.4285077,1.7822265625
,97.4313574,1.7822265625
,97.4656274,1.7626953125
,97.4863193,1.7626953125
,97.4933518,1.7431640625
,97.5306266,1.728515625
,97.5355813,1.7138671875
,97.5553793,1.6455078125
,97.5731796,1.572265625
,97.6227718,1.6259765625
,97.6231792,1.6455078125
,97.6348936,1.6455078125
,97.6845838,1.6357421875
,97.6848302,1.62109375
,97.6942684,1.6064453125
,97.7293833,1.58203125
,97.7507799,1.58203125
,97.7511495,1.5673828125
,97.7875916,1.572265625
,97.8078678,1.5673828125
,97.8150513,1.5625
,97.8583341,1.54296875
,97.8585727,1.5380859375
,97.8765167,1.5185546875
,97.9111102,1.50390625
,97.9164173,1.4990234375
,97.9321844,1.4697265625
,97.9664632,1.474609375
,97.9884806,1.4697265625
,97.9953932,1.494140625
,98.0325268,1.5185546875
,98.0329185,1.5576171875
,98.0679835,1.5771484375
,98.0885815,1.611328125
,98.0941102,1.6162109375
,98.1396276,1.6552734375
,98.1398659,1.6748046875
,98.1533538,1.6943359375
,98.2011754,1.6943359375
,98.2014306,1.6943359375
,98.2138307,1.6796875
,98.2500725,1.6943359375
,98.270068,1.6943359375
,98.2722964,1.6748046875
,98.3074126,1.6845703125
,98.3128237,1.6796875
,98.3560693,1.6748046875
,98.3564595,1.669921875
,98.3771164,1.6650390625
,98.3964596,1.650390625
,98.4305431,1.640625
,98.4353134,1.62109375
,98.483802,1.611328125
,98.4841915,1.5966796875
,98.5131996,1.611328125
,98.5134688,1.611328125
,98.5596573,1.6015625
,98.5603811,1.611328125
,98.5805342,1.5966796875
,98.597532,1.5869140625
,98.6363441,1.572265625
,98.6366602,1.572265625
,98.6522469,1.552734375
,98.6982893,1.5625
,98.6985281,1.5576171875
,98.7192123,1.5625
,98.7363695,1.5576171875
,98.7565598,1.572265625
,98.7942093,1.58203125
,98.7945989,1.62109375
,98.8142594,1.650390625
,98.8572065,1.7041015625
,98.8575928,1.7333984375
,98.8753636,1.787109375
,98.9193793,1.81640625
,98.9197651,1.826171875
,98.9357391,1.8505859375
,98.9808573,1.8505859375
,98.9812477,1.865234375
,98.9951708,1.8603515625
,99.0431413,1.8798828125
,99.0436012,1.8798828125
,99.054959,1.8798828125
,99.0896196,1.8701171875
,99.0950219,1.865234375
,99.1292788,1.845703125
,99.151695,1.8408203125
,99.1520848,1.8212890625
,99.1865436,1.826171875
,99.2071315,1.8359375
,99.2143618,1.81640625
,99.2500569,1.806640625
,99.2556759,1.7919921875
,99.2745574,1.796875
