Time,PPG_Signal
0.4454551,1.03515625
0.4498907,1.044921875
0.486748,1.0791015625
0.4894204,1.1474609375
0.507614,1.220703125
0.5436021,1.3134765625
0.5493252,1.3818359375
0.5833931,1.455078125
0.5897985,1.4990234375
0.6292715,1.54296875
0.6296536,1.5625
0.6631847,1.572265625
0.6843539,1.5478515625
0.6891895,1.5234375
0.7387703,1.4892578125
0.7390418,1.46484375
0.7500646,1.435546875
0.7697488,1.4208984375
0.8070345,1.3916015625
0.8117995,1.357421875
0.8317467,1.3232421875
0.8486236,1.2890625
0.8697936,1.2548828125
0.8896232,1.2255859375
0.9100035,1.201171875
0.930879,1.171875
0.9690397,1.15234375
0.9692955,1.123046875
1.0144357,1.0986328125
1.0657869,1.0791015625
1.0660698,1.0595703125
1.0662992,1.044921875
1.0919443,1.03515625
1.0922703,1.0302734375
1.1104007,1.0205078125
1.131405,1.0400390625
1.1511089,1.0791015625
1.1973627,1.15234375
1.197737,1.2255859375
1.2119034,1.30859375
1.227994,1.3671875
1.2632627,1.4306640625
1.2849096,1.4794921875
1.2895189,1.5185546875
1.3252637,1.533203125
1.329764,1.5380859375
1.351315,1.5185546875
1.4009972,1.4892578125
1.4014921,1.455078125
1.4089985,1.435546875
1.4272672,1.416015625
1.4785774,1.38671875
1.4788748,1.357421875
1.490531,1.3232421875
1.5418095,1.2841796875
1.542157,1.25
1.5522565,1.2158203125
1.5702017,1.181640625
1.6183927,1.1572265625
1.6186336,1.1328125
1.6319401,1.1181640625
1.6503152,1.09375
1.6975784,1.0791015625
1.697927,1.0595703125
1.7175217,1.0498046875
1.7320373,1.03515625
1.7488139,1.0107421875
1.7875598,1.0009765625
1.817815,0.966796875
1.8180731,1.0009765625
1.8288272,1.044921875
1.862863,1.123046875
1.8834966,1.2060546875
1.8902823,1.298828125
1.9256016,1.3671875
1.9455604,1.435546875
1.9473658,1.484375
1.9878227,1.5283203125
2.0079565,1.552734375
2.0112377,1.5625
2.0464884,1.54296875
2.0683508,1.5185546875
2.073969,1.494140625
2.1090676,1.4599609375
2.1140661,1.435546875
2.1290048,1.40625
2.1638287,1.376953125
2.1839114,1.34765625
2.1922065,1.3232421875
2.2404489,1.2841796875
2.240653,1.25
2.2530282,1.2158203125
2.3011912,1.1865234375
2.3015928,1.162109375
2.3105364,1.1474609375
2.3299565,1.1279296875
2.3665653,1.1181640625
2.3706904,1.103515625
2.4092504,1.0791015625
2.4117915,1.064453125
2.4547935,1.044921875
2.45506,1.03515625
2.4691301,1.015625
2.5043053,1.025390625
2.5326391,1.0595703125
2.5330173,1.1279296875
2.580793,1.201171875
2.5811163,1.2841796875
2.6101483,1.3525390625
2.6130813,1.4111328125
2.6329039,1.455078125
2.6541716,1.4697265625
2.6721205,1.474609375
2.6914551,1.4990234375
2.7328216,1.494140625
2.7330257,1.474609375
2.7632661,1.455078125
2.7721551,1.435546875
2.8072742,1.4111328125
2.8281098,1.38671875
2.8359556,1.3671875
2.8502569,1.337890625
2.8874634,1.30859375
2.8902255,1.279296875
2.9255633,1.2451171875
2.9510295,1.2158203125
2.9531355,1.19140625
2.9910332,1.162109375
2.995301,1.142578125
3.0167165,1.123046875
3.0318261,1.103515625
3.0761806,1.0888671875
3.0777802,1.0693359375
3.0918764,1.0595703125
3.1371667,1.03515625
3.1374966,1.025390625
3.1580176,1.025390625
3.1737993,1.064453125
3.1925864,1.1181640625
3.2115381,1.2109375
3.2568305,1.2890625
3.2572069,1.3671875
3.2713101,1.42578125
3.3069866,1.4794921875
3.3351174,1.5087890625
3.3354526,1.54296875
3.3707015,1.5478515625
3.3709586,1.533203125
3.406803,1.5185546875
3.4119761,1.4892578125
3.4498512,1.4697265625
3.4519254,1.4453125
3.4871095,1.416015625
3.5222716,1.3818359375
3.5224736,1.3427734375
3.5361537,1.30859375
3.5717691,1.26953125
3.5719825,1.23046875
3.6124966,1.2060546875
3.6127965,1.1767578125
3.6470303,1.15234375
3.6692668,1.1328125
3.6737583,1.103515625
3.6945572,1.083984375
3.7366691,1.064453125
3.7369392,1.044921875
3.7531011,1.025390625
3.8005704,1.015625
3.8008454,1.0009765625
3.8138107,1.0009765625
3.834724,1.0205078125
3.8777335,1.083984375
3.8780256,1.1572265625
3.9132625,1.2548828125
3.9134768,1.3330078125
3.9295647,1.416015625
3.9629741,1.4794921875
3.9887465,1.54296875
3.9934968,1.58203125
4.0139484,1.5966796875
4.0511323,1.5966796875
4.0809919,1.5771484375
4.0829827,1.5478515625
4.091157,1.513671875
4.1281211,1.494140625
4.1340656,1.46484375
4.1735862,1.435546875
4.1739315,1.4013671875
4.2087436,1.3623046875
4.2375839,1.3232421875
4.2381365,1.2890625
4.2522166,1.2451171875
4.2708599,1.2158203125
4.314402,1.1865234375
4.3147603,1.1279296875
4.3346049,1.1083984375
4.377324,1.09375
4.3776492,1.083984375
4.4230025,1.064453125
4.4234721,1.0498046875
4.4340367,1.0302734375
4.4864249,1.015625
4.4867964,0.99609375
4.4926197,0.99609375
4.5305728,1.015625
4.5504266,1.0693359375
4.5558375,1.1376953125
4.5745882,1.220703125
4.6218676,1.2939453125
4.622378,1.376953125
4.6356223,1.4453125
4.652455,1.4892578125
4.7001332,1.533203125
4.7004138,1.5478515625
4.714929,1.5478515625
4.7494271,1.5283203125
4.7567758,1.494140625
4.7914351,1.46484375
4.7953208,1.435546875
4.8118062,1.40625
4.8483231,1.376953125
4.8513056,1.34765625
4.886279,1.3232421875
4.9174008,1.2841796875
4.9176123,1.25
4.9354687,1.220703125
4.9807937,1.181640625
4.9809994,1.15234375
4.9910504,1.123046875
5.0276798,1.1083984375
5.0558941,1.0888671875
5.0561285,1.0693359375
5.0912795,1.0498046875
5.0979827,1.03515625
5.1149898,1.015625
5.1527299,1.0009765625
5.1572572,0.986328125
5.1770659,0.9619140625
5.1941516,0.9716796875
5.2136847,1.0498046875
5.23546,1.1328125
5.2703209,1.2353515625
5.2763392,1.3232421875
5.2967345,1.3916015625
5.3353728,1.4501953125
5.3358069,1.4892578125
5.3709504,1.5185546875
5.3927658,1.5283203125
5.3932349,1.5234375
5.416292,1.50390625
5.4350987,1.4794921875
5.472806,1.4501953125
5.4945652,1.42578125
5.4949183,1.396484375
5.5327878,1.3720703125
5.5332132,1.337890625
5.5672716,1.3037109375
5.5895914,1.2744140625
5.5947727,1.240234375
5.6417178,1.2060546875
5.6420809,1.1767578125
5.6617024,1.15234375
5.6768373,1.123046875
5.7194351,1.0986328125
5.719841,1.07421875
5.7399314,1.0595703125
5.7547835,1.044921875
5.7899067,1.03515625
5.8087302,1.0205078125
5.8154239,1.005859375
5.8519698,0.99609375
5.871612,1.015625
5.8721257,1.0595703125
5.9155142,1.15234375
5.9158967,1.240234375
5.9365687,1.318359375
5.9719189,1.3916015625
5.9770965,1.4404296875
6.0258851,1.484375
6.0262531,1.5087890625
6.0363346,1.5234375
6.0737542,1.5087890625
6.1045313,1.484375
6.1053205,1.4501953125
6.1164653,1.4306640625
6.1363863,1.40625
6.180553,1.38671875
6.1808683,1.3525390625
6.1959363,1.328125
6.2323071,1.298828125
6.2587802,1.259765625
6.2592146,1.2255859375
6.2744862,1.1962890625
6.3222268,1.171875
6.3225452,1.1474609375
6.3371045,1.1279296875
6.3827637,1.103515625
6.3832756,1.0888671875
6.397578,1.064453125
6.4441833,1.0546875
6.444531,1.0302734375
6.4545247,1.025390625
6.4939321,1.0107421875
6.4942885,1.015625
6.5395015,1.03515625
6.5399273,1.09375
6.5605436,1.1767578125
6.5767463,1.2548828125
6.6139262,1.337890625
6.6142215,1.4013671875
6.6649141,1.46484375
6.6652909,1.5087890625
6.6952441,1.5478515625
6.6955772,1.5625
6.7335063,1.552734375
6.7391936,1.5234375
6.7596381,1.494140625
6.7746742,1.46484375
6.8128892,1.4404296875
6.8155758,1.416015625
6.8512681,1.38671875
6.8557399,1.357421875
6.8905471,1.318359375
6.9114025,1.2841796875
6.9179841,1.2451171875
6.9594765,1.2158203125
6.9597611,1.181640625
6.9789809,1.15234375
6.9955093,1.123046875
7.0348841,1.1083984375
7.035215,1.0888671875
7.0698107,1.07421875
7.0992452,1.0546875
7.0996309,1.0302734375
7.1182617,1.015625
7.155632,1.0009765625
7.1559834,0.9912109375
7.19141,1.0107421875
7.2124662,1.064453125
7.2168681,1.1376953125
7.2597213,1.23046875
7.2599164,1.30859375
7.2788353,1.38671875
7.3207307,1.4453125
7.3209382,1.4990234375
7.3334941,1.5380859375
7.3674158,1.5673828125
7.3884507,1.572265625
7.3953305,1.5625
7.4302274,1.533203125
7.4597969,1.50390625
7.4601118,1.474609375
7.4953201,1.4501953125
7.4999662,1.4208984375
7.5173193,1.38671875
7.5363681,1.3525390625
7.5559854,1.3134765625
7.5778548,1.2841796875
7.6252288,1.240234375
7.6254876,1.2109375
7.6380631,1.171875
7.6755079,1.142578125
7.6779248,1.11328125
7.7146756,1.064453125
7.7172569,1.0498046875
7.7352744,1.03515625
7.7834677,1.0205078125
7.7837795,1.005859375
7.8029509,0.9912109375
7.8191906,0.9814453125
7.8619257,0.986328125
7.862196,1.0107421875
7.8802019,1.07421875
7.8971483,1.15234375
7.935069,1.2451171875
7.9353382,1.328125
7.9848998,1.40625
7.9853362,1.46484375
8.0046298,1.513671875
8.0183119,1.54296875
8.0549495,1.552734375
8.0800627,1.5380859375
8.0803446,1.5185546875
8.0973325,1.4892578125
8.1325159,1.4599609375
8.1373478,1.4306640625
8.1708209,1.396484375
8.1926005,1.3671875
8.2023802,1.328125
8.2206741,1.298828125
8.2408853,1.2548828125
8.2574402,1.2255859375
8.3014786,1.19140625
8.3017986,1.162109375
8.3189358,1.1328125
8.3397547,1.1083984375
8.3792146,1.0791015625
8.3795114,1.0595703125
8.4125474,1.03515625
8.4158704,1.0205078125
8.4490788,1.0009765625
8.4693249,0.9912109375
8.4783625,0.986328125
8.5221192,0.9765625
8.5224828,0.986328125
8.543426,1.015625
8.5597898,1.083984375
8.6038634,1.162109375
8.6043359,1.25
8.6172452,1.318359375
8.665947,1.3916015625
8.6661661,1.4404296875
8.6786509,1.4892578125
8.7140261,1.5087890625
8.718485,1.5234375
8.7518458,1.50390625
8.7720777,1.474609375
8.7813157,1.4501953125
8.7975155,1.416015625
8.8337933,1.396484375
8.8383108,1.3671875
8.8836502,1.3427734375
8.8838644,1.30859375
8.8991133,1.2744140625
8.938366,1.2353515625
8.9688224,1.2060546875
8.9690738,1.171875
8.9760619,1.15234375
9.0122123,1.1279296875
9.0328134,1.1083984375
9.0394219,1.083984375
9.0745016,1.064453125
9.0950348,1.0400390625
9.0991912,1.025390625
9.1348568,1.005859375
9.1582806,0.986328125
9.1585968,0.9765625
9.1803427,0.966796875
9.2160351,0.9912109375
9.220794,1.03515625
9.254306,1.11328125
9.2611594,1.1865234375
9.297147,1.26953125
9.2974974,1.328125
9.3397497,1.3916015625
9.3399484,1.4306640625
9.358886,1.4599609375
9.3942106,1.46484375
9.4197856,1.455078125
9.4199873,1.435546875
9.4664696,1.40625
9.4667813,1.3818359375
9.481762,1.357421875
9.5160178,1.337890625
9.535927,1.3134765625
9.5386473,1.2939453125
9.5736073,1.2646484375
9.6075942,1.2353515625
9.6078342,1.201171875
9.6222342,1.1767578125
9.6415078,1.142578125
9.6782567,1.123046875
9.678461,1.0986328125
9.7161458,1.0791015625
9.7163832,1.0595703125
9.7530663,1.0498046875
9.7774926,1.0302734375
9.7813973,1.015625
9.8241745,1.0009765625
9.8245791,0.9814453125
9.8419431,0.9716796875
9.8583918,0.986328125
9.8791168,1.03515625
9.9192357,1.103515625
9.9194342,1.1865234375
9.9564755,1.259765625
9.9605984,1.328125
9.9819854,1.38671875
10.0180216,1.4453125
10.0182556,1.4794921875
10.0522453,1.50390625
10.0745192,1.5087890625
10.079641,1.484375
10.114028,1.4599609375
10.1342197,1.42578125
10.1391194,1.40625
10.1774085,1.3818359375
10.1820585,1.357421875
10.2013872,1.3232421875
10.235606,1.26953125
10.2565708,1.240234375
10.258609,1.220703125
10.2938316,1.1962890625
10.3149956,1.1767578125
10.3223692,1.1474609375
10.3724604,1.1279296875
10.3728046,1.103515625
10.3821944,1.0888671875
10.4178962,1.0693359375
10.418366,1.0498046875
10.4384886,1.03515625
10.4741139,1.0205078125
10.5023513,1.005859375
10.502822,0.99609375
10.5210693,0.99609375
10.559262,1.0205078125
10.5636467,1.07421875
10.5801194,1.1474609375
10.6154241,1.2353515625
10.6200342,1.318359375
10.656426,1.396484375
10.6775158,1.4599609375
10.6828978,1.513671875
10.7026731,1.5576171875
10.751429,1.572265625
10.7517238,1.572265625
10.7579969,1.5478515625
10.7926301,1.5283203125
10.8132044,1.4990234375
10.8204675,1.474609375
10.8609327,1.4453125
10.861153,1.416015625
10.9060335,1.3818359375
10.9062323,1.34765625
10.9189301,1.30859375
10.9543893,1.2744140625
10.9753275,1.240234375
10.9819819,1.2109375
11.0292122,1.181640625
11.0297564,1.162109375
11.0437546,1.1376953125
11.0930809,1.1181640625
11.0934086,1.0986328125
11.1037786,1.0791015625
11.155616,1.0595703125
11.1562427,1.03515625
11.1609685,1.025390625
11.1974823,1.015625
11.2021593,1.0009765625
11.2405627,1.0107421875
11.2436924,1.0498046875
11.264922,1.11328125
11.2837642,1.1962890625
11.2992669,1.2646484375
11.3204297,1.34765625
11.3646154,1.416015625
11.3648192,1.4599609375
11.3832923,1.50390625
11.4020359,1.5234375
11.4425246,1.5283203125
11.4429129,1.513671875
11.4633309,1.484375
11.4834397,1.455078125
11.5012087,1.4306640625
11.5357866,1.40625
11.5564578,1.3818359375
11.5614713,1.3525390625
11.5989787,1.3232421875
11.6023031,1.2890625
11.6368613,1.25
11.6581662,1.2158203125
11.6585543,1.19140625
11.696126,1.1669921875
11.725313,1.142578125
11.7255113,1.1181640625
11.7417794,1.09375
11.7764238,1.07421875
11.7972929,1.0546875
11.8048037,1.0400390625
11.8206621,1.0205078125
11.8582087,1.0107421875
11.8631837,0.9912109375
11.9003356,0.986328125
11.9006199,0.9814453125
11.9459473,1.015625
11.9461977,1.0693359375
11.9628408,1.15234375
11.9972691,1.23046875
12.0231421,1.2939453125
12.0234278,1.357421875
12.0420732,1.416015625
12.0623456,1.4794921875
12.0837387,1.513671875
12.1019055,1.533203125
12.1464358,1.5185546875
12.1466566,1.4990234375
12.1765162,1.4697265625
12.1858259,1.4453125
12.2025697,1.4111328125
12.2239659,1.3916015625
12.2421214,1.3623046875
12.2853534,1.3330078125
12.2857059,1.3037109375
12.3037208,1.2744140625
12.3507017,1.240234375
12.3510477,1.2060546875
12.3669941,1.171875
12.3811061,1.142578125
12.4179441,1.123046875
12.4233809,1.103515625
12.4419756,1.0888671875
12.4900627,1.064453125
12.4902606,1.0498046875
12.5106792,1.0302734375
12.5248527,1.015625
12.5419506,1.0009765625
12.5622879,0.99609375
12.5981803,1.0009765625
12.602539,1.025390625
12.6470807,1.0888671875
12.6474291,1.1572265625
12.6819655,1.2353515625
12.6821681,1.298828125
12.7250667,1.3671875
12.7252708,1.40625
12.7458923,1.42578125
12.7610774,1.4501953125
12.7935323,1.4697265625
12.8164126,1.4599609375
12.8235246,1.4404296875
12.8743989,1.4111328125
12.8746576,1.396484375
12.9046754,1.376953125
12.9048894,1.3525390625
12.9216545,1.328125
12.9564225,1.30859375
12.9774265,1.279296875
12.9818162,1.25
13.0191853,1.220703125
13.0437474,1.1962890625
13.0439464,1.1669921875
13.0780604,1.1474609375
13.1006565,1.1279296875
13.1008749,1.1083984375
13.1380964,1.0986328125
13.1619387,1.083984375
13.1637815,1.0693359375
13.1988818,1.0498046875
13.2030787,1.0400390625
13.2390919,1.025390625
13.2707363,1.0107421875
13.2710489,1.0205078125
13.2827317,1.0546875
13.3159672,1.1279296875
13.3358758,1.1962890625
13.3435242,1.2744140625
13.381813,1.3330078125
13.3868273,1.396484375
13.4047914,1.4404296875
13.4414167,1.474609375
13.4717498,1.484375
13.4719503,1.494140625
13.4854498,1.474609375
13.5215574,1.4501953125
13.5219248,1.4306640625
13.5648698,1.40625
13.5651703,1.3818359375
13.5860953,1.3623046875
13.6288943,1.337890625
13.6292437,1.3037109375
13.6481701,1.2744140625
13.6646146,1.2451171875
13.7002807,1.220703125
13.7043066,1.1962890625
13.7393252,1.171875
13.759372,1.15234375
13.764153,1.1328125
13.8025297,1.11328125
13.8049898,1.09375
13.837868,1.07421875
13.8424617,1.064453125
13.8772882,1.0498046875
13.8976032,1.03515625
13.9049187,1.0302734375
13.9384627,1.0205078125
13.9597648,1.044921875
13.966123,1.0888671875
14.0042445,1.1669921875
14.0045856,1.240234375
14.0541944,1.318359375
14.0543981,1.38671875
14.0647772,1.4501953125
14.1003761,1.4990234375
14.1061252,1.54296875
14.1246881,1.5673828125
14.1621408,1.5673828125
14.1625059,1.5478515625
14.1836862,1.5234375
14.2201532,1.4990234375
14.2252453,1.474609375
14.2615817,1.4501953125
14.2661316,1.4208984375
14.2874688,1.3916015625
14.3309703,1.3525390625
14.3312458,1.318359375
14.3413408,1.279296875
14.3760852,1.2548828125
14.3968331,1.1962890625
14.4055568,1.1767578125
14.4267495,1.162109375
14.446301,1.142578125
14.4881047,1.1181640625
14.4883693,1.1083984375
14.5339804,1.0888671875
14.5342804,1.064453125
14.5486044,1.0546875
14.5645565,1.0302734375
14.6012468,1.025390625
14.6075124,1.0302734375
14.6255654,1.064453125
14.6720069,1.11328125
14.6724864,1.19140625
14.6934111,1.259765625
14.7076859,1.3330078125
14.7250688,1.38671875
14.7463936,1.4501953125
14.7820002,1.484375
14.7871273,1.513671875
14.8215356,1.5234375
14.8245901,1.513671875
14.8592983,1.484375
14.8806766,1.4599609375
14.8878618,1.4306640625
14.9051756,1.40625
14.9489909,1.3818359375
14.9492798,1.357421875
14.966491,1.3330078125
15.0044905,1.298828125
15.0048082,1.26953125
15.0567334,1.2353515625
15.0570006,1.201171875
15.063541,1.171875
15.0979585,1.15234375
15.1176562,1.1328125
15.1252801,1.123046875
15.1596296,1.103515625
15.179826,1.0888671875
15.186822,1.07421875
15.2075733,1.0595703125
15.2546696,1.044921875
15.2551884,1.025390625
15.2881696,0.9912109375
15.2884466,1.0009765625
15.3053683,1.0498046875
15.3509907,1.11328125
15.351336,1.1962890625
15.3681104,1.26953125
15.4023168,1.34765625
15.408502,1.4013671875
15.4293432,1.4599609375
15.4455585,1.494140625
15.4921149,1.5185546875
15.4924553,1.5185546875
15.5085752,1.513671875
15.5480226,1.4892578125
15.5482191,1.46484375
15.5836318,1.4404296875
15.6068959,1.416015625
15.6072924,1.38671875
15.6253889,1.357421875
15.6675442,1.3330078125
15.6677616,1.3037109375
15.7035715,1.2744140625
15.7087668,1.2451171875
15.727357,1.220703125
15.7632237,1.19140625
15.7911723,1.1669921875
15.7914225,1.1376953125
15.8047386,1.1181640625
15.8388509,1.0986328125
15.8601338,1.083984375
15.8689365,1.0693359375
15.9168385,1.0546875
15.9170866,1.044921875
15.9294059,1.0302734375
15.950345,1.025390625
15.9666729,1.0400390625
16.0099793,1.0888671875
16.0102362,1.15234375
16.026662,1.2255859375
16.0705664,1.2939453125
16.0707671,1.357421875
16.0865769,1.40625
16.1206336,1.4453125
16.1414317,1.474609375
16.1496126,1.494140625
16.1840712,1.4892578125
16.2057441,1.46484375
16.2059617,1.4453125
16.2424439,1.4306640625
16.263495,1.4111328125
16.2678507,1.38671875
16.3057191,1.3623046875
16.3077356,1.328125
16.3563295,1.2939453125
16.3565775,1.2646484375
16.3856705,1.2353515625
16.3859669,1.2060546875
16.4206345,1.1865234375
16.4483132,1.162109375
16.4485116,1.1376953125
16.4840669,1.123046875
16.5117108,1.09375
16.5120526,1.07421875
16.5275682,1.0498046875
16.5728418,1.0498046875
16.5731684,1.03515625
16.587074,1.025390625
16.6104339,1.015625
16.6510963,1.0205078125
16.6512959,1.0498046875
16.6972556,1.11328125
16.6974605,1.1865234375
16.7055374,1.26953125
16.7402629,1.34765625
16.7620621,1.4111328125
16.7683815,1.4599609375
16.7897358,1.5087890625
16.8089509,1.5380859375
16.8465948,1.5380859375
16.8509323,1.5283203125
16.8665601,1.50390625
16.8908398,1.4794921875
16.9093277,1.4306640625
16.929171,1.4208984375
16.9634078,1.4013671875
16.9677845,1.3818359375
17.0011005,1.3525390625
17.0225592,1.3232421875
17.0312954,1.2890625
17.0522027,1.2548828125
17.0675639,1.220703125
17.1092914,1.19140625
17.1094951,1.171875
17.1298936,1.142578125
17.1707044,1.123046875
17.1709057,1.0986328125
17.1897342,1.083984375
17.2253659,1.0595703125
17.2511593,1.0400390625
17.2514801,1.0205078125
17.2682914,1.0107421875
17.3038259,0.99609375
17.3083128,0.99609375
17.3425396,1.0107421875
17.3755036,1.0693359375
17.3757503,1.1376953125
17.3904473,1.220703125
17.405937,1.2841796875
17.4419329,1.3623046875
17.4629251,1.42578125
17.4680379,1.4697265625
17.5011545,1.5087890625
17.5232744,1.5234375
17.5294998,1.5234375
17.5508351,1.50390625
17.5705197,1.4794921875
17.5864927,1.4501953125
17.6248585,1.42578125
17.6291853,1.4013671875
17.6702531,1.3720703125
17.6705973,1.337890625
17.7055745,1.30859375
17.7100231,1.2744140625
17.7449612,1.2451171875
17.749725,1.2109375
17.7933391,1.1767578125
17.7936127,1.15234375
17.8078259,1.123046875
17.8550212,1.103515625
17.8553541,1.083984375
17.8863262,1.064453125
17.8919994,1.0498046875
17.9114984,0.99609375
17.9315865,0.9375
17.9741112,0.8984375
17.9743169,0.8642578125
17.9885335,0.8447265625
18.0092676,0.830078125
18.0292914,0.8447265625
18.0493241,0.8837890625
18.0848057,0.9619140625
18.1042683,1.0498046875
18.1111156,1.1279296875
18.1604882,1.2060546875
18.1607306,1.2744140625
18.1677249,1.337890625
18.2056344,1.38671875
18.2107497,1.4306640625
18.2306372,1.4453125
18.2805247,1.455078125
18.2813174,1.484375
18.3008899,1.494140625
18.3087263,1.4892578125
18.3460297,1.484375
18.346307,1.46484375
18.3840858,1.4453125
18.4045111,1.4208984375
18.4094255,1.38671875
18.4434983,1.34765625
18.4648264,1.3134765625
18.4721844,1.279296875
18.4894192,1.2451171875
18.5079598,1.220703125
18.5435679,1.1962890625
18.5487267,1.171875
18.5856738,1.15234375
18.5897239,1.1376953125
18.6344065,1.11328125
18.634622,1.09375
18.6517587,1.07421875
18.6868001,1.0546875
18.7077384,1.0302734375
18.7081159,1.025390625
18.7612991,1.03515625
18.7615814,1.0595703125
18.7705319,1.11328125
18.8110609,1.181640625
18.8112774,1.2548828125
18.8414927,1.318359375
18.8534344,1.3818359375
18.8692875,1.4306640625
18.9198828,1.4794921875
18.9201688,1.5087890625
18.9314519,1.5234375
18.9821829,1.513671875
18.9823985,1.4990234375
18.9912474,1.474609375
19.026511,1.4453125
19.0474566,1.42578125
19.0477556,1.4013671875
19.0904986,1.376953125
19.0907748,1.34765625
19.1205617,1.3232421875
19.1321078,1.2890625
19.1518164,1.259765625
19.1882722,1.2255859375
19.2145303,1.201171875
19.2148877,1.171875
19.2314003,1.162109375
19.266539,1.1474609375
19.2690018,1.1279296875
19.3038649,1.1181640625
19.3242406,1.103515625
19.3308888,1.083984375
19.3673182,1.0693359375
19.3983822,1.0595703125
19.3987697,1.0400390625
19.413843,1.005859375
19.4310741,0.9765625
19.449864,1.005859375
19.4869123,1.0546875
19.4918909,1.1328125
19.5371913,1.2060546875
19.5375074,1.2890625
19.557042,1.357421875
19.5716871,1.42578125
19.6063255,1.4794921875
19.6085288,1.5283203125
19.6449006,1.5576171875
19.6662357,1.5673828125
19.6729414,1.5625
19.6960491,1.5380859375
19.7130234,1.5087890625
19.7547349,1.4794921875
19.7549982,1.455078125
19.7706104,1.4208984375
19.8077042,1.396484375
19.8120018,1.3623046875
19.8488907,1.3330078125
19.853248,1.298828125
19.8743244,1.2646484375
19.9094111,1.23046875
19.9142631,1.1962890625
19.9294075,1.1669921875
19.964497,1.1474609375
19.9849308,1.123046875
19.9895497,1.103515625
20.0241283,1.0888671875
20.0457377,1.064453125
20.0524839,1.044921875
20.0983416,1.025390625
20.0985923,1.005859375
20.1100936,0.986328125
20.1588768,0.9765625
20.1594416,0.9619140625
20.170009,0.9765625
20.2054087,1.0107421875
20.2251912,1.0791015625
20.2322577,1.1474609375
20.2692224,1.240234375
20.2879295,1.30859375
20.2933106,1.357421875
20.3286837,1.42578125
20.3480109,1.46484375
20.350474,1.5087890625
20.3846264,1.5234375
20.4075246,1.5234375
20.4174437,1.4990234375
20.4336353,1.484375
20.4795176,1.455078125
20.4797889,1.435546875
20.4917608,1.40625
20.5281684,1.38671875
20.5309005,1.357421875
20.56564,1.3330078125
20.5883017,1.3037109375
20.5930125,1.26953125
20.6283756,1.2353515625
20.6329555,1.2109375
20.6666929,1.1865234375
20.6929269,1.162109375
20.6933407,1.142578125
20.7286693,1.123046875
20.7330261,1.1083984375
20.7853775,1.09375
20.7856142,1.0791015625
20.7954738,1.064453125
20.8308782,1.0498046875
20.8312045,1.025390625
20.8792052,1.0205078125
20.879538,1.0107421875
20.9007085,1.0302734375
20.9133789,1.0693359375
20.9324162,1.1376953125
20.9830022,1.2158203125
20.9832641,1.2744140625
20.9949669,1.3330078125
21.0113605,1.3818359375
21.0470295,1.4306640625
21.0797734,1.4599609375
21.0800903,1.4794921875
21.093211,1.474609375
21.1285616,1.4599609375
21.1326652,1.4306640625
21.1658194,1.4111328125
21.1862108,1.38671875
21.1944833,1.3671875
21.213363,1.337890625
21.2325892,1.3134765625
21.2688691,1.2841796875
21.2730687,1.2646484375
21.3128628,1.240234375
21.3130672,1.2158203125
21.332427,1.1865234375
21.3721837,1.162109375
21.3775238,1.1376953125
21.391181,1.11328125
21.433378,1.103515625
21.43369,1.0888671875
21.4573965,1.07421875
21.4742217,1.0595703125
21.5127216,1.0400390625
21.512922,1.0205078125
21.5500139,1.0107421875
21.5796228,0.99609375
21.5800353,0.99609375
21.5916434,1.0205078125
21.6275657,1.064453125
21.6580369,1.1328125
21.6582815,1.201171875
21.6744308,1.2744140625
21.7073617,1.3330078125
21.727976,1.38671875
21.7307705,1.42578125
21.7685382,1.4697265625
21.7888358,1.494140625
21.7935526,1.50390625
21.8285448,1.4892578125
21.8337331,1.46484375
21.876632,1.4404296875
21.8768342,1.416015625
21.8910889,1.38671875
21.9381952,1.3671875
21.9386265,1.3134765625
21.953489,1.2646484375
21.9738184,1.25
21.9948447,1.23046875
22.0291746,1.2109375
22.0338993,1.1865234375
22.0680208,1.162109375
22.0878968,1.1376953125
22.0950895,1.1181640625
22.1282079,1.0986328125
22.1335233,1.0888671875
22.1518801,1.07421875
22.188236,1.0595703125
22.2092326,1.044921875
22.2137291,1.0302734375
22.2640506,1.0205078125
22.2643616,1.0009765625
22.2885271,0.9912109375
22.2929814,0.9912109375
22.3346471,1.025390625
22.3353975,1.07421875
22.3549885,1.1474609375
22.4031245,1.2158203125
22.4035161,1.2890625
22.4156051,1.3427734375
22.4518865,1.4013671875
22.4802364,1.435546875
22.4804419,1.474609375
22.4933803,1.494140625
22.5300513,1.4990234375
22.5349201,1.4794921875
22.5810129,1.4599609375
22.5812197,1.435546875
22.5970227,1.40625
22.6406102,1.3818359375
22.6409509,1.357421875
22.6522719,1.337890625
22.6879744,1.3134765625
22.7086728,1.2841796875
22.7134174,1.259765625
22.7478728,1.23046875
22.7692634,1.201171875
22.7782896,1.1767578125
22.7981596,1.1572265625
22.8447723,1.11328125
22.844983,1.0986328125
22.8531695,1.0888671875
22.89207,1.083984375
22.9219512,1.0693359375
22.9222368,1.0595703125
22.9354121,1.044921875
22.9702402,1.0302734375
22.9932133,1.0107421875
22.9977136,0.99609375
23.0145392,0.986328125
23.0338297,1.0107421875
23.0709211,1.0498046875
23.075329,1.123046875
23.0971069,1.1865234375
23.1376135,1.259765625
23.1378266,1.3134765625
23.1715006,1.3671875
23.1735018,1.4013671875
23.2083677,1.4453125
23.2296894,1.46484375
23.2370397,1.46484375
23.2732733,1.455078125
23.2736088,1.435546875
23.308927,1.416015625
23.33031,1.396484375
23.3357733,1.3818359375
23.353237,1.357421875
23.392315,1.337890625
23.3926001,1.318359375
23.4314212,1.2939453125
23.4361263,1.2646484375
23.4723495,1.2451171875
23.4770578,1.2158203125
23.5129338,1.19140625
23.5171418,1.171875
23.5322027,1.1474609375
23.566081,1.1328125
23.5867916,1.1181640625
23.5949598,1.103515625
23.6307001,1.0888671875
23.6516162,1.07421875
23.6580078,1.0546875
23.707304,1.0400390625
23.707504,1.025390625
23.7181154,1.0107421875
23.7363976,1.005859375
23.7554758,1.0302734375
23.7914207,1.0791015625
23.7957987,1.1474609375
23.8312007,1.2109375
23.8583315,1.2841796875
23.8585322,1.3427734375
23.8949344,1.3818359375
23.9005649,1.4208984375
23.915012,1.4404296875
23.950655,1.455078125
23.9843713,1.4501953125
23.9845747,1.435546875
23.9980759,1.4111328125
24.0434753,1.396484375
24.0438229,1.3720703125
24.058016,1.357421875
24.0747714,1.3330078125
24.1101588,1.318359375
24.1149856,1.2939453125
24.1514568,1.2744140625
24.1724944,1.25
24.1766742,1.220703125
24.2154103,1.1962890625
24.2357117,1.1669921875
24.2384613,1.1474609375
24.2548152,1.123046875
24.2938508,1.1083984375
24.32309,1.09375
24.3233677,1.083984375
24.3352206,1.064453125
24.36837,1.0595703125
24.3887732,1.0400390625
24.3975865,1.03515625
24.4147437,1.0205078125
24.4652443,1.0205078125
24.4654557,0.99609375
24.4757444,1.0498046875
24.5269726,1.123046875
24.5272033,1.1962890625
24.5382167,1.2744140625
24.5578053,1.337890625
24.6013429,1.3916015625
24.6015412,1.4404296875
24.6355151,1.4794921875
24.6357914,1.50390625
24.6799658,1.5185546875
24.6802441,1.5087890625
24.6968581,1.494140625
24.7331475,1.474609375
24.740167,1.4599609375
24.7888647,1.435546875
24.7891052,1.4111328125
24.797015,1.38671875
24.8164858,1.357421875
24.8665073,1.3330078125
24.8667031,1.30859375
24.8777709,1.2841796875
24.9287401,1.259765625
24.9290648,1.23046875
24.9409837,1.201171875
24.9599578,1.181640625
24.9771609,1.15234375
24.9965259,1.142578125
25.03403,1.1181640625
25.0360974,1.103515625
25.0720328,1.083984375
25.0981312,1.0693359375
25.098366,1.044921875
25.1327258,1.03515625
25.1611193,1.025390625
25.1613796,1.015625
25.1765676,1.0302734375
25.2240944,1.07421875
25.2243945,1.1376953125
25.2373442,1.2060546875
25.2877524,1.2744140625
25.2879489,1.3330078125
25.2990469,1.38671875
25.3493405,1.4306640625
25.3496481,1.474609375
25.3543843,1.4990234375
25.3968437,1.5185546875
25.4169732,1.513671875
25.4172334,1.50390625
25.46052,1.4892578125
25.4608596,1.4697265625
25.5072433,1.4453125
25.5074427,1.4208984375
25.520575,1.396484375
25.5363939,1.3671875
25.5722339,1.3427734375
25.5996282,1.3134765625
25.5999892,1.2890625
25.6345491,1.259765625
25.6383723,1.2353515625
25.6736537,1.2060546875
25.6990165,1.1865234375
25.6993371,1.162109375
25.7173676,1.1474609375
25.7382634,1.123046875
25.7757136,1.1083984375
25.7759811,1.09375
25.8216927,1.07421875
25.8219379,1.0546875
25.842877,1.03515625
25.861061,1.0205078125
25.8774346,1.005859375
25.8979465,1.025390625
25.9344364,1.0595703125
25.9391867,1.1279296875
25.9814988,1.19140625
25.9818203,1.2548828125
26.0007565,1.298828125
26.0198806,1.34765625
26.0360632,1.3720703125
26.0585787,1.40625
26.0944411,1.42578125
26.0990537,1.42578125
26.1352802,1.416015625
26.1394571,1.396484375
26.1852786,1.3818359375
26.1854781,1.3671875
26.2006063,1.3525390625
26.245912,1.328125
26.2461226,1.30859375
26.2587843,1.279296875
26.3057423,1.259765625
26.3060373,1.23046875
26.3205975,1.2109375
26.3394774,1.1865234375
26.360794,1.162109375
26.3969519,1.142578125
26.428905,1.1328125
26.4291075,1.123046875
26.4383084,1.103515625
26.4586288,1.09375
26.4792897,1.083984375
26.5153663,1.07421875
26.5194785,1.0546875
26.5536122,1.044921875
26.5749812,1.025390625
26.5811835,1.0205078125
26.5969334,1.015625
26.6396782,1.0498046875
26.6399025,1.103515625
26.66999,1.181640625
26.6809168,1.240234375
26.7304284,1.3037109375
26.7306965,1.3525390625
26.7398284,1.38671875
26.7769476,1.416015625
26.7772298,1.42578125
26.7995601,1.4306640625
26.840614,1.416015625
26.8408847,1.40625
26.8866807,1.3818359375
26.8869808,1.3720703125
26.9017592,1.3525390625
26.9215394,1.337890625
26.9412362,1.318359375
26.9614488,1.2744140625
26.9807557,1.2353515625
26.9997451,1.2353515625
27.0348967,1.2158203125
27.0391018,1.2060546875
27.074301,1.19140625
27.1069428,1.1767578125
27.1072571,1.1572265625
27.1231614,1.142578125
27.1680699,1.1279296875
27.1682855,1.11328125
27.1790886,1.103515625
27.2018295,1.0888671875
27.221299,1.0791015625
27.2418378,1.064453125
27.2610418,1.0546875
27.3050091,1.0400390625
27.3052082,1.0498046875
27.3177633,1.07421875
27.3551295,1.1376953125
27.3595229,1.220703125
27.3932136,1.2890625
27.4309623,1.357421875
27.4314533,1.4111328125
27.440349,1.46484375
27.4754247,1.4990234375
27.4964268,1.5283203125
27.498186,1.533203125
27.5349212,1.533203125
27.5401761,1.5185546875
27.5787807,1.50390625
27.5790026,1.4794921875
27.6170966,1.46484375
27.6219004,1.435546875
27.6577515,1.416015625
27.6805417,1.38671875
27.6807538,1.3671875
27.7262069,1.34765625
27.7264089,1.3232421875
27.7396294,1.2939453125
27.7788645,1.2646484375
27.8001384,1.2353515625
27.800348,1.2158203125
27.8411363,1.19140625
27.8413799,1.1669921875
27.8636966,1.1474609375
27.8780941,1.1279296875
27.9279854,1.1083984375
27.9282017,1.09375
27.9405878,1.0791015625
27.9773678,1.064453125
27.9978944,1.0498046875
28.0025131,1.0546875
28.022789,1.07421875
28.0680077,1.1279296875
28.0682654,1.19140625
28.0809977,1.26953125
28.1169699,1.328125
28.1211642,1.3916015625
28.1701271,1.4306640625
28.1703289,1.4697265625
28.1958138,1.4501953125
28.2023089,1.42578125
28.2193632,1.38671875
28.2405235,1.3623046875
28.2886197,1.3330078125
28.2888172,1.3134765625
28.3007319,1.2890625
28.3512987,1.2744140625
28.3515499,1.2548828125
28.3627085,1.23046875
28.3969079,1.2060546875
28.4179665,1.181640625
28.4208115,1.162109375
28.4553856,1.142578125
28.46002,1.1328125
28.4952356,1.1181640625
28.5232289,1.1083984375
28.523519,1.09375
28.557567,1.1376953125
28.5859297,1.15234375
28.5862075,1.171875
28.5995119,1.1669921875
28.6363182,1.1669921875
28.6654168,1.1572265625
28.6656743,1.142578125
28.682306,1.1328125
28.7032958,1.142578125
28.7467038,1.1767578125
28.7468987,1.2255859375
28.7815196,1.2939453125
28.7817223,1.34765625
28.8255844,1.4111328125
28.8259284,1.455078125
28.8434343,1.494140625
28.8862886,1.5185546875
28.8864888,1.533203125
28.9041675,1.5283203125
28.9392045,1.5087890625
28.9395884,1.4794921875
28.9741698,1.4697265625
28.9955348,1.455078125
29.002055,1.435546875
29.0365562,1.416015625
29.0575082,1.3916015625
29.0628675,1.3671875
29.0980433,1.337890625
29.1237759,1.30859375
29.1241429,1.279296875
29.1397981,1.2548828125
29.1752085,1.23046875
29.1947896,1.2109375
29.2017895,1.19140625
29.2362444,1.181640625
29.2570583,1.1572265625
29.2637731,1.142578125
29.314587,1.123046875
29.314917,1.0986328125
29.3466338,1.0888671875
29.3469315,1.07421875
29.3628014,1.07421875
29.4090635,1.083984375
29.4092649,1.1328125
29.4228771,1.1865234375
29.4716914,1.259765625
29.472472,1.3134765625
29.4847471,1.3525390625
29.5010775,1.376953125
29.5497737,1.4306640625
29.5500352,1.4599609375
29.5631719,1.474609375
29.5831132,1.46484375
29.6266385,1.455078125
29.6268418,1.435546875
29.6472959,1.416015625
29.6636545,1.4013671875
29.6990518,1.3818359375
29.7033859,1.3623046875
29.7512434,1.3427734375
29.7514396,1.3232421875
29.7638701,1.298828125
29.7980116,1.26953125
29.8190012,1.2451171875
29.8240951,1.220703125
29.8426617,1.19140625
29.862114,1.181640625
29.9069839,1.162109375
29.9072005,1.1474609375
29.9227837,1.1376953125
29.9702177,1.1181640625
29.97051,1.103515625
30.0007051,1.083984375
30.0060694,1.07421875
30.0209969,1.0595703125
30.0617674,1.0693359375
30.0619889,1.103515625
30.1079089,1.1767578125
30.1081863,1.240234375
30.1228582,1.318359375
30.1563641,1.376953125
30.177498,1.435546875
30.1822233,1.4794921875
30.2352679,1.5234375
30.235564,1.5478515625
30.2441617,1.5625
30.2876472,1.552734375
30.2878589,1.5283203125
30.3030015,1.50390625
30.3421964,1.4794921875
30.3460156,1.455078125
30.3822018,1.42578125
30.3863308,1.4013671875
30.4029482,1.3720703125
30.4460504,1.34765625
30.4463621,1.3134765625
30.4643391,1.2841796875
30.5083347,1.2548828125
30.5088648,1.2353515625
30.5270789,1.2109375
30.56815,1.1865234375
30.5684359,1.171875
30.5834924,1.142578125
30.6176637,1.123046875
30.6377258,1.103515625
30.6453476,1.0888671875
30.6811185,1.0693359375
30.6860169,1.0546875
30.706717,1.044921875
30.7408997,1.0595703125
30.7411999,1.09375
30.7735539,1.171875
30.7951804,1.240234375
30.8045459,1.3134765625
30.8480406,1.3720703125
30.8483021,1.42578125
30.8663931,1.46484375
30.9027717,1.4990234375
30.9082181,1.513671875
30.9243642,1.5087890625
30.971876,1.494140625
30.9721934,1.474609375
30.9857975,1.455078125
31.0050651,1.4306640625
31.0476367,1.416015625
31.0479801,1.3916015625
31.0686101,1.3671875
31.08204,1.337890625
31.1259132,1.3134765625
31.1262278,1.2841796875
31.1608039,1.259765625
31.1658593,1.23046875
31.1845844,1.2109375
31.2207887,1.19140625
31.2514216,1.1669921875
31.2516416,1.142578125
31.2704481,1.1181640625
31.2888871,1.103515625
31.3043459,1.0791015625
31.3264271,1.064453125
31.3445686,1.0498046875
31.3802415,1.0400390625
31.4025697,1.03515625
31.4065665,1.07421875
31.4432565,1.1279296875
31.4475147,1.201171875
31.4629894,1.2646484375
31.5048134,1.328125
31.5050303,1.376953125
31.5415491,1.4404296875
31.546146,1.484375
31.5834961,1.4990234375
31.5838251,1.50390625
31.6293364,1.484375
31.6295459,1.46484375
31.650152,1.435546875
31.6628991,1.4208984375
31.6990086,1.4013671875
31.7191214,1.3818359375
31.7268811,1.357421875
31.770059,1.3330078125
31.7702721,1.298828125
31.7867663,1.2744140625
31.8028864,1.240234375
31.837146,1.220703125
31.8574966,1.1962890625
31.8640854,1.1767578125
31.8981333,1.15234375
31.9235062,1.1328125
31.9257379,1.11328125
31.9718319,1.09375
31.9721038,1.07421875
31.9878268,1.0546875
32.0091274,1.015625
32.025273,0.986328125
32.0634346,1.0205078125
32.0662178,1.0693359375
32.0997501,1.1474609375
32.1203463,1.2255859375
32.127635,1.298828125
32.1638981,1.357421875
32.1660499,1.4208984375
32.2035841,1.46484375
32.2334682,1.4892578125
32.2337167,1.5087890625
32.2438798,1.50390625
32.2797669,1.4892578125
32.304169,1.4697265625
32.3063841,1.4501953125
32.3522777,1.4306640625
32.3524826,1.40625
32.3828637,1.3818359375
32.3832387,1.357421875
32.42839,1.3330078125
32.4287112,1.30859375
32.4589909,1.279296875
32.4657131,1.25
32.5014431,1.2255859375
32.5221587,1.1962890625
32.5275864,1.171875
32.5429874,1.15234375
32.5800863,1.1474609375
32.6008485,1.123046875
32.6073855,1.1181640625
32.6460378,1.0986328125
32.64646,1.0888671875
32.6950641,1.0693359375
32.6953463,1.07421875
32.7257406,1.0888671875
32.7260568,1.15234375
32.7725346,1.2255859375
32.7728694,1.30859375
32.7863325,1.376953125
32.8062569,1.4501953125
32.8484974,1.5087890625
32.8488745,1.552734375
32.8830126,1.5869140625
32.8883019,1.5966796875
32.9259151,1.5869140625
32.9261277,1.5625
32.971943,1.54296875
32.9722196,1.5185546875
32.9861937,1.4892578125
33.0353215,1.46484375
33.0355361,1.4306640625
33.055043,1.4013671875
33.0684804,1.3720703125
33.102908,1.337890625
33.1031341,1.30859375
33.1416637,1.279296875
33.1720497,1.25
33.1723687,1.220703125
33.1872921,1.19140625
33.2236887,1.171875
33.228308,1.142578125
33.264975,1.1181640625
33.2652851,1.09375
33.2980992,1.0791015625
33.3069836,1.064453125
33.3264455,1.0546875
33.3483692,1.044921875
33.3891612,1.064453125
33.3893638,1.11328125
33.4235893,1.1865234375
33.4238691,1.259765625
33.4584042,1.34765625
33.4798627,1.42578125
33.4869633,1.4794921875
33.5234764,1.5283203125
33.5267418,1.5625
33.5631117,1.5771484375
33.5921321,1.572265625
33.592475,1.5576171875
33.6055898,1.5283203125
33.6437356,1.50390625
33.6440739,1.474609375
33.6844424,1.4501953125
33.7051483,1.416015625
33.7075041,1.38671875
33.7434422,1.3525390625
33.7476581,1.318359375
33.7832585,1.2841796875
33.8104506,1.2451171875
33.8108727,1.2109375
33.8264719,1.1767578125
33.8723672,1.1572265625
33.8729641,1.1328125
33.8898074,1.11328125
33.9085446,1.0888671875
33.9500106,1.0693359375
33.9502153,1.0498046875
33.9850901,1.03515625
34.01447,1.015625
34.0147807,1.0107421875
34.0276962,1.015625
34.0757236,1.0546875
34.0759294,1.1181640625
34.0887566,1.2060546875
34.123269,1.2939453125
34.144144,1.357421875
34.1487996,1.4208984375
34.1840941,1.4697265625
34.1843555,1.513671875
34.2299765,1.5380859375
34.2303288,1.54296875
34.2514622,1.5234375
34.2714804,1.50390625
34.2912097,1.4697265625
34.3093558,1.4453125
34.3267223,1.416015625
34.3682414,1.396484375
34.3684577,1.3671875
34.3878231,1.337890625
34.4322333,1.30859375
34.4325675,1.2744140625
34.4493634,1.240234375
34.4938592,1.2060546875
34.4942334,1.1767578125
34.5095786,1.15234375
34.5431387,1.0986328125
34.5640404,1.0791015625
34.5679239,1.0693359375
34.6055144,1.0546875
34.6105802,1.0498046875
34.6297496,1.03515625
34.666748,1.025390625
34.6693194,1.005859375
34.703178,0.99609375
34.7235351,0.99609375
34.7276056,1.0546875
34.7627018,1.1376953125
34.7850008,1.220703125
34.7873455,1.3037109375
34.8326981,1.3720703125
34.8329775,1.435546875
34.8537514,1.484375
34.8722826,1.5234375
34.8893404,1.5380859375
34.9076211,1.54296875
34.9575228,1.5234375
34.9578764,1.494140625
34.9691506,1.4697265625
35.004449,1.4453125
35.024895,1.416015625
35.0299457,1.38671875
35.0669732,1.357421875
35.0671862,1.3232421875
35.1121102,1.2939453125
35.1123367,1.259765625
35.1426252,1.2353515625
35.1499567,1.2060546875
35.1863104,1.1767578125
35.1908875,1.15234375
35.2254322,1.1279296875
35.2465749,1.103515625
35.2468611,1.0888671875
35.2974795,1.064453125
35.2978074,1.044921875
35.3167758,1.025390625
35.328444,1.005859375
35.3646814,0.9912109375
35.3895967,0.9912109375
35.3898092,1.0205078125
35.4275755,1.0791015625
35.4539097,1.1572265625
35.4541886,1.23046875
35.4685394,1.30859375
35.515391,1.3720703125
35.5156469,1.4306640625
35.5311624,1.4697265625
35.5502747,1.494140625
35.5930813,1.494140625
35.5936486,1.4794921875
35.6232806,1.455078125
35.6300197,1.4404296875
35.6491166,1.4208984375
35.6700651,1.4013671875
35.7047735,1.38671875
35.7090799,1.357421875
35.7446069,1.328125
35.7779487,1.2890625
35.7783858,1.259765625
35.7905174,1.2255859375
35.8095209,1.201171875
35.8452016,1.171875
35.8493224,1.1474609375
35.8823926,1.123046875
35.9028802,1.103515625
35.9114945,1.0791015625
35.9331322,1.0595703125
35.9476811,1.0400390625
35.9958986,1.025390625
35.9961308,1.0107421875
36.0097876,1.0009765625
36.0452237,0.99609375
36.0504074,1.0009765625
36.0889852,1.044921875
36.0892974,1.11328125
36.1359042,1.2060546875
36.1361227,1.2890625
36.1697254,1.376953125
36.170037,1.416015625
36.1902881,1.484375
36.2102367,1.5380859375
36.2610739,1.572265625
36.2612848,1.5869140625
36.2716757,1.5771484375
36.3219762,1.5478515625
36.3222358,1.5185546875
36.332288,1.4892578125
36.3489386,1.455078125
36.384248,1.42578125
36.4062125,1.396484375
36.4111987,1.3623046875
36.4326203,1.328125
36.4682561,1.2890625
36.4708593,1.2548828125
36.5069045,1.2158203125
36.5260598,1.181640625
36.5301239,1.1572265625
36.565348,1.1328125
36.570404,1.11328125
36.6037687,1.0888671875
36.6256843,1.064453125
36.6327692,1.0400390625
36.6722998,1.03515625
36.6726851,1.0205078125
36.6889908,1.005859375
36.7236876,0.99609375
36.7517531,1.0009765625
36.7520613,1.03515625
36.7716157,1.0986328125
36.8148402,1.181640625
36.8150868,1.259765625
36.8440623,1.337890625
36.8508779,1.4013671875
36.8701586,1.46484375
36.8903576,1.5087890625
36.9087078,1.54296875
36.9429964,1.552734375
36.9644756,1.54296875
36.971549,1.513671875
37.0065707,1.4794921875
37.0316004,1.4453125
37.0319181,1.4111328125
37.0776106,1.3623046875
37.0779581,1.337890625
37.1069375,1.3134765625
37.1116955,1.2841796875
37.1467828,1.259765625
37.1702362,1.2255859375
37.1706929,1.1962890625
37.2144705,1.1669921875
37.2146721,1.1376953125
37.2348674,1.11328125
37.2506288,1.09375
37.2852822,1.0693359375
37.3059109,1.0546875
37.3135853,1.03515625
37.3328647,1.0205078125
37.3706097,0.99609375
37.3710646,0.9765625
37.4088458,0.9619140625
37.4400376,0.9521484375
37.4402582,0.9765625
37.4509457,1.03515625
37.4918118,1.11328125
37.4920119,1.1962890625
37.5277995,1.2744140625
37.5529222,1.3427734375
37.5532582,1.40625
37.5698118,1.4501953125
37.6043714,1.4892578125
37.6306386,1.5185546875
37.6308394,1.5087890625
37.6675608,1.4892578125
37.6720715,1.4599609375
37.7092712,1.4404296875
37.7117303,1.416015625
37.7490854,1.3916015625
37.7723297,1.3623046875
37.7726564,1.337890625
37.8060721,1.30859375
37.8111407,1.279296875
37.8507434,1.25
37.8814893,1.220703125
37.8817686,1.1865234375
37.8947985,1.162109375
37.941492,1.1279296875
37.9417079,1.1083984375
37.954909,1.0888671875
37.9706311,1.064453125
38.0080812,1.0498046875
38.0124278,1.0302734375
38.0334943,1.015625
38.0687983,0.99609375
38.0745022,0.986328125
38.1118949,0.9716796875
38.1122418,0.9716796875
38.147852,0.99609375
38.1521646,1.0595703125
38.192605,1.1376953125
38.1928991,1.2255859375
38.2140725,1.2939453125
38.2537711,1.357421875
38.2539828,1.416015625
38.2892546,1.4501953125
38.3180802,1.4794921875
38.3182786,1.484375
38.3331551,1.4794921875
38.3680553,1.455078125
38.3726843,1.435546875
38.4079079,1.4111328125
38.4430567,1.396484375
38.4433874,1.3720703125
38.4546162,1.34765625
38.4723789,1.3232421875
38.5068437,1.298828125
38.5110396,1.2744140625
38.5455177,1.2451171875
38.5671303,1.2109375
38.5747629,1.1865234375
38.6118591,1.1669921875
38.6124063,1.1376953125
38.6491407,1.1181640625
38.669717,1.0888671875
38.6758824,1.0693359375
38.6915423,0.986328125
38.7264613,0.9423828125
38.7470859,0.908203125
38.7535898,0.8837890625
38.7892915,0.859375
38.8137276,0.8544921875
38.8140032,0.8642578125
38.8576474,0.9228515625
38.8578642,0.99609375
38.8724381,1.0888671875
38.8937675,1.1767578125
38.9365285,1.2451171875
38.9367667,1.30859375
38.9548008,1.34765625
38.9913493,1.38671875
38.9933609,1.4013671875
39.045511,1.4013671875
39.0457993,1.3818359375
39.0659281,1.4208984375
39.0732449,1.435546875
39.1101747,1.4453125
39.1129872,1.4404296875
39.151012,1.4306640625
39.1554877,1.40625
39.1925635,1.3818359375
39.1927685,1.34765625
39.2334753,1.328125
39.2337587,1.3037109375
39.2717558,1.2744140625
39.289078,1.2451171875
39.2954673,1.220703125
39.3152848,1.1962890625
39.3519343,1.171875
39.3541455,1.15234375
39.3709791,1.1328125
39.4081214,1.1181640625
39.4133031,1.0986328125
39.4471706,1.0791015625
39.4678854,1.064453125
39.4747884,1.0498046875
39.4958562,1.044921875
39.5316253,1.0693359375
39.5547101,1.1279296875
39.555012,1.1962890625
39.6002257,1.2744140625
39.6004958,1.3427734375
39.6215051,1.4208984375
39.6343822,1.4794921875
39.6550112,1.5283203125
39.693635,1.5576171875
39.6958322,1.5771484375
39.7309967,1.5771484375
39.7552349,1.5625
39.7555739,1.533203125
39.790264,1.513671875
39.7943772,1.4892578125
39.8332753,1.46484375
39.8334994,1.4306640625
39.8790597,1.40625
39.8793191,1.376953125
39.9100484,1.2939453125
39.9163737,1.220703125
39.933568,1.162109375
39.9703848,1.1181640625
39.9726625,1.0791015625
40.0112315,1.0498046875
40.0157288,1.0205078125
40.0358554,0.99609375
40.0722126,0.9765625
40.0762959,0.9521484375
40.1095879,0.9375
40.1148915,0.927734375
40.1351502,0.91796875
40.1719292,0.9033203125
40.1771596,0.9033203125
40.194991,0.9033203125
40.2346427,0.947265625
40.2635312,1.015625
40.2637989,1.162109375
40.2725803,1.2646484375
40.2938198,1.3720703125
40.3302111,1.4453125
40.3562003,1.513671875
40.3564485,1.5576171875
40.3923873,1.591796875
40.3970434,1.5966796875
40.4346389,1.5869140625
40.4371643,1.5576171875
40.4713677,1.533203125
40.4931457,1.4990234375
40.4933703,1.4794921875
40.5298913,1.4599609375
40.549577,1.4306640625
40.5553982,1.4013671875
40.5918355,1.3623046875
40.5974824,1.3330078125
40.6178054,1.2939453125
40.6539699,1.2646484375
40.6544929,1.23046875
40.690423,1.2060546875
40.6955086,1.181640625
40.7333487,1.162109375
40.7361521,1.1376953125
40.7721228,1.1279296875
40.8038276,1.1083984375
40.8041483,1.0888671875
40.8195971,1.07421875
40.8347505,1.0498046875
40.8817196,1.0400390625
40.8819224,1.0302734375
40.9107455,1.044921875
40.9147666,1.0791015625
40.9519348,1.1474609375
40.9751671,1.2158203125
40.9754275,1.2890625
41.0218095,1.34765625
41.0220099,1.4111328125
41.0363574,1.4599609375
41.0565879,1.4990234375
41.1053259,1.5185546875
41.1056383,1.5185546875
41.1175954,1.4990234375
41.1384539,1.4794921875
41.1833312,1.455078125
41.1835912,1.42578125
41.2004675,1.3818359375
41.2159789,1.337890625
41.236204,1.3330078125
41.2858638,1.3134765625
41.2860738,1.298828125
41.2972447,1.2744140625
41.3318157,1.2451171875
41.3536038,1.2158203125
41.357882,1.19140625
41.3748219,1.162109375
41.4111562,1.1474609375
41.4144798,1.1279296875
41.44925,1.11328125
41.4729601,1.09375
41.4771241,1.07421875
41.513645,1.0546875
41.5180979,1.03515625
41.5544813,1.0205078125
41.5547009,1.005859375
41.5889047,1.005859375
41.6098164,1.0205078125
41.616241,1.0791015625
41.6554027,1.142578125
41.6559168,1.2158203125
41.6785012,1.279296875
41.7168458,1.337890625
41.7171198,1.376953125
41.7502588,1.416015625
41.7554561,1.435546875
41.7954141,1.4501953125
41.8259746,1.4404296875
41.8263923,1.4208984375
41.8393646,1.396484375
41.8884434,1.376953125
41.8886572,1.3623046875
41.8946885,1.3427734375
41.9288111,1.328125
41.9507856,1.30859375
41.957966,1.2841796875
41.977163,1.2548828125
42.014028,1.2255859375
42.0427993,1.1962890625
42.043003,1.1767578125
42.0583985,1.1474609375
42.093351,1.103515625
42.1147571,1.09375
42.1151042,1.07421875
42.1526097,1.064453125
42.1838383,1.0546875
42.1840969,1.0498046875
42.1969831,1.0302734375
42.2321187,1.0205078125
42.2551451,1.0107421875
42.2602743,1.015625
42.2769322,1.0400390625
42.2969377,1.1083984375
42.3413353,1.181640625
42.3416461,1.2646484375
42.3714077,1.328125
42.3777441,1.3916015625
42.4123751,1.435546875
42.4326722,1.4794921875
42.4395848,1.5087890625
42.4566768,1.5087890625
42.4954258,1.4990234375
42.495778,1.4794921875
42.5423673,1.455078125
42.5427096,1.4306640625
42.5638947,1.4111328125
42.5798401,1.38671875
42.5993992,1.3623046875
42.6170708,1.337890625
42.6573008,1.3134765625
42.6577872,1.2841796875
42.6767416,1.259765625
42.6968587,1.23046875
42.7344726,1.2060546875
42.7397734,1.181640625
42.7883582,1.1572265625
42.7885554,1.1376953125
42.7949967,1.123046875
42.8310872,1.11328125
42.8357242,1.0986328125
42.8700854,1.0888671875
42.8982562,1.0693359375
42.8985415,1.0595703125
42.9343272,1.0400390625
42.9390152,1.03515625
42.972319,1.044921875
42.9930735,1.09375
42.9955731,1.1572265625
43.0316369,1.240234375
43.0519242,1.30859375
43.0568279,1.3818359375
43.091106,1.4453125
43.1136316,1.4892578125
43.1204659,1.5234375
43.1556071,1.54296875
43.1604609,1.54296875
43.1771277,1.5283203125
43.2219752,1.5087890625
43.2222706,1.4892578125
43.2413767,1.46484375
43.2584944,1.435546875
43.2989167,1.4111328125
43.2991475,1.376953125
43.3208277,1.3525390625
43.3362872,1.3232421875
43.3789799,1.2939453125
43.3792484,1.2646484375
43.4097409,1.2353515625
43.4186562,1.2109375
43.4539283,1.181640625
43.4587543,1.162109375
43.501068,1.1376953125
43.5012696,1.11328125
43.5180455,1.09375
43.5372625,1.0791015625
43.5722426,1.0595703125
43.5925183,1.0498046875
43.5996605,1.0302734375
43.6191087,1.015625
43.6682142,1.005859375
43.6687573,1.0205078125
43.6894216,1.0595703125
43.7013777,1.1328125
43.7213488,1.19140625
43.7561311,1.240234375
43.7564455,1.328125
43.7930738,1.38671875
43.8143217,1.4453125
43.8221409,1.4892578125
43.84028,1.513671875
43.8769061,1.5185546875
43.8809514,1.50390625
43.91572,1.4794921875
43.9161472,1.4599609375
43.9640076,1.4306640625
43.9642139,1.4111328125
43.9842185,1.3818359375
44.0013263,1.3525390625
44.0470099,1.328125
44.0473535,1.2939453125
44.060905,1.259765625
44.0772546,1.2255859375
44.1252685,1.201171875
44.1256073,1.1767578125
44.1480791,1.15234375
44.1593033,1.1279296875
44.1955405,1.1083984375
44.2003197,1.083984375
44.235321,1.07421875
44.2648021,1.0498046875
44.2650464,1.0400390625
44.2787589,1.025390625
44.3263239,1.015625
44.3265689,1.0009765625
44.3411884,1.0009765625
44.3625728,1.0205078125
44.380589,1.064453125
44.4208812,1.1328125
44.4210967,1.2060546875
44.4376965,1.279296875
44.4844129,1.3427734375
44.4849056,1.4013671875
44.4995174,1.4453125
44.5454236,1.4794921875
44.5456423,1.4892578125
44.5662301,1.484375
44.5823066,1.46484375
44.6183555,1.4453125
44.6186426,1.4208984375
44.639667,1.40625
44.6754739,1.3916015625
44.6999671,1.3671875
44.7002528,1.3427734375
44.7357863,1.3134765625
44.76399,1.2841796875
44.7641906,1.2548828125
44.783309,1.2255859375
44.7999225,1.1962890625
44.8347676,1.1767578125
44.8398083,1.1572265625
44.8743858,1.1474609375
44.8941008,1.1328125
44.9016257,1.123046875
44.9517479,1.103515625
44.9520214,1.0888671875
44.9582156,1.064453125
44.9992276,1.0595703125
44.9995285,1.044921875
45.0290357,1.03515625
45.0410532,1.03515625
45.0822146,1.0595703125
45.0825819,1.1083984375
45.1170824,1.1767578125
45.122079,1.2451171875
45.1376347,1.30859375
45.1742352,1.3671875
45.1952351,1.4111328125
45.2004138,1.4453125
45.2217395,1.46484375
45.2698167,1.4697265625
45.2700271,1.4501953125
45.30131,1.4306640625
45.3015174,1.4208984375
45.3187955,1.4013671875
45.3635329,1.38671875
45.3640339,1.3671875
45.3851157,1.34765625
45.4008617,1.3232421875
45.4427297,1.298828125
45.4429951,1.26953125
45.4777256,1.240234375
45.5039662,1.2109375
45.5042369,1.19140625
45.5201659,1.162109375
45.5680102,1.1474609375
45.5683737,1.1328125
45.5822227,1.11328125
45.6297897,1.09375
45.63007,1.083984375
45.6419366,1.0693359375
45.6754948,1.0498046875
45.6960361,1.03515625
45.6991565,1.0302734375
45.7373231,1.044921875
45.7419563,1.083984375
45.7626508,1.1572265625
45.8000454,1.2255859375
45.8003326,1.298828125
45.8446011,1.3525390625
45.8448138,1.40625
45.8651451,1.4404296875
45.879818,1.484375
45.9141902,1.50390625
45.9355197,1.50390625
45.9399245,1.494140625
45.9840523,1.474609375
45.9842657,1.4501953125
46.005075,1.4306640625
46.0229028,1.4111328125
46.0398321,1.38671875
46.0924545,1.3671875
46.0926616,1.337890625
46.100836,1.3134765625
46.1377266,1.2841796875
46.1418282,1.259765625
46.1757322,1.23046875
46.1981743,1.2060546875
46.2044742,1.181640625
46.2268463,1.1376953125
46.2410052,1.103515625
46.2874287,1.1083984375
46.287678,1.103515625
46.3016187,1.09375
46.3366076,1.083984375
46.3663669,1.0693359375
46.3665824,1.0595703125
46.3839194,1.0546875
46.417153,1.0791015625
46.4382346,1.123046875
46.4408807,1.1962890625
46.4902583,1.2744140625
46.4906099,1.34765625
46.5210236,1.40625
46.5212896,1.4697265625
46.5580426,1.513671875
46.5787461,1.5478515625
46.5866261,1.5673828125
46.6009499,1.5576171875
46.6436456,1.54296875
46.64393,1.5185546875
46.6777469,1.4990234375
46.6827079,1.4697265625
46.7179634,1.4453125
46.7376995,1.4111328125
46.7438768,1.3818359375
46.7632287,1.34765625
46.7823894,1.3232421875
46.8166596,1.2890625
46.8211551,1.259765625
46.8593135,1.23046875
46.8808335,1.201171875
46.8812162,1.171875
46.925293,1.162109375
46.9256108,1.1376953125
46.9459507,1.1181640625
46.9610128,1.103515625
46.9947545,1.0888671875
47.0163556,1.0693359375
47.0243627,1.0546875
47.043553,1.0498046875
47.0808617,1.0400390625
47.0826012,1.064453125
47.1160311,1.11328125
47.1381231,1.1767578125
47.1435064,1.2451171875
47.1617473,1.318359375
47.1979518,1.376953125
47.2020001,1.4306640625
47.2348663,1.4794921875
47.2552739,1.50390625
47.2654574,1.5185546875
47.2862122,1.5087890625
47.3319769,1.4892578125
47.3321811,1.4599609375
47.3419488,1.4404296875
47.3735158,1.416015625
47.3964653,1.3916015625
47.4033995,1.3671875
47.438147,1.3427734375
47.4604254,1.30859375
47.46449,1.279296875
47.4813159,1.25
47.5163976,1.220703125
47.5362038,1.1962890625
47.5422001,1.1767578125
47.580697,1.1572265625
47.6002816,1.1328125
47.6042183,1.1083984375
47.638417,1.0888671875
47.6578627,1.0693359375
47.6598717,1.0498046875
47.6919961,1.0400390625
47.7139984,1.025390625
47.722009,1.015625
47.7571384,1.015625
47.7795594,1.0400390625
47.7854052,1.09375
47.8050204,1.1669921875
47.8224492,1.2353515625
47.8589944,1.30859375
47.8617735,1.376953125
47.907277,1.42578125
47.9075872,1.4697265625
47.9247739,1.4990234375
47.9676125,1.513671875
47.9678865,1.4990234375
48.0017458,1.4697265625
48.0045925,1.4453125
48.0380849,1.4208984375
48.0606432,1.3916015625
48.0608541,1.376953125
48.1009699,1.3525390625
48.1058945,1.328125
48.1409956,1.298828125
48.1437257,1.26953125
48.1791864,1.2353515625
48.2001134,1.2109375
48.2071411,1.181640625
48.2230896,1.1572265625
48.2433341,1.1376953125
48.2886026,1.1181640625
48.2888044,1.1083984375
48.304819,1.0888671875
48.3539283,1.0791015625
48.3541301,1.0546875
48.384419,1.0400390625
48.3848325,1.025390625
48.417491,1.0205078125
48.4388869,1.025390625
48.4436125,1.0693359375
48.4783256,1.1279296875
48.5003226,1.201171875
48.5045181,1.279296875
48.539179,1.3330078125
48.5611701,1.38671875
48.5614753,1.4306640625
48.610206,1.4697265625
48.610425,1.4892578125
48.6408678,1.494140625
48.6436906,1.474609375
48.6783904,1.4501953125
48.6987248,1.42578125
48.7055455,1.4111328125
48.7273977,1.38671875
48.7484956,1.3427734375
48.7637695,1.298828125
48.7997233,1.2890625
48.8039257,1.26953125
48.8421618,1.25
48.8633352,1.23046875
48.8635684,1.201171875
48.9064662,1.1767578125
48.9067872,1.15234375
48.9430394,1.1376953125
48.9432903,1.1181640625
48.9861644,1.1083984375
49.0032723,1.0986328125
49.0064002,1.0888671875
49.026224,1.07421875
49.0674228,1.064453125
49.0677078,1.0498046875
49.0871724,1.0546875
49.1032517,1.07421875
49.1397514,1.1376953125
49.1446189,1.2255859375
49.1916953,1.298828125
49.1919112,1.376953125
49.2049631,1.4404296875
49.2400687,1.50390625
49.2605871,1.54296875
49.2668388,1.5771484375
49.2844526,1.58203125
49.3348412,1.58203125
49.3350732,1.5576171875
49.3456957,1.5380859375
49.3812508,1.50390625
49.402145,1.4794921875
49.4048797,1.4453125
49.4438735,1.416015625
49.4441518,1.3818359375
49.4937672,1.357421875
49.4939719,1.328125
49.5045094,1.2939453125
49.5393936,1.259765625
49.5606029,1.23046875
49.5674091,1.1962890625
49.5893493,1.171875
49.6352264,1.1474609375
49.6354206,1.123046875
49.6487756,1.103515625
49.6655766,1.0791015625
49.7013481,1.064453125
49.7063592,1.044921875
49.7450183,1.0302734375
49.7472449,1.015625
49.7843554,1.025390625
49.7873961,1.064453125
49.822101,1.1181640625
49.8428076,1.19140625
49.8447683,1.259765625
49.8798009,1.3427734375
49.9009741,1.396484375
49.9083456,1.455078125
49.9269457,1.4892578125
49.9618506,1.5185546875
49.9819558,1.5185546875
49.9879034,1.5087890625
50.0223234,1.4794921875
50.0244348,1.4599609375
50.059182,1.435546875
50.0802885,1.416015625
50.0851349,1.38671875
50.1195381,1.3671875
50.140474,1.337890625
50.1490878,1.3037109375
50.1939168,1.26953125
50.1941755,1.2353515625
50.2070853,1.2109375
50.2258441,1.1865234375
50.2625435,1.162109375
50.2850949,1.1376953125
50.2855191,1.11328125
50.3325726,1.09375
50.3327906,1.07421875
50.3632852,1.0498046875
50.363589,1.0400390625
50.4121711,1.025390625
50.412372,1.015625
50.4267025,1.005859375
50.463072,1.0107421875
50.4673468,1.0498046875
50.4875504,1.1083984375
50.5367392,1.1865234375
50.5369467,1.2548828125
50.548504,1.3232421875
50.5814603,1.3720703125
50.5869241,1.42578125
50.6229863,1.46484375
50.6276075,1.4892578125
50.6482674,1.484375
50.6919777,1.4697265625
50.692173,1.4453125
50.7105608,1.42578125
50.7249685,1.396484375
50.7595434,1.3818359375
50.7813653,1.3623046875
50.7868219,1.337890625
50.808629,1.30859375
50.8431716,1.279296875
50.848259,1.25
50.8861632,1.220703125
50.8912597,1.19140625
50.906351,1.162109375
50.9565797,1.142578125
50.9567816,1.123046875
50.9698458,1.103515625
50.9878219,1.0888671875
51.0314351,1.0791015625
51.0317773,1.064453125
51.0519125,1.0498046875
51.0687449,1.0400390625
51.1035001,1.0205078125
51.1084879,1.0205078125
51.1286717,1.0302734375
51.1474502,1.083984375
51.1821506,1.1474609375
51.2034383,1.2255859375
51.2093697,1.2939453125
51.2452626,1.3623046875
51.2481162,1.4111328125
51.2820601,1.435546875
51.286177,1.455078125
51.3325183,1.4892578125
51.3327777,1.4990234375
51.3534946,1.4892578125
51.3678654,1.46484375
51.4105182,1.4453125
51.410727,1.42578125
51.4318459,1.396484375
51.4705797,1.3720703125
51.4709308,1.3427734375
51.4878977,1.3134765625
51.5343016,1.2841796875
51.534558,1.259765625
51.5498748,1.23046875
51.5686344,1.201171875
51.6108346,1.171875
51.6110323,1.1474609375
51.6261099,1.123046875
51.6718414,1.11328125
51.6721042,1.0986328125
51.6872147,1.083984375
51.7241433,1.07421875
51.7566647,1.0546875
51.7569092,1.0400390625
51.7713186,1.0205078125
51.8064231,1.0107421875
51.8067048,1.0107421875
51.84309,1.0595703125
51.8701632,1.1181640625
51.8703704,1.201171875
51.9053268,1.2744140625
51.9095706,1.34765625
51.9466941,1.40625
51.9511385,1.4599609375
51.9661742,1.4990234375
52.0026388,1.5283203125
52.007321,1.5380859375
52.0410241,1.5380859375
52.0628096,1.5185546875
52.0704351,1.484375
52.1123327,1.4599609375
52.1125435,1.435546875
52.1288614,1.40625
52.174501,1.3720703125
52.1747615,1.3427734375
52.1874028,1.30859375
52.2230187,1.279296875
52.2434864,1.2548828125
52.2474396,1.2255859375
52.2993456,1.1962890625
52.2996056,1.171875
52.3210569,1.1474609375
52.332845,1.1328125
52.3775054,1.11328125
52.3778461,1.09375
52.3890799,1.0791015625
52.4385758,1.064453125
52.4387853,1.0498046875
52.4501575,1.0302734375
52.5021731,1.015625
52.5023756,1.005859375
52.511366,1.0107421875
52.5288322,1.0400390625
52.5794703,1.11328125
52.5796778,1.181640625
52.5894487,1.2646484375
52.6410498,1.328125
52.6412487,1.3916015625
52.6516326,1.435546875
52.7017362,1.4794921875
52.7019732,1.5087890625
52.7088137,1.513671875
52.7487107,1.5087890625
52.7492555,1.484375
52.7684804,1.4599609375
52.8030523,1.435546875
52.8249054,1.416015625
52.8300828,1.38671875
52.8721272,1.3623046875
52.8724111,1.3330078125
52.9020091,1.30859375
52.9094046,1.25
52.949754,1.2353515625
52.950142,1.2109375
52.9854803,1.19140625
52.9899479,1.171875
53.0105663,1.1474609375
53.0461731,1.1328125
53.0734518,1.11328125
53.0737356,1.0986328125
53.0897064,1.083984375
53.1363689,1.0693359375
53.1366926,1.0546875
53.1504186,1.044921875
53.1978648,1.025390625
53.198184,1.025390625
53.2124574,1.0400390625
53.2589685,1.0888671875
53.2591736,1.15234375
53.2678685,1.23046875
53.3011686,1.298828125
53.3212486,1.3671875
53.3302922,1.42578125
53.367737,1.46484375
53.386563,1.4990234375
53.3921136,1.5087890625
53.4277082,1.5087890625
53.4279697,1.484375
53.4649973,1.46484375
53.4904113,1.4453125
53.4908639,1.42578125
53.5367469,1.4013671875
53.5372548,1.3818359375
53.5513142,1.3525390625
53.5876587,1.328125
53.5878662,1.2939453125
53.6246871,1.26953125
53.6306742,1.2451171875
53.6667153,1.2158203125
53.6696551,1.19140625
53.7084268,1.1669921875
53.7132178,1.142578125
53.7322337,1.1181640625
53.7690454,1.0986328125
53.8000309,1.0791015625
53.8003093,1.03515625
53.8098302,1.0205078125
53.8629688,1.015625
53.8634069,1.0009765625
53.8710338,0.99609375
53.9068106,1.0009765625
53.9114136,1.0302734375
53.9462431,1.083984375
53.9696423,1.171875
53.9748537,1.2548828125
53.9891988,1.3232421875
54.0258699,1.396484375
54.0468155,1.4501953125
54.049252,1.50390625
54.0852568,1.533203125
54.1187038,1.552734375
54.1189121,1.5478515625
54.1345467,1.5234375
54.1507157,1.494140625
54.1710302,1.474609375
54.1916328,1.4453125
54.2286935,1.42578125
54.2290133,1.3916015625
54.2758051,1.3623046875
54.2761449,1.3330078125
54.2965332,1.298828125
54.3131621,1.2646484375
54.3302294,1.2255859375
54.3698613,1.201171875
54.370091,1.171875
54.4063084,1.15234375
54.4319123,1.1279296875
54.432112,1.11328125
54.4676517,1.0888671875
54.4975225,1.07421875
54.4978958,1.0498046875
54.5101449,1.0400390625
54.5452686,1.025390625
54.5659076,1.015625
54.5741022,1.0107421875
54.5919509,1.03515625
54.6384628,1.083984375
54.638688,1.1474609375
54.6549005,1.220703125
54.6901033,1.2890625
54.6949089,1.3525390625
54.7116885,1.34765625
54.7627224,1.3623046875
54.7629283,1.376953125
54.7741624,1.376953125
54.7928236,1.3671875
54.8287239,1.3427734375
54.8566529,1.318359375
54.8570041,1.298828125
54.871578,1.2744140625
54.9058873,1.259765625
54.9098626,1.240234375
54.944421,1.2109375
54.9669876,1.1865234375
54.9733618,1.1572265625
55.0127259,1.1279296875
55.0131929,1.0986328125
55.0495989,1.0791015625
55.0764209,1.0693359375
55.076684,1.1083984375
55.0923115,1.1181640625
55.1266608,1.1328125
55.146901,1.1279296875
55.153442,1.123046875
55.1999124,1.1083984375
55.2001323,1.09375
55.2119867,1.07421875
55.2461166,1.0693359375
55.2521941,1.0595703125
55.2712122,1.0791015625
55.3067071,1.123046875
55.3258207,1.1865234375
55.3341103,1.2548828125
55.3549329,1.3134765625
55.3906055,1.3720703125
55.3909487,1.416015625
55.4160307,1.4599609375
55.4318952,1.455078125
55.4667748,1.474609375
55.4863851,1.4697265625
55.4923472,1.455078125
55.5272746,1.42578125
55.5491017,1.40625
55.5553448,1.3916015625
55.5906155,1.3671875
55.5956162,1.3427734375
55.6107427,1.318359375
55.6522314,1.298828125
55.6525713,1.26953125
55.6719974,1.2451171875
55.7104819,1.220703125
55.7154042,1.1962890625
55.7322419,1.1669921875
55.7675325,1.1474609375
55.7870996,1.1279296875
55.7934761,1.11328125
55.8284112,1.0986328125
55.8333627,1.0791015625
55.8680826,1.064453125
55.8739533,1.0498046875
55.9102884,1.03515625
55.9296209,1.025390625
55.9346586,1.0400390625
55.9520515,1.07421875
55.9934976,1.1474609375
55.9939143,1.2158203125
56.0115677,1.2939453125
56.0470873,1.3525390625
56.0673685,1.40625
56.0747147,1.4404296875
56.113983,1.474609375
56.1143258,1.4794921875
56.1361954,1.484375
56.153195,1.46484375
56.1926024,1.4453125
56.1928744,1.4306640625
56.2285063,1.4111328125
56.2637724,1.38671875
56.2640196,1.3671875
56.2756909,1.3427734375
56.3260908,1.3134765625
56.3263535,1.2890625
56.3328879,1.2548828125
56.3681065,1.23046875
56.3724286,1.201171875
56.408793,1.181640625
56.4349285,1.162109375
56.4351308,1.1376953125
56.4570842,1.1181640625
56.4960359,1.103515625
56.4963983,1.083984375
56.5141301,1.07421875
56.5512485,1.064453125
56.5515227,1.0498046875
56.5881669,1.044921875
56.6083657,1.0498046875
56.6148209,1.09375
56.6661265,1.15234375
56.6663992,1.2353515625
56.6724304,1.3037109375
56.6931274,1.3818359375
56.7283535,1.4453125
56.7328018,1.50390625
56.7681802,1.54296875
56.789206,1.5673828125
56.7940023,1.572265625
56.8369275,1.5625
56.8373816,1.5380859375
56.866744,1.50390625
56.8735148,1.484375
56.9128478,1.455078125
56.915273,1.4306640625
56.9583715,1.396484375
56.958744,1.3671875
56.975656,1.3330078125
57.0102248,1.298828125
57.0318904,1.2646484375
57.0322045,1.2353515625
57.0675215,1.2060546875
57.0876668,1.1767578125
57.093029,1.15234375
57.1277538,1.1279296875
57.1485316,1.103515625
57.1552343,1.0888671875
57.1910212,1.0693359375
57.2127076,1.0546875
57.2169634,1.0400390625
57.233777,1.025390625
57.270557,1.025390625
57.2751755,1.044921875
57.3169343,1.0986328125
57.3172389,1.1669921875
57.3499925,1.2451171875
57.3700158,1.30859375
57.3762462,1.3720703125
57.3917539,1.416015625
57.4428646,1.46484375
57.4432299,1.494140625
57.4541735,1.50390625
57.5032032,1.50390625
57.5034027,1.4794921875
57.5242381,1.455078125
57.5365165,1.42578125
57.5743816,1.4111328125
57.5746114,1.376953125
57.6111091,1.357421875
57.6159321,1.328125
57.6361804,1.3037109375
57.6821862,1.26953125
57.682395,1.240234375
57.69779,1.2060546875
57.7307544,1.181640625
57.751762,1.15234375
57.7535676,1.1328125
57.7886656,1.11328125
57.8207093,1.0986328125
57.8212625,1.083984375
57.8349454,1.0595703125
57.870809,1.044921875
57.8984669,1.025390625
57.8987712,1.015625
57.9166996,1.0009765625
57.950824,0.9912109375
57.9528687,1.005859375
57.9875462,1.0888671875
58.0087043,1.171875
58.0152379,1.2548828125
58.0501863,1.318359375
58.0729897,1.3818359375
58.078225,1.4208984375
58.1193766,1.455078125
58.1196104,1.474609375
58.1354033,1.46484375
58.1712313,1.4501953125
58.1756282,1.42578125
58.2136715,1.416015625
58.2310184,1.3916015625
58.2370737,1.376953125
58.2715629,1.3525390625
58.3058374,1.328125
58.3060401,1.298828125
58.314655,1.279296875
58.3493175,1.25
58.3717594,1.2255859375
58.3765565,1.1962890625
58.4146235,1.171875
58.4169176,1.1474609375
58.4550614,1.1328125
58.4599352,1.11328125
58.4753012,1.0888671875
58.5241937,1.0791015625
58.5243972,1.0595703125
58.5341065,1.0498046875
58.5687088,1.03515625
58.592564,1.03515625
58.5991997,1.044921875
58.6178766,1.09375
58.635353,1.15234375
58.6734948,1.23046875
58.6737264,1.2890625
58.7186629,1.34765625
58.7188769,1.38671875
58.7402931,1.42578125
58.7585274,1.4453125
58.7781131,1.4453125
58.7984339,1.4306640625
58.8450283,1.4111328125
58.8455621,1.3916015625
58.8572811,1.3671875
58.8918964,1.3525390625
58.8967539,1.3330078125
58.9311537,1.3134765625
58.9521997,1.2890625
58.9565309,1.2646484375
58.991285,1.2353515625
59.0170697,1.2060546875
59.0173496,1.181640625
59.0364428,1.162109375
59.0579293,1.1376953125
59.0937244,1.123046875
59.0978832,1.103515625
59.1375671,1.083984375
59.1377658,1.064453125
59.1754643,1.0498046875
59.1797911,1.03515625
59.1954857,1.025390625
59.2324328,1.0302734375
59.2632319,1.0595703125
59.2635026,1.1181640625
59.2788653,1.1865234375
59.3244087,1.2646484375
59.3246126,1.3330078125
59.3379392,1.4013671875
59.3536701,1.4501953125
59.3905329,1.4990234375
59.3954335,1.5380859375
59.4307055,1.5478515625
59.4644723,1.54296875
59.4647226,1.5185546875
59.4784121,1.494140625
59.5136327,1.4697265625
59.5181842,1.4453125
59.533897,1.416015625
59.5688275,1.3916015625
59.5900104,1.3671875
59.5970157,1.337890625
59.6326892,1.30859375
59.6548889,1.2744140625
59.660103,1.2451171875
59.6993034,1.2158203125
59.6995577,1.1865234375
59.733855,1.162109375
59.7549919,1.142578125
59.7570144,1.11328125
59.792606,1.0986328125
59.7971373,1.083984375
59.8358892,1.0693359375
59.8361538,1.0546875
59.8826368,1.0400390625
59.8832764,1.044921875
59.9018371,1.0791015625
59.9147872,1.1376953125
59.9514267,1.2109375
59.9760745,1.2890625
59.9782944,1.3623046875
60.0138647,1.416015625
60.0180933,1.4697265625
60.0518073,1.513671875
60.0731757,1.5234375
60.0794952,1.5283203125
60.0962739,1.5087890625
60.1319182,1.4892578125
60.1365728,1.4599609375
60.170718,1.435546875
60.1923793,1.40625
60.1986227,1.38671875
60.2401419,1.3525390625
60.2404009,1.328125
60.271138,1.2939453125
60.278466,1.26953125
60.3176657,1.240234375
60.3178706,1.2158203125
60.3395923,1.1865234375
60.3801969,1.1669921875
60.3804739,1.1474609375
60.4163147,1.1181640625
60.4183465,1.0986328125
60.4518241,1.0791015625
60.4601298,1.03515625
60.47806,1.0009765625
60.5127845,1.005859375
60.5173652,1.005859375
60.551913,1.0302734375
60.5730121,1.07421875
60.5793066,1.1474609375
60.6155833,1.220703125
60.6464655,1.2939453125
60.646675,1.357421875
60.6575259,1.416015625
60.7070603,1.46484375
60.7072645,1.4990234375
60.720243,1.513671875
60.7565225,1.5087890625
60.7587665,1.4892578125
60.7957099,1.4599609375
60.8005936,1.4306640625
60.8179549,1.40625
60.8537224,1.38671875
60.8578957,1.3623046875
60.8935414,1.3330078125
60.9142223,1.3037109375
60.9197497,1.279296875
60.9412384,1.2451171875
60.9616315,1.2109375
60.978024,1.181640625
60.9973636,1.162109375
61.0475443,1.142578125
61.04805,1.1181640625
61.0611873,1.0986328125
61.0797392,1.0791015625
61.1156764,1.0595703125
61.1198546,1.0400390625
61.1548725,1.025390625
61.1759794,1.005859375
61.1761823,1.0009765625
61.1987628,1.0205078125
61.233201,1.07421875
61.2536115,1.142578125
61.2583508,1.2353515625
61.2931957,1.3037109375
61.3143898,1.3720703125
61.3217529,1.4306640625
61.3579819,1.4697265625
61.3901331,1.494140625
61.3903426,1.4990234375
61.399687,1.4990234375
61.434161,1.474609375
61.440278,1.4599609375
61.4766891,1.4306640625
61.4812205,1.4111328125
61.5268941,1.38671875
61.5271832,1.3671875
61.5369285,1.337890625
61.5706558,1.3134765625
61.5919325,1.2841796875
61.5987819,1.2548828125
61.6355012,1.2255859375
61.6399884,1.201171875
61.6838029,1.1767578125
61.6840177,1.15234375
61.7049565,1.1279296875
61.7185166,1.1083984375
61.7556513,1.0888671875
61.7597921,1.07421875
61.8102223,1.064453125
61.8105973,1.0498046875
61.8198564,1.03515625
61.8564367,1.0302734375
61.8883996,1.0546875
61.8887132,1.103515625
61.899812,1.181640625
61.9189482,1.25
61.9587741,1.30859375
61.9590355,1.3720703125
61.9808217,1.40625
62.0228448,1.4404296875
62.0231408,1.4501953125
62.0720605,1.455078125
62.0722788,1.4306640625
62.0800912,1.416015625
62.1167661,1.3916015625
62.1217998,1.376953125
62.1688259,1.357421875
62.169027,1.337890625
62.1814653,1.3134765625
62.2320093,1.2890625
62.2323165,1.259765625
62.2429243,1.23046875
62.2602965,1.201171875
62.2806928,1.1865234375
62.3022115,1.171875
62.3410761,1.15234375
62.3412865,1.1328125
62.3776897,1.11328125
62.38211,1.09375
62.4340912,1.0791015625
62.4344288,1.064453125
62.4393808,1.0498046875
62.4740044,1.03515625
62.495941,1.0302734375
62.4998312,1.0498046875
62.5348147,1.09375
62.5562441,1.171875
62.563713,1.240234375
62.6050622,1.3134765625
62.6052648,1.3818359375
62.6206692,1.42578125
62.6565968,1.4794921875
62.6591575,1.5087890625
62.694321,1.5234375
62.7161739,1.513671875
62.7236995,1.494140625
62.7594952,1.46484375
62.7646542,1.435546875
62.7786758,1.4111328125
62.8223127,1.396484375
62.8225468,1.376953125
62.8387996,1.3525390625
62.8730524,1.3232421875
62.8946864,1.2939453125
62.9031047,1.259765625
62.9243765,1.23046875
62.9603723,1.2060546875
62.9628045,1.171875
63.0082096,1.1279296875
63.0086579,1.0888671875
63.021115,1.0888671875
63.0540573,1.0791015625
63.0849856,1.07421875
63.085187,1.064453125
63.1320862,1.0498046875
63.1323027,1.0400390625
63.1442082,1.03515625
63.1596686,1.0498046875
63.2103795,1.1083984375
63.2105848,1.1767578125
63.2222447,1.259765625
63.2706889,1.337890625
63.2709812,1.4013671875
63.2835135,1.455078125
63.3192352,1.50390625
63.3243346,1.54296875
63.341615,1.5576171875
63.3619544,1.552734375
63.3983623,1.533203125
63.4006798,1.50390625
63.4345588,1.474609375
63.454434,1.4501953125
63.462432,1.4208984375
63.4973826,1.3916015625
63.5246716,1.357421875
63.5249621,1.3232421875
63.5410416,1.2890625
63.5879953,1.2646484375
63.5881918,1.2353515625
63.609885,1.201171875
63.6230068,1.171875
63.6593664,1.142578125
63.6653793,1.1181640625
63.6813266,1.0888671875
63.7170791,1.0791015625
63.7220828,1.0595703125
63.7581184,1.044921875
63.7627724,1.025390625
63.7992337,1.0107421875
63.8019022,0.99609375
63.8393004,1.0107421875
63.8452869,1.044921875
63.8649036,1.11328125
63.9067361,1.1962890625
63.9072186,1.23046875
63.9229874,1.259765625
63.9684281,1.2890625
63.96863,1.3330078125
63.9827751,1.3525390625
64.0173894,1.3720703125
64.0383533,1.3671875
64.0431989,1.3525390625
64.0605449,1.3232421875
64.0969957,1.30859375
64.1243942,1.2841796875
64.1247365,1.26953125
64.1592043,1.2451171875
64.1641691,1.2255859375
64.1988137,1.1962890625
64.2184014,1.171875
64.2257401,1.1474609375
64.2417229,1.1181640625
64.2616116,1.1474609375
64.2820562,1.162109375
64.3178605,1.1669921875
64.3516537,1.1669921875
64.3518622,1.162109375
64.3650939,1.1474609375
64.40084,1.1376953125
64.4011277,1.1181640625
64.4468527,1.103515625
64.4471621,1.083984375
64.4776462,1.07421875
64.4855719,1.0693359375
64.5038612,1.0888671875
64.5403259,1.142578125
64.5445485,1.201171875
64.5646222,1.2744140625
64.5816266,1.3330078125
64.6187686,1.4013671875
64.6238469,1.4501953125
64.6639336,1.494140625
64.6641558,1.513671875
64.7106037,1.5185546875
64.7110529,1.50390625
64.7309312,1.484375
64.7447499,1.455078125
64.7797643,1.4306640625
64.8012339,1.40625
64.8014351,1.38671875
64.8402302,1.357421875
64.8610188,1.337890625
64.862978,1.30859375
64.8971144,1.279296875
64.9194048,1.25
64.9254191,1.220703125
64.9643428,1.19140625
64.9646054,1.1669921875
64.9830064,1.1474609375
65.0040966,1.1328125
65.0435517,1.11328125
65.0438304,1.09375
65.0794177,1.0791015625
65.1107537,1.0595703125
65.1110551,1.044921875
65.1235112,1.025390625
65.14327,1.0205078125
65.1639094,1.0400390625
65.2015486,1.07421875
65.2018236,1.142578125
65.2502346,1.2109375
65.2505428,1.2841796875
65.2715154,1.337890625
65.2868321,1.3916015625
65.3022459,1.42578125
65.3437091,1.4599609375
65.3440356,1.4697265625
65.3655813,1.474609375
65.3839816,1.455078125
65.4214257,1.435546875
65.4417326,1.416015625
65.4463729,1.396484375
65.4647349,1.3720703125
65.4865911,1.3330078125
65.5307796,1.2939453125
65.5310623,1.2744140625
65.5425249,1.259765625
65.5784882,1.240234375
65.6089742,1.2158203125
65.6092356,1.1962890625
65.6265166,1.1767578125
65.6459934,1.1572265625
65.6864574,1.1376953125
65.6867694,1.1181640625
65.7181202,1.103515625
65.7245408,1.0888671875
65.7642972,1.07421875
65.7645463,1.0595703125
65.8007985,1.044921875
65.8238037,1.044921875
65.8259175,1.0546875
65.8713787,1.103515625
65.8716772,1.162109375
65.9014942,1.25
65.9035245,1.30859375
65.9405679,1.3671875
65.9469112,1.4111328125
65.994367,1.4501953125
65.9948913,1.474609375
66.0067508,1.4794921875
66.0239442,1.46484375
66.072397,1.4453125
66.0726873,1.42578125
66.0842681,1.40625
66.1192302,1.3818359375
66.1394908,1.3720703125
66.1441867,1.3525390625
66.1790908,1.3232421875
66.2065522,1.2939453125
66.2069421,1.2646484375
66.2242409,1.240234375
66.2453008,1.2158203125
66.2652115,1.1962890625
66.2855934,1.171875
66.33497,1.15234375
66.3352701,1.1328125
66.3453967,1.1083984375
66.3808225,1.0888671875
66.4008636,1.0791015625
66.4028543,1.0595703125
66.4375916,1.0498046875
66.4586642,1.0498046875
66.4654759,1.0498046875
66.5069673,1.083984375
66.5072655,1.1376953125
66.5512032,1.220703125
66.5514015,1.2890625
66.5687884,1.357421875
66.5850495,1.416015625
66.6292307,1.4697265625
66.6295144,1.513671875
66.6620161,1.5478515625
66.6648712,1.552734375
66.7021666,1.5478515625
66.7074113,1.5234375
66.7416022,1.494140625
66.7621387,1.4599609375
66.7650284,1.4453125
66.8012911,1.4208984375
66.806059,1.3916015625
66.8458844,1.3623046875
66.846085,1.328125
66.8808906,1.2939453125
66.9030254,1.259765625
66.9072595,1.23046875
66.9248779,1.201171875
66.9446531,1.181640625
66.981713,1.162109375
66.9838638,1.142578125
67.020152,1.1181640625
67.0501439,1.0986328125
67.0504408,1.0791015625
67.0689054,1.0595703125
67.1125525,1.0498046875
67.1128195,1.025390625
67.1284217,1.0302734375
67.1467083,1.0205078125
67.1655329,1.09375
67.2027683,1.162109375
67.2075203,1.25
67.2274746,1.3134765625
67.2644814,1.357421875
67.269076,1.357421875
67.2880914,1.376953125
67.3063273,1.3818359375
67.3249905,1.38671875
67.3764054,1.3720703125
67.3766642,1.3525390625
67.3871881,1.3232421875
67.4320207,1.30859375
67.4322977,1.2939453125
67.4463366,1.2744140625
67.4815649,1.25
67.5123461,1.2255859375
67.512622,1.201171875
67.5276925,1.1767578125
67.5477337,1.15234375
67.5838839,1.123046875
67.5858119,1.0986328125
67.6221935,1.11328125
67.6521217,1.1328125
67.6524597,1.142578125
67.666563,1.1474609375
67.7136917,1.1474609375
67.7139227,1.1376953125
67.7256228,1.1328125
67.7624364,1.11328125
67.7680819,1.0986328125
67.8056191,1.0888671875
67.8101032,1.0986328125
67.8261371,1.1328125
67.869216,1.1865234375
67.869448,1.2109375
67.9025516,1.25
67.9074165,1.2890625
67.9446342,1.337890625
67.9497033,1.3671875
67.967345,1.4013671875
67.9909244,1.4111328125
68.0093988,1.38671875
68.0252306,1.3623046875
68.0728445,1.3525390625
68.0731352,1.3330078125
68.094208,1.3134765625
68.1077011,1.298828125
68.1434576,1.2744140625
68.1646171,1.2548828125
68.1697687,1.2255859375
68.2143581,1.201171875
68.2146799,1.201171875
68.2284978,1.2255859375
68.2471939,1.23046875
68.2832629,1.2255859375
68.2864595,1.2158203125
68.3197048,1.2060546875
68.3406731,1.1865234375
68.3496803,1.171875
68.3998561,1.1572265625
68.4001101,1.1279296875
68.4045603,1.1083984375
68.4472509,1.09375
68.4778147,1.083984375
68.478279,1.0791015625
68.4886904,1.0986328125
68.5378749,1.142578125
68.5381205,1.2060546875
68.5449639,1.2744140625
68.5796953,1.34765625
68.6012321,1.40625
68.6077808,1.4599609375
68.6435024,1.494140625
68.6484342,1.5234375
68.6859145,1.5283203125
68.690936,1.5234375
68.7111349,1.4990234375
68.7242187,1.46484375
68.7735384,1.4453125
68.773873,1.4208984375
68.8032545,1.396484375
68.8085057,1.3720703125
68.8454484,1.34765625
68.8499683,1.318359375
68.8873973,1.2841796875
68.8892464,1.2548828125
68.9238814,1.220703125
68.9497368,1.19140625
68.9502499,1.171875
68.9682864,1.1572265625
69.003964,1.1376953125
69.0280676,1.123046875
69.0282946,1.0986328125
69.0754655,1.0791015625
69.0757291,1.0546875
69.0919218,1.0400390625
69.1071036,1.0205078125
69.1438775,1.0107421875
69.1482618,1.015625
69.1684389,1.0498046875
69.2050626,1.1083984375
69.2078367,1.19140625
69.2444242,1.259765625
69.2777483,1.3232421875
69.2780898,1.3818359375
69.2861125,1.4306640625
69.3226412,1.46484375
69.3553872,1.494140625
69.3556453,1.4990234375
69.3695738,1.4794921875
69.3891499,1.455078125
69.4245957,1.42578125
69.4448003,1.40625
69.4476898,1.38671875
69.4866043,1.3720703125
69.4869508,1.357421875
69.5266982,1.3330078125
69.5570757,1.30859375
69.557333,1.279296875
69.5720671,1.25
69.5913336,1.220703125
69.6076632,1.1962890625
69.6451473,1.171875
69.6517623,1.1279296875
69.6671679,1.083984375
69.7035038,1.083984375
69.7235468,1.0791015625
69.7316356,1.0791015625
69.7502875,1.064453125
69.8001986,1.0546875
69.8004579,1.03515625
69.8302702,1.0302734375
69.8304673,1.044921875
69.8489661,1.103515625
69.8955008,1.171875
69.8958542,1.2548828125
69.9113286,1.3232421875
69.9306042,1.38671875
69.951426,1.4404296875
69.9698647,1.4990234375
70.0182455,1.5380859375
70.0184456,1.552734375
70.0485574,1.5576171875
70.0488352,1.54296875
70.0838098,1.513671875
70.1049858,1.484375
70.111436,1.455078125
70.1557347,1.42578125
70.1559347,1.396484375
70.1761013,1.3623046875
70.1897213,1.3330078125
70.2235853,1.3037109375
70.2439484,1.279296875
70.249134,1.2451171875
70.2868484,1.2158203125
70.2909661,1.19140625
70.3114875,1.162109375
70.3472814,1.1328125
70.3476076,1.1083984375
70.3825278,1.09375
70.4042053,1.07421875
70.4103711,1.0595703125
70.4600042,1.03515625
70.4602791,1.0205078125
70.4718334,1.005859375
70.5232166,1.0009765625
70.5234957,1.0107421875
70.532459,1.0302734375
70.5504207,1.103515625
70.5712895,1.1865234375
70.590987,1.2646484375
70.6103859,1.337890625
70.6477773,1.40625
70.6682976,1.4501953125
70.6702644,1.4892578125
70.7055987,1.5087890625
70.726716,1.513671875
70.7269145,1.494140625
70.7626079,1.474609375
70.7877495,1.4501953125
70.7895414,1.42578125
70.8242633,1.4013671875
70.8510892,1.376953125
70.8513557,1.3427734375
70.896205,1.3134765625
70.896495,1.279296875
70.9107615,1.2548828125
70.9439895,1.2255859375
70.9487926,1.1962890625
70.9832246,1.1669921875
71.0054731,1.142578125
71.0120915,1.123046875
71.0507499,1.0986328125
71.0532298,1.0791015625
71.0688165,1.0595703125
71.0894118,1.044921875
71.1299174,1.025390625
71.1301807,1.015625
71.177457,0.99609375
71.177674,0.986328125
71.2067857,0.9814453125
71.211087,1.005859375
71.2441556,1.0546875
71.2484976,1.142578125
71.2853731,1.2255859375
71.3125116,1.2939453125
71.3127524,1.357421875
71.332585,1.40625
71.3796396,1.4501953125
71.3798972,1.474609375
71.3923493,1.4892578125
71.4369322,1.4794921875
71.4371491,1.4599609375
71.4482488,1.4306640625
71.4825135,1.4111328125
71.5025775,1.3916015625
71.5111577,1.3818359375
71.5481004,1.357421875
71.5522613,1.328125
71.5917625,1.3037109375
71.5936582,1.26953125
71.6290648,1.240234375
71.6293829,1.2060546875
71.6771811,1.1865234375
71.6774514,1.162109375
71.6967384,1.1474609375
71.7112506,1.123046875
71.7461335,1.103515625
71.7672951,1.083984375
71.7741198,1.0693359375
71.7924825,1.0498046875
71.8106571,1.0400390625
71.8503761,1.0205078125
71.8506382,1.0107421875
71.89043,0.99609375
71.9112666,1.005859375
71.9115423,1.0400390625
71.947702,1.0986328125
71.9666403,1.171875
71.9686422,1.2353515625
72.0017168,1.3037109375
72.0225427,1.357421875
72.029797,1.4013671875
72.0654445,1.4306640625
72.0866829,1.4453125
72.0933241,1.4453125
72.129677,1.42578125
72.1344091,1.4013671875
72.1556185,1.3623046875
72.1702794,1.328125
72.2116579,1.328125
72.2118659,1.318359375
72.2327903,1.298828125
72.2745467,1.279296875
72.2747436,1.2548828125
72.2940264,1.2353515625
72.337048,1.2060546875
72.3373912,1.1865234375
72.3614491,1.1572265625
72.3716933,1.1376953125
72.4089537,1.103515625
72.4403613,1.0400390625
72.4405802,0.9912109375
72.4541134,0.9521484375
72.4907306,0.9228515625
72.496032,0.8935546875
72.5108841,0.869140625
72.5506657,0.869140625
72.5509782,0.8642578125
72.5956319,0.87890625
72.5958981,0.927734375
72.6127988,0.99609375
72.6345701,1.083984375
72.6750343,1.1572265625
72.6753581,1.23046875
72.6925992,1.2841796875
72.7120451,1.337890625
72.7521359,1.3720703125
72.7523348,1.4306640625
72.7879802,1.474609375
72.8151482,1.494140625
72.8154291,1.4892578125
72.8340049,1.484375
72.8857303,1.474609375
72.8859928,1.455078125
72.8924917,1.4404296875
72.9111178,1.416015625
72.9494606,1.396484375
72.9708549,1.3623046875
72.9728796,1.3330078125
73.0070594,1.298828125
73.0321942,1.26953125
73.0345106,1.240234375
73.0694219,1.220703125
73.0897154,1.19140625
73.0919772,1.1767578125
73.1272361,1.1572265625
73.1483249,1.1376953125
73.1546415,1.1181640625
73.2048965,1.0986328125
73.2052087,1.083984375
73.2163164,1.064453125
73.2662691,1.0595703125
73.2665337,1.0693359375
73.2725969,1.1181640625
73.3074506,1.1865234375
73.3306505,1.26953125
73.3346895,1.3330078125
73.3549005,1.4013671875
73.3960328,1.4501953125
73.3962349,1.494140625
73.4119509,1.5234375
73.4460795,1.5478515625
73.466802,1.54296875
73.4715488,1.5283203125
73.5070681,1.50390625
73.5351096,1.474609375
73.5353335,1.4501953125
73.5563967,1.42578125
73.59167,1.4111328125
73.5918765,1.3818359375
73.6285567,1.3623046875
73.6335469,1.3330078125
73.6756067,1.30859375
73.6758823,1.2744140625
73.6940729,1.25
73.7381764,1.2158203125
73.7383817,1.1962890625
73.7528363,1.1669921875
73.7894045,1.15234375
73.7944799,1.1279296875
73.8126119,1.123046875
73.8611357,1.103515625
73.8615734,1.083984375
73.8749513,1.0693359375
73.8946709,1.0498046875
73.9395585,1.0400390625
73.9398008,1.0400390625
73.9714889,1.0791015625
73.9717492,1.1328125
74.0187825,1.2109375
74.0193448,1.2841796875
74.0486831,1.3525390625
74.0532683,1.396484375
74.087195,1.4501953125
74.1091168,1.484375
74.1158211,1.50390625
74.1508651,1.5087890625
74.1713763,1.4892578125
74.1736165,1.4697265625
74.2080262,1.4453125
74.2365594,1.42578125
74.2367541,1.4013671875
74.2697052,1.376953125
74.2908655,1.34765625
74.2954965,1.3232421875
74.3112397,1.2939453125
74.3485692,1.2744140625
74.3781149,1.2451171875
74.3783868,1.220703125
74.3949361,1.1962890625
74.4280953,1.1767578125
74.4501695,1.1474609375
74.457188,1.1279296875
74.4757139,1.1083984375
74.4931956,1.0888671875
74.5340051,1.0693359375
74.5343535,1.0546875
74.5653376,1.0400390625
74.5758155,1.025390625
74.5968597,1.0205078125
74.6160105,1.015625
74.6593491,1.0400390625
74.6597761,1.0888671875
74.6781739,1.1376953125
74.6935565,1.19140625
74.7365392,1.279296875
74.7367976,1.3427734375
74.757097,1.4013671875
74.7751665,1.4453125
74.8141665,1.46484375
74.834323,1.4794921875
74.8346062,1.46484375
74.877872,1.4501953125
74.8780724,1.4208984375
74.9070235,1.40625
74.9143861,1.3818359375
74.9527656,1.3671875
74.9833416,1.3427734375
74.9837615,1.3232421875
74.9978671,1.2939453125
75.0355417,1.2646484375
75.0363244,1.2353515625
75.0555564,1.2158203125
75.092976,1.1865234375
75.0932461,1.171875
75.140007,1.15234375
75.1403217,1.1328125
75.1702238,1.1181640625
75.1776547,1.09375
75.2128657,1.0791015625
75.2132227,1.0595703125
75.246249,1.044921875
75.2681496,1.03515625
75.2745949,0.9716796875
75.3130489,0.927734375
75.317101,0.91796875
75.3533356,0.947265625
75.3553283,1.0205078125
75.3882222,1.083984375
75.3931173,1.15234375
75.4277972,1.2158203125
75.4481276,1.259765625
75.4555159,1.298828125
75.4767145,1.318359375
75.4968994,1.328125
75.5169095,1.3134765625
75.5532271,1.3037109375
75.5758772,1.2841796875
75.5760728,1.26953125
75.6121051,1.259765625
75.6162025,1.26953125
75.6530439,1.30859375
75.655548,1.3330078125
75.6892691,1.328125
75.7114586,1.3232421875
75.7188452,1.3037109375
75.7376052,1.2841796875
75.7776648,1.2646484375
75.7779084,1.240234375
75.7959053,1.220703125
75.8307734,1.2060546875
75.8520185,1.1865234375
75.8563127,1.1669921875
75.8905993,1.15234375
75.9125148,1.1328125
75.9188955,1.1181640625
75.9362374,1.0986328125
75.9559509,1.09375
75.976607,1.1083984375
76.013437,1.162109375
76.0165651,1.220703125
76.0517674,1.2939453125
76.0761887,1.357421875
76.0787741,1.4013671875
76.1125819,1.4453125
76.1331358,1.474609375
76.1354246,1.5087890625
76.1700148,1.513671875
76.1905927,1.5087890625
76.1961451,1.484375
76.2310318,1.46484375
76.263998,1.4404296875
76.2642087,1.42578125
76.2762918,1.396484375
76.3265651,1.3818359375
76.3267721,1.357421875
76.335706,1.3330078125
76.3719796,1.298828125
76.3763864,1.279296875
76.4097295,1.25
76.431446,1.2255859375
76.4390377,1.201171875
76.4595861,1.1767578125
76.4960308,1.1572265625
76.5220528,1.1376953125
76.5223282,1.123046875
76.5384547,1.1083984375
76.574478,1.09375
76.579137,1.07421875
76.6150514,1.064453125
76.6193694,1.0546875
76.661147,1.083984375
76.661424,1.1328125
76.6764648,1.2109375
76.7226062,1.2890625
76.7228037,1.3525390625
76.7432942,1.4111328125
76.758331,1.455078125
76.8027151,1.4990234375
76.8030314,1.5234375
76.8202769,1.5380859375
76.8366587,1.533203125
76.8716204,1.5283203125
76.8756222,1.5087890625
76.9255986,1.4892578125
76.9258147,1.4599609375
76.9374511,1.4404296875
76.9749369,1.4111328125
76.9793685,1.3818359375
76.9965025,1.34765625
77.0364883,1.3232421875
77.0367411,1.298828125
77.0839435,1.2744140625
77.0846291,1.2451171875
77.0989166,1.220703125
77.1183881,1.201171875
77.159894,1.181640625
77.1601793,1.162109375
77.180468,1.1376953125
77.2011677,1.09375
77.2167171,1.064453125
77.2377917,1.064453125
77.2830578,1.064453125
77.2833037,1.0595703125
77.2972969,1.0693359375
77.3439207,1.103515625
77.3442801,1.1669921875
77.3730405,1.2255859375
77.3802484,1.2939453125
77.3981101,1.34765625
77.4436948,1.40625
77.4438928,1.4501953125
77.4580998,1.4892578125
77.4938279,1.50390625
77.4986164,1.5087890625
77.5337237,1.4892578125
77.554238,1.4501953125
77.5544485,1.3720703125
77.6001916,1.3232421875
77.6004076,1.2841796875
77.6214246,1.25
77.63783,1.220703125
77.6780052,1.2060546875
77.7041441,1.181640625
77.7045454,1.15234375
77.7224678,1.1279296875
77.7366666,1.1083984375
77.77329,1.09375
77.7989717,1.0791015625
77.7993707,1.064453125
77.8357394,1.044921875
77.8399043,1.03515625
77.874416,1.015625
77.8798935,1.005859375
77.8965412,1.0302734375
77.9425432,1.0693359375
77.9427593,1.083984375
77.9638837,1.0986328125
77.978872,1.1279296875
77.9998702,1.171875
78.0393235,1.2353515625
78.0396929,1.298828125
78.0760963,1.3671875
78.0999205,1.416015625
78.1008081,1.46484375
78.135466,1.4990234375
78.1358206,1.5283203125
78.1792033,1.54296875
78.1795518,1.5380859375
78.213717,1.5185546875
78.2454362,1.494140625
78.2457678,1.4697265625
78.2605751,1.4453125
78.2795045,1.4208984375
78.299102,1.4013671875
78.3394106,1.3818359375
78.3396076,1.3525390625
78.3849958,1.3232421875
78.3851946,1.2939453125
78.4057313,1.2646484375
78.4192756,1.2353515625
78.4553823,1.2158203125
78.4875978,1.19140625
78.4878052,1.171875
78.497065,1.1572265625
78.530422,1.1376953125
78.5520549,1.11328125
78.5609006,1.103515625
78.598758,1.0791015625
78.5989547,1.064453125
78.6453757,1.0498046875
78.6460312,1.0400390625
78.6653055,1.0595703125
78.6775874,1.11328125
78.7127872,1.1865234375
78.738765,1.25
78.7407943,1.318359375
78.7772275,1.3623046875
78.7820241,1.40625
78.7982141,1.435546875
78.8331121,1.4599609375
78.8536501,1.42578125
78.8586057,1.42578125
78.8957449,1.4111328125
78.9264884,1.396484375
78.9266869,1.376953125
78.9412962,1.3720703125
78.9760695,1.3525390625
78.9979181,1.328125
79.0027494,1.3037109375
79.0200541,1.279296875
79.0393453,1.2548828125
79.0910602,1.2353515625
79.0913877,1.2109375
79.1019876,1.1865234375
79.1207442,1.1669921875
79.1579341,1.1474609375
79.1762998,1.1279296875
79.1783,1.1083984375
79.2151178,1.0986328125
79.2177719,1.083984375
79.2551368,1.0693359375
79.2593186,1.0595703125
79.2794702,1.044921875
79.3229496,1.0498046875
79.3232442,1.07421875
79.3541025,1.1376953125
79.3587651,1.201171875
79.4017525,1.279296875
79.402058,1.337890625
79.4213309,1.3916015625
79.4556212,1.4306640625
79.460769,1.46484375
79.4956019,1.4794921875
79.5165475,1.4794921875
79.5168045,1.46484375
79.5634767,1.4453125
79.563678,1.42578125
79.5942366,1.4111328125
79.6011957,1.3916015625
79.6218008,1.3671875
79.641423,1.3427734375
79.6863669,1.318359375
79.6867173,1.2890625
79.7076917,1.2646484375
79.7234212,1.220703125
79.739552,1.201171875
79.7881595,1.1865234375
79.7884041,1.1767578125
79.8005482,1.1572265625
79.8367388,1.142578125
79.8657967,1.1279296875
79.8661685,1.1083984375
79.8831572,1.09375
79.9176542,1.0791015625
79.9387471,1.0595703125
79.9406751,1.0546875
79.9759885,1.064453125
79.9809193,1.103515625
80.0223767,1.1572265625
80.022574,1.23046875
80.0534568,1.298828125
80.0615523,1.3671875
80.0953458,1.416015625
80.1015854,1.4697265625
80.1448323,1.4990234375
80.1452969,1.5283203125
80.1630729,1.533203125
80.1829711,1.5185546875
80.2182862,1.494140625
80.2230379,1.474609375
80.2572687,1.4501953125
80.2778514,1.42578125
80.2809299,1.416015625
80.3169053,1.3916015625
80.3215386,1.3623046875
80.3592117,1.328125
80.3594584,1.2939453125
80.3942995,1.2646484375
80.4223022,1.23046875
80.4226423,1.201171875
80.4404219,1.181640625
80.462026,1.1572265625
80.4827538,1.142578125
80.5170184,1.123046875
80.5451715,1.1083984375
80.5455663,1.09375
80.5928151,1.07421875
80.5930792,1.0546875
80.6042359,1.0400390625
80.6400223,1.044921875
80.6404563,1.0595703125
80.6865009,1.11328125
80.6867699,1.181640625
80.7027902,1.2548828125
80.7487391,1.318359375
80.7489446,1.38671875
80.7644764,1.4306640625
80.7858683,1.474609375
80.8012748,1.50390625
80.8423732,1.5185546875
80.8426863,1.513671875
80.8620835,1.494140625
80.9039227,1.474609375
80.9041292,1.4501953125
80.9372268,1.42578125
80.957412,1.396484375
80.9645766,1.3720703125
80.9799257,1.3427734375
81.0295224,1.318359375
81.0297912,1.2890625
81.050762,1.2646484375
81.0638901,1.2353515625
81.101042,1.2109375
81.1013555,1.181640625
81.1384816,1.1572265625
81.1685967,1.1328125
81.1692559,1.1181640625
81.1810258,1.103515625
81.2149915,1.083984375
81.2353529,1.0693359375
81.2413539,1.0498046875
81.2774921,1.0400390625
81.304955,1.025390625
81.3051593,1.025390625
81.3270479,1.0498046875
81.3458427,1.0791015625
81.3609865,1.1279296875
81.3826034,1.220703125
81.4044219,1.2890625
81.4238838,1.357421875
81.4599825,1.40625
81.4647655,1.4453125
81.5006369,1.4697265625
81.5069728,1.4794921875
81.5259722,1.4697265625
81.5430821,1.4453125
81.5875123,1.4306640625
81.5877204,1.4111328125
81.6030207,1.3916015625
81.650204,1.3671875
81.6505653,1.34765625
81.6636201,1.318359375
81.699074,1.2890625
81.7300901,1.259765625
81.7302974,1.240234375
81.7427183,1.2158203125
81.7916942,1.1962890625
81.7921615,1.181640625
81.8050537,1.162109375
81.8526988,1.1474609375
81.8531306,1.1279296875
81.8649153,1.1083984375
81.8834951,1.0888671875
81.9016653,1.0791015625
81.9371219,1.0595703125
81.957096,1.0498046875
81.9637305,1.03515625
81.9832573,1.0498046875
82.0170424,1.0791015625
82.0380491,1.1474609375
82.0401069,1.2109375
82.0733648,1.2841796875
82.0942647,1.3427734375
82.1036281,1.3916015625
82.1385811,1.42578125
82.1431403,1.4599609375
82.1778678,1.4697265625
82.1992653,1.455078125
82.205945,1.4404296875
82.2408699,1.416015625
82.2449508,1.3916015625
82.2636304,1.3720703125
82.2834721,1.3623046875
82.3202942,1.3427734375
82.3500093,1.3232421875
82.3502806,1.3037109375
82.3655117,1.2744140625
82.4105621,1.2548828125
82.4108979,1.2255859375
82.4225453,1.1962890625
82.4583469,1.1767578125
82.4628714,1.162109375
82.4971875,1.1376953125
82.5183684,1.1181640625
82.5247192,1.0986328125
82.5601376,1.083984375
82.5816988,1.064453125
82.5870045,1.0498046875
82.6031375,1.03515625
82.6526146,1.0302734375
82.6529664,1.0400390625
82.6628093,1.0888671875
82.6995773,1.15234375
82.7172803,1.23046875
82.7240457,1.2939453125
82.7586675,1.3525390625
82.7790578,1.396484375
82.7810034,1.455078125
82.8153273,1.4892578125
82.8368698,1.50390625
82.8443308,1.50390625
82.8855622,1.484375
82.8857705,1.46484375
82.9320935,1.435546875
82.9323164,1.416015625
82.9526095,1.3916015625
82.9623398,1.3720703125
82.996923,1.34765625
83.0168445,1.3232421875
83.0225108,1.2890625
83.0605645,1.2646484375
83.065682,1.240234375
83.1019107,1.2158203125
83.1295079,1.1962890625
83.1298005,1.171875
83.1483852,1.15234375
83.1641302,1.1279296875
83.1849293,1.11328125
83.2039069,1.0986328125
83.2381778,1.083984375
83.2581037,1.064453125
83.2640613,1.0546875
83.2976857,1.03515625
83.3184881,1.044921875
83.3227448,1.07421875
83.3615781,1.1376953125
83.3834317,1.2109375
83.3836505,1.2841796875
83.4189151,1.34765625
83.4390661,1.40625
83.445946,1.455078125
83.4799062,1.4892578125
83.5021658,1.5185546875
83.502371,1.5234375
83.5490127,1.513671875
83.5492293,1.484375
83.5660437,1.4599609375
83.586094,1.435546875
83.6266705,1.4111328125
83.6270206,1.3818359375
83.6465844,1.357421875
83.6627918,1.3232421875
83.7025542,1.298828125
83.7220388,1.26953125
83.7250954,1.2451171875
83.7652061,1.220703125
83.7654312,1.19140625
83.8095976,1.1669921875
83.8097964,1.1474609375
83.8565331,1.1328125
83.8567437,1.1083984375
83.8700891,1.0693359375
83.885039,1.03515625
83.9194778,1.03515625
83.9394413,1.0302734375
83.9444401,1.0302734375
83.9795811,1.025390625
83.9996055,1.0400390625
84.0080225,1.083984375
84.0447848,1.15234375
84.0451188,1.220703125
84.0757467,1.298828125
84.086576,1.3671875
84.1201139,1.416015625
84.1250644,1.4599609375
84.1602981,1.494140625
84.180272,1.5087890625
84.1875136,1.50390625
84.2306852,1.484375
84.2308913,1.4501953125
84.2443088,1.42578125
84.2808607,1.40625
84.2850298,1.3818359375
84.3205204,1.357421875
84.3418768,1.3330078125
84.3458221,1.30859375
84.3803808,1.2744140625
84.4004325,1.25
84.4053138,1.2158203125
84.4254123,1.1962890625
84.4624132,1.1669921875
84.4823679,1.15234375
84.486337,1.123046875
84.5198879,1.1083984375
84.5419529,1.0888671875
84.5499109,1.0693359375
84.5662501,1.0546875
84.601477,1.0400390625
84.6055542,1.025390625
84.6495433,1.0205078125
84.6498944,1.0107421875
84.6802832,1.0205078125
84.6885077,1.0595703125
84.7096645,1.1279296875
84.7284886,1.201171875
84.763499,1.2646484375
84.7855369,1.328125
84.7858864,1.376953125
84.8231071,1.42578125
84.8250847,1.4599609375
84.8603134,1.484375
84.8823719,1.484375
84.8880877,1.4697265625
84.9260373,1.4453125
84.9458544,1.42578125
84.9460886,1.396484375
84.981954,1.3818359375
84.9872053,1.357421875
85.0231526,1.3330078125
85.0273249,1.3134765625
85.0672624,1.279296875
85.0980648,1.25
85.0982982,1.220703125
85.1099516,1.1962890625
85.1267438,1.1669921875
85.1622768,1.15234375
85.1652644,1.1328125
85.2009129,1.123046875
85.2208055,1.0986328125
85.2291089,1.0888671875
85.2634234,1.064453125
85.2694728,1.0498046875
85.2862681,1.0302734375
85.3292433,1.0205078125
85.3295165,1.015625
85.347091,1.03515625
85.392071,1.083984375
85.3923274,1.1474609375
85.4091599,1.220703125
85.4436404,1.279296875
85.447502,1.337890625
85.4829732,1.3818359375
85.4831678,1.4208984375
85.5167428,1.4453125
85.5385978,1.4599609375
85.5470343,1.4453125
85.5921438,1.42578125
85.5925226,1.40625
85.6140322,1.38671875
85.6288922,1.3623046875
85.6652728,1.3427734375
85.6702407,1.3232421875
85.6861717,1.298828125
85.7206295,1.2744140625
85.7469181,1.25
85.747186,1.23046875
85.7962547,1.201171875
85.7966085,1.1767578125
85.8272568,1.15234375
85.8275578,1.1328125
85.8480362,1.11328125
85.8681449,1.1083984375
85.902083,1.09375
85.9080787,1.083984375
85.943036,1.07421875
85.9628569,1.0595703125
85.9677385,1.044921875
86.0030487,1.0400390625
86.0238884,1.0546875
86.0267341,1.0888671875
86.0633846,1.162109375
86.0672939,1.2353515625
86.1121897,1.30859375
86.125495,1.3720703125
86.1297396,1.4306640625
86.1657618,1.474609375
86.1708952,1.5087890625
86.1857712,1.5283203125
86.2220604,1.533203125
86.2424942,1.5185546875
86.2467371,1.494140625
86.2855053,1.46484375
86.3032735,1.4404296875
86.307603,1.4208984375
86.3436859,1.3916015625
86.3655597,1.3623046875
86.3697474,1.328125
86.4112111,1.279296875
86.4115253,1.2548828125
86.4458567,1.2353515625
86.4461192,1.2109375
86.4839125,1.19140625
86.5195042,1.1669921875
86.5198458,1.15234375
86.5305683,1.1279296875
86.5656839,1.11328125
86.5660028,1.09375
86.60039,1.083984375
86.6218268,1.064453125
86.629393,1.0595703125
86.6650046,1.0498046875
86.6690486,1.0498046875
86.7024421,1.07421875
86.7230949,1.1279296875
86.7307708,1.201171875
86.7472742,1.26953125
86.7830719,1.3427734375
86.7876703,1.396484375
86.8210283,1.4453125
86.8420578,1.484375
86.8497863,1.5087890625
86.8846099,1.5185546875
86.9063089,1.513671875
86.9065781,1.4892578125
86.9432888,1.4697265625
86.9482622,1.4501953125
86.9816896,1.4208984375
87.0023581,1.4013671875
87.0083961,1.3720703125
87.0430448,1.34765625
87.0716159,1.3134765625
87.0718623,1.2841796875
87.0869573,1.25
87.1336867,1.220703125
87.1338847,1.201171875
87.1536271,1.1767578125
87.1691409,1.15234375
87.2115763,1.1279296875
87.2118942,1.103515625
87.23241,1.083984375
87.2508175,1.064453125
87.2856196,1.044921875
87.30714,1.025390625
87.307471,1.0107421875
87.3509295,1.0009765625
87.3512722,1.005859375
87.3724764,1.0400390625
87.3915425,1.0986328125
87.4276086,1.1767578125
87.4319766,1.2451171875
87.4731888,1.318359375
87.4733979,1.3720703125
87.4882511,1.4208984375
87.5255269,1.4599609375
87.5300518,1.4892578125
87.5661857,1.494140625
87.5722006,1.4794921875
87.6137958,1.4599609375
87.6140207,1.42578125
87.6325961,1.40625
87.6478376,1.376953125
87.6909866,1.357421875
87.6913559,1.337890625
87.7109499,1.3134765625
87.7544438,1.2841796875
87.754717,1.2548828125
87.7715959,1.2255859375
87.8145969,1.1962890625
87.814952,1.171875
87.8353158,1.15234375
87.8478601,1.1328125
87.8845604,1.1181640625
87.8902858,1.0986328125
87.9407583,1.0888671875
87.9410419,1.0791015625
87.9510239,1.0546875
87.9902807,1.044921875
87.990549,1.025390625
88.0132145,1.025390625
88.0291626,1.005859375
88.0668551,1.0595703125
88.0699402,1.1279296875
88.1083041,1.2109375
88.1105695,1.2744140625
88.1453333,1.337890625
88.167705,1.3818359375
88.1720846,1.4208984375
88.1896669,1.4453125
88.2339045,1.46484375
88.234689,1.4697265625
88.2493484,1.4501953125
88.284124,1.4306640625
88.304917,1.40625
88.3126329,1.3916015625
88.3582778,1.3671875
88.3584919,1.34765625
88.3795816,1.318359375
88.3907177,1.298828125
88.4264284,1.2744140625
88.4306407,1.2548828125
88.4650335,1.2255859375
88.4859388,1.2060546875
88.4925247,1.181640625
88.5291528,1.1572265625
88.5294903,1.1328125
88.5653419,1.1181640625
88.567387,1.103515625
88.6067206,1.0791015625
88.6112994,1.0693359375
88.6538568,1.0498046875
88.6541993,1.03515625
88.6898068,1.0205078125
88.6901577,1.03515625
88.7257551,1.0693359375
88.7276728,1.142578125
88.7765549,1.2109375
88.777091,1.2841796875
88.7963778,1.34765625
88.812222,1.40625
88.8459292,1.4453125
88.8672844,1.4794921875
88.8725366,1.50390625
88.9106222,1.494140625
88.9126869,1.474609375
88.9304756,1.4453125
88.9783978,1.4306640625
88.9786136,1.4111328125
88.999113,1.396484375
89.0129972,1.3720703125
89.0332127,1.34765625
89.0706514,1.318359375
89.0725924,1.2890625
89.0897339,1.259765625
89.1103575,1.2353515625
89.1448465,1.2109375
89.1652517,1.19140625
89.1716489,1.1669921875
89.2088074,1.1474609375
89.2116606,1.1328125
89.24908,1.1083984375
89.2680551,1.09375
89.2705414,1.07421875
89.3043479,1.0595703125
89.3257243,1.0498046875
89.3320277,1.044921875
89.3693656,1.044921875
89.390663,1.083984375
89.3908595,1.142578125
89.4336746,1.220703125
89.4338802,1.2841796875
89.4648321,1.357421875
89.4725912,1.416015625
89.5073705,1.4697265625
89.5118446,1.513671875
89.5492163,1.533203125
89.5534989,1.5380859375
89.573418,1.5234375
89.6191521,1.4990234375
89.6194632,1.4697265625
89.6442016,1.4501953125
89.6514206,1.42578125
89.6716727,1.40625
89.7212972,1.3720703125
89.7215561,1.34765625
89.7336828,1.318359375
89.7688819,1.2890625
89.7738239,1.2548828125
89.8106565,1.23046875
89.8109455,1.1962890625
89.8592434,1.1767578125
89.8595498,1.1572265625
89.8879875,1.1376953125
89.8934388,1.1181640625
89.9139397,1.0986328125
89.9523898,1.0791015625
89.9544992,1.064453125
89.9887789,1.0498046875
90.0139804,1.0400390625
90.0142676,1.0400390625
90.0478409,1.0595703125
90.0543696,1.11328125
90.0728297,1.181640625
90.1094337,1.2548828125
90.1297736,1.318359375
90.1347423,1.3818359375
90.16905,1.4404296875
90.1899899,1.474609375
90.1902379,1.5087890625
90.2293424,1.5234375
90.2313799,1.5234375
90.2686897,1.4990234375
90.297976,1.4794921875
90.2983213,1.4501953125
90.3143485,1.4208984375
90.3313151,1.396484375
90.3660567,1.3720703125
90.3980226,1.3427734375
90.3983541,1.3134765625
90.4130052,1.2841796875
90.4592229,1.2548828125
90.459434,1.220703125
90.4728031,1.201171875
90.5082457,1.1767578125
90.5393538,1.1474609375
90.5395595,1.103515625
90.553503,1.0693359375
90.5735791,1.064453125
90.6170182,1.0595703125
90.6172167,1.0498046875
90.6362393,1.0400390625
90.6783522,1.0302734375
90.6785574,1.0205078125
90.6956343,1.025390625
90.7117543,1.0546875
90.7462113,1.1279296875
90.7708058,1.1962890625
90.7734115,1.26953125
90.8096764,1.337890625
90.8301498,1.3916015625
90.8353175,1.4404296875
90.8552817,1.474609375
90.8952766,1.494140625
90.8954723,1.494140625
90.9160074,1.4794921875
90.9322608,1.455078125
90.968118,1.435546875
90.9731444,1.4111328125
91.0106188,1.396484375
91.0151152,1.3720703125
91.0493294,1.34765625
91.0704278,1.318359375
91.070655,1.2939453125
91.1137228,1.2646484375
91.1139768,1.240234375
91.1340317,1.2158203125
91.1669852,1.19140625
91.188108,1.1669921875
91.1955636,1.142578125
91.2319332,1.123046875
91.2518857,1.103515625
91.2521108,1.0888671875
91.2893943,1.07421875
91.2966331,1.0595703125
91.3163553,1.044921875
91.3612447,1.025390625
91.3617069,1.015625
91.3763572,1.0302734375
91.3956977,1.0693359375
91.4316531,1.11328125
91.4535351,1.1962890625
91.4537322,1.2646484375
91.5009601,1.3330078125
91.5012998,1.38671875
91.5318392,1.435546875
91.5360379,1.4599609375
91.5777945,1.474609375
91.5781086,1.46484375
91.6249182,1.4501953125
91.6251668,1.42578125
91.6342002,1.40625
91.6713311,1.38671875
91.6756636,1.3720703125
91.710234,1.34765625
91.7146941,1.3232421875
91.7490212,1.298828125
91.7702289,1.26953125
91.7751585,1.2451171875
91.7923141,1.2158203125
91.8266418,1.19140625
91.8471291,1.1669921875
91.8549512,1.1474609375
91.8902349,1.1279296875
91.9114593,1.1083984375
91.9156595,1.0888671875
91.9652406,1.0693359375
91.9654664,1.0546875
91.9738142,1.0400390625
92.0097326,1.0302734375
92.0144227,1.0302734375
92.0500868,1.044921875
92.0571659,1.09375
92.0755491,1.1669921875
92.1158928,1.2353515625
92.1161043,1.3134765625
92.1508784,1.3671875
92.1559857,1.4306640625
92.2024908,1.4697265625
92.2027656,1.50390625
92.2150212,1.513671875
92.2494713,1.513671875
92.2686932,1.4892578125
92.2778081,1.4599609375
92.3273006,1.4306640625
92.3279015,1.40625
92.3333463,1.3818359375
92.3735581,1.3623046875
92.4028351,1.337890625
92.4032258,1.3134765625
92.4146222,1.2841796875
92.4497757,1.25
92.4823788,1.220703125
92.4825716,1.1962890625
92.4994441,1.1669921875
92.5144122,1.1376953125
92.5594139,1.123046875
92.5596705,1.1083984375
92.5931508,1.0888671875
92.5954053,1.07421875
92.6364824,1.0546875
92.6368229,1.0400390625
92.6571669,1.0302734375
92.6725182,1.015625
92.7157989,1.025390625
92.7159968,1.0693359375
92.7458378,1.1328125
92.7548953,1.2158203125
92.8082103,1.2890625
92.8084708,1.3623046875
92.8180247,1.4208984375
92.8706477,1.474609375
92.8709481,1.5087890625
92.8748858,1.54296875
92.9170165,1.552734375
92.9172662,1.54296875
92.9637362,1.513671875
92.9639459,1.4892578125
92.9764884,1.4599609375
93.0236949,1.435546875
93.0240936,1.4111328125
93.0438556,1.3916015625
93.0602141,1.337890625
93.0767927,1.2890625
93.1252046,1.2744140625
93.1254171,1.25
93.1365369,1.23046875
93.1731815,1.201171875
93.1773119,1.181640625
93.211571,1.15234375
93.2319676,1.1328125
93.2344269,1.1083984375
93.2559469,1.09375
93.2906617,1.0791015625
93.3117366,1.0595703125
93.3164515,1.0400390625
93.3519123,1.0205078125
93.372778,1.0107421875
93.377813,1.0107421875
93.4132506,1.044921875
93.434413,1.103515625
93.4346123,1.1865234375
93.4704697,1.259765625
93.4955565,1.3330078125
93.4957614,1.3916015625
93.5294831,1.4453125
93.5497232,1.484375
93.5577706,1.513671875
93.5918341,1.513671875
93.5941195,1.50390625
93.6304284,1.4794921875
93.6522222,1.4501953125
93.6551276,1.42578125
93.6913599,1.4013671875
93.711759,1.376953125
93.7183429,1.34765625
93.7606636,1.318359375
93.7609095,1.2841796875
93.7766171,1.2548828125
93.7967042,1.2255859375
93.8363773,1.201171875
93.8365932,1.171875
93.8733617,1.1474609375
93.8768404,1.123046875
93.8970981,1.1083984375
93.9437676,1.0888671875
93.9440299,1.0693359375
93.954482,1.0498046875
93.9891105,1.0400390625
94.0100741,1.0302734375
94.0176632,1.015625
94.0652051,1.005859375
94.065484,1.005859375
94.095947,1.0498046875
94.0986133,1.103515625
94.1350889,1.1865234375
94.1593821,1.259765625
94.1597178,1.337890625
94.1997363,1.396484375
94.1999307,1.455078125
94.2352797,1.494140625
94.2396094,1.5234375
94.2769291,1.5283203125
94.2793196,1.5234375
94.2981374,1.4892578125
94.3419117,1.474609375
94.342167,1.455078125
94.3562648,1.42578125
94.3922407,1.40625
94.3983559,1.376953125
94.4352444,1.34765625
94.4396759,1.318359375
94.4770225,1.2890625
94.4772647,1.2548828125
94.5250764,1.2255859375
94.5252861,1.201171875
94.5357515,1.1767578125
94.5717681,1.15234375
94.5992504,1.1376953125
94.5994826,1.1181640625
94.647035,1.09375
94.6473276,1.0791015625
94.6558074,1.0595703125
94.6929351,1.044921875
94.697769,1.025390625
94.7414032,1.0205078125
94.7416461,1.015625
94.7749434,1.0400390625
94.7793607,1.083984375
94.814766,1.162109375
94.8490385,1.2255859375
94.8492856,1.2939453125
94.8563421,1.3427734375
94.891535,1.396484375
94.9136246,1.4306640625
94.9178205,1.455078125
94.9584092,1.455078125
94.9588693,1.4453125
94.9794758,1.4208984375
95.0151251,1.396484375
95.0362129,1.376953125
95.0365457,1.357421875
95.0733088,1.3330078125
95.077509,1.3134765625
95.1115897,1.2939453125
95.1305031,1.2744140625
95.1417166,1.2451171875
95.1606533,1.2158203125
95.1828841,1.19140625
95.1965194,1.162109375
95.2356958,1.1474609375
95.2543588,1.1279296875
95.2583433,1.11328125
95.2975168,1.0986328125
95.2977584,1.0791015625
95.3424147,1.0595703125
95.3426116,1.0400390625
95.3633239,1.025390625
95.3754575,1.0107421875
95.4132776,1.005859375
95.441464,1.0205078125
95.4416643,1.07421875
95.4578111,1.142578125
95.4916414,1.2255859375
95.5112112,1.2939453125
95.5199686,1.357421875
95.5418181,1.4111328125
95.5624247,1.4306640625
95.5771321,1.4404296875
95.6273961,1.4794921875
95.6276254,1.484375
95.6391063,1.474609375
95.6883596,1.455078125
95.688572,1.4306640625
95.7031888,1.4111328125
95.7209084,1.38671875
95.7565408,1.3720703125
95.7826552,1.3427734375
95.7830213,1.3232421875
95.7985806,1.2939453125
95.8331988,1.2646484375
95.8623329,1.2353515625
95.8626958,1.2109375
95.8823878,1.181640625
95.9183309,1.1572265625
95.9229678,1.1376953125
95.9381698,1.1181640625
95.9763679,1.103515625
95.98055,1.0888671875
96.0222877,1.07421875
96.0226599,1.0595703125
96.0582986,1.044921875
96.0625284,1.0302734375
96.0989279,1.03515625
96.0991355,1.064453125
96.1339248,1.142578125
96.1389283,1.2158203125
96.1737293,1.298828125
96.2015792,1.3671875
96.2017751,1.4306640625
96.2373029,1.474609375
96.2416357,1.5234375
96.2624613,1.5478515625
96.2798743,1.552734375
96.3020702,1.54296875
96.3198032,1.5185546875
96.3550496,1.4892578125
96.3594167,1.4599609375
96.3955612,1.4404296875
96.4157636,1.4111328125
96.4225807,1.3818359375
96.4419998,1.3525390625
96.4774709,1.318359375
96.508395,1.279296875
96.5087263,1.2548828125
96.5192917,1.2255859375
96.5538433,1.1962890625
96.573686,1.1767578125
96.5824647,1.1474609375
96.6019633,1.123046875
96.639283,1.103515625
96.6442337,1.09375
96.6591011,1.0693359375
96.6987408,1.0595703125
96.7282311,1.0498046875
96.7285579,1.0400390625
96.7392617,1.025390625
96.7913781,1.03515625
96.79186,1.0595703125
96.8044808,1.123046875
96.8184666,1.19140625
96.8680215,1.2744140625
96.8682779,1.337890625
96.9018574,1.40625
96.9021311,1.4599609375
96.9353489,1.4990234375
96.9567421,1.5234375
96.9636467,1.5283203125
96.981329,1.513671875
96.999234,1.4892578125
97.0348775,1.46484375
97.0555451,1.4453125
97.060816,1.4208984375
97.0964504,1.4013671875
97.1180499,1.3720703125
97.1222457,1.337890625
97.1585736,1.3134765625
97.1798544,1.2841796875
97.1801356,1.2548828125
97.2170686,1.2353515625
97.235903,1.1767578125
97.2410672,1.1669921875
97.2775268,1.1474609375
97.2803161,1.1376953125
97.319169,1.1181640625
97.340625,1.103515625
97.3408743,1.083984375
97.3760726,1.0693359375
97.3974037,1.044921875
97.4019703,1.0400390625
97.4214181,1.025390625
97.4578084,1.0205078125
97.4621621,1.025390625
97.4957105,1.0693359375
97.516856,1.1279296875
97.5231336,1.2109375
97.5596101,1.2890625
97.559873,1.3525390625
97.6050187,1.416015625
97.6052564,1.46484375
97.6241647,1.50390625
97.6421686,1.5185546875
97.6843127,1.5234375
97.684568,1.5087890625
97.7045172,1.484375
97.7211272,1.4599609375
97.7618181,1.4453125
97.7623029,1.42578125
97.7947934,1.40625
97.8213429,1.3818359375
97.8215915,1.3525390625
97.8670416,1.328125
97.8672736,1.2890625
97.8873002,1.259765625
97.8990326,1.23046875
97.9344757,1.2060546875
97.9597892,1.1865234375
97.9620974,1.1669921875
97.9951323,1.1474609375
98.0173328,1.1328125
98.0243223,1.11328125
98.067581,1.0986328125
98.0677788,1.0791015625
98.0838933,1.03515625
98.1171361,1.025390625
98.1212715,1.025390625
98.1600538,1.0302734375
98.1603234,1.083984375
98.1958442,1.1572265625
98.2158308,1.2255859375
98.222579,1.3037109375
98.2571513,1.3671875
98.2776488,1.4208984375
98.2802286,1.46484375
98.328487,1.50390625
98.3288776,1.5185546875
98.3590372,1.5185546875
98.3636348,1.4990234375
98.4052229,1.4697265625
98.4058707,1.4453125
98.4401781,1.42578125
98.4404889,1.4013671875
98.4610488,1.3818359375
98.4986867,1.3623046875
98.5036866,1.3330078125
98.522556,1.30859375
98.5678183,1.26953125
98.5680403,1.2451171875
98.5850304,1.2158203125
98.6221727,1.1865234375
98.6224539,1.1572265625
98.6423428,1.142578125
98.676633,1.123046875
98.6811095,1.11328125
98.715692,1.09375
98.738559,1.0791015625
98.7438174,1.0595703125
98.7837309,1.044921875
98.7841981,1.0205078125
98.8032676,1.025390625
98.8227032,1.0400390625
98.862997,1.07421875
98.8633079,1.1474609375
98.9092752,1.220703125
98.9095288,1.298828125
98.928242,1.3671875
98.9448868,1.435546875
98.9883217,1.484375
98.9886357,1.5234375
99.0041689,1.54296875
99.0240766,1.552734375
99.0416025,1.54296875
99.0793562,1.5234375
99.1017618,1.494140625
99.1019613,1.4697265625
99.1393801,1.4453125
99.1605782,1.4111328125
99.1669456,1.3818359375
99.1814353,1.3525390625
99.2326436,1.328125
99.2329391,1.298828125
99.2641054,1.26953125
99.2643732,1.2353515625
99.301607,1.2060546875
99.3057767,1.1767578125
99.3261472,1.1572265625
99.342437,1.1328125
99.3878051,1.11328125
99.3881448,1.09375
99.4036351,1.0791015625
99.4479996,1.0546875
99.4485548,1.044921875
99.464337,1.0302734375
99.4996143,1.015625
99.5227301,1.005859375
99.5229452,1.0107421875
99.5701445,1.0546875
99.5703514,1.1181640625
99.585243,1.2060546875
99.6320866,1.2841796875
99.6322981,1.357421875
99.6454538,1.416015625
99.6934548,1.4697265625
99.6938177,1.5087890625
99.7079837,1.54296875
99.7223969,1.5234375
99.7589977,1.5234375
99.7845736,1.50390625
99.7847744,1.474609375
99.8213926,1.455078125
99.8260605,1.42578125
99.8618637,1.4013671875
99.8660644,1.3720703125
99.8874563,1.337890625
99.9029545,1.3037109375
99.940682,1.2744140625
99.9424588,1.2451171875
99.9781163,1.220703125
100.0037817,1.1865234375
100.0064436,1.162109375
100.0411927,1.1376953125
100.0453928,1.11328125
100.0622779,1.0888671875
100.1119032,1.0791015625
100.1121492,1.064453125
100.1232911,1.044921875
100.1577515,1.03515625
100.1776605,1.015625
100.1868148,1.0009765625
100.2207742,0.9912109375
100.2257465,1.005859375
100.2434705,1.03515625
100.2794944,1.0986328125
100.301037,1.1767578125
100.3058268,1.259765625
100.3249281,1.3330078125
100.3644008,1.4013671875
100.3646035,1.4501953125
100.3990303,1.494140625
100.4181773,1.5234375
100.422222,1.5283203125
100.4587479,1.5185546875
100.462951,1.494140625
100.4955571,1.474609375
100.5171051,1.4453125
100.5246135,1.4208984375
100.5606693,1.396484375
100.5835114,1.3720703125
100.5882693,1.337890625
100.6081447,1.30859375
100.623155,1.2744140625
100.6746685,1.2451171875
100.6748684,1.2158203125
100.6852007,1.1865234375
100.736925,1.1572265625
100.7372246,1.142578125
100.7470091,1.1181640625
100.7804025,1.0986328125
100.8022085,1.0791015625
100.8025282,1.0595703125
100.845903,1.044921875
100.8461056,1.0302734375
100.881149,1.0205078125
100.9079516,1.005859375
100.9082107,0.9912109375
100.9438255,0.9814453125
100.9497091,1.0009765625
100.9644999,1.0498046875
101.0159807,1.1279296875
101.0161942,1.2060546875
101.0261163,1.2841796875
101.0605483,1.3525390625
101.0657205,1.40625
101.1086372,1.4501953125
101.1088413,1.4794921875
101.1543613,1.4990234375
101.1546609,1.4892578125
101.1626678,1.474609375
101.2008786,1.4501953125
101.2208065,1.4306640625
101.2258361,1.4111328125
101.2589512,1.3916015625
101.2812233,1.3671875
101.2888525,1.337890625
101.3035013,1.30859375
101.3412719,1.279296875
