fs,t,y
51.2386597543849,0.7849976000000001,1.3037109375
,0.7855197,1.3525390625
,0.7961673,1.455078125
,0.8320717000000002,1.611328125
,0.8522846999999998,1.767578125
,0.8576400999999998,1.9482421875
,0.8944914000000002,2.1044921875
,0.8986008000000001,2.236328125
,0.9315099999999998,2.3583984375
,0.9528740999999998,2.451171875
,0.9603560999999998,2.51953125
,0.9947358,2.55859375
,0.9989846999999998,2.578125
,1.0187807000000002,2.568359375
,1.0381935000000002,2.5537109375
,1.071072,2.5341796875
,1.0919879,2.509765625
,1.0988473,2.4853515625
,1.1346957999999998,2.4560546875
,1.1552701,2.4169921875
,1.1620526999999998,2.3779296875
,1.1965138,2.333984375
,1.1969849,2.275390625
,1.2334908000000002,2.2265625
,1.2385373999999998,2.16796875
,1.2596538000000002,2.119140625
,1.2932068,2.0703125
,1.3140847,2.01171875
,1.3197047999999998,1.9580078125
,1.3562373,1.904296875
,1.3565979000000001,1.845703125
,1.3929505,1.806640625
,1.4238941999999999,1.7578125
,1.4242701000000002,1.7138671875
,1.4392212999999998,1.669921875
,1.4742421,1.6259765625
,1.4959037,1.58203125
,1.5007179000000002,1.5478515625
,1.5337093999999998,1.50390625
,1.5550609999999998,1.4599609375
,1.5598948,1.42578125
,1.5974504999999999,1.38671875
,1.5978553999999998,1.34765625
,1.6319134000000002,1.30859375
,1.6527154999999998,1.2939453125
,1.6606486,1.318359375
,1.7055957,1.40625
,1.7060221000000002,1.5283203125
,1.7219446999999999,1.6796875
,1.7376718000000002,1.826171875
,1.7720747000000001,1.982421875
,1.8002574999999998,2.1142578125
,1.8008422,2.236328125
,1.835775,2.34375
,1.8410308,2.412109375
,1.8759918999999998,2.4609375
,1.8811353999999998,2.48046875
,1.9177776999999998,2.4755859375
,1.9379442999999998,2.4609375
,1.9383161000000002,2.44140625
,1.971374,2.421875
,1.9916076999999999,2.3974609375
,1.9984319,2.3681640625
,2.0491259,2.3388671875
,2.0499978,2.3046875
,2.0798832999999997,2.265625
,2.080342,2.2216796875
,2.0982654,2.177734375
,2.1409711,2.1240234375
,2.1413313,2.0751953125
,2.1627984,2.0263671875
,2.1969674,1.9677734375
,2.2011447000000004,1.9140625
,2.2358411,1.85546875
,2.2568216999999997,1.8017578125
,2.2599579,1.7431640625
,2.2783955999999996,1.7041015625
,2.3153601000000004,1.66015625
,2.3350127,1.6162109375
,2.3393071,1.572265625
,2.3738459,1.533203125
,2.3952475,1.4892578125
,2.4029787000000002,1.4501953125
,2.439452,1.4111328125
,2.4417112999999997,1.3720703125
,2.4864014,1.3427734375
,2.4870069,1.3037109375
,2.5073798,1.2744140625
,2.5214651000000003,1.2451171875
,2.5558376999999997,1.240234375
,2.5613487,1.279296875
,2.5961540999999997,1.376953125
,2.6037204999999997,1.50390625
,2.6380817,1.66015625
,2.6386345999999996,1.806640625
,2.6898530000000003,1.9677734375
,2.6904541999999996,2.099609375
,2.7000994,2.216796875
,2.7218666999999996,2.3046875
,2.7568028,2.373046875
,2.7843166000000004,2.40234375
,2.7849190999999998,2.4169921875
,2.8033273999999997,2.4072265625
,2.8202524,2.3828125
,2.8596849000000004,2.36328125
,2.8601643,2.3388671875
,2.8958294999999996,2.3193359375
,2.9020726000000003,2.294921875
,2.9363574000000003,2.2705078125
,2.9569995000000002,2.2412109375
,2.9626327000000003,2.2021484375
,2.9791353000000003,2.1630859375
,3.0011922999999996,2.119140625
,3.0490398,2.0703125
,3.0495729000000003,2.021484375
,3.0618781999999998,1.9677734375
,3.0968169999999997,1.9140625
,3.1171787,1.865234375
,3.1224437,1.8115234375
,3.1583157999999996,1.7626953125
,3.1891491,1.7138671875
,3.1895286,1.669921875
,3.2012140000000002,1.6259765625
,3.2370416000000004,1.591796875
,3.2420561,1.552734375
,3.2774834000000004,1.5185546875
,3.283296,1.4794921875
,3.3030576,1.4453125
,3.3227193,1.40625
,3.3590989999999996,1.3720703125
,3.3596823999999996,1.337890625
,3.3792394000000003,1.3037109375
,3.4143713,1.2646484375
,3.4343646999999997,1.240234375
,3.4438851,1.2255859375
,3.464009,1.2548828125
,3.5000301,1.3330078125
,3.501734,1.455078125
,3.5386160999999996,1.6015625
,3.5392010999999997,1.7529296875
,3.5603657,1.9091796875
,3.5958124,2.041015625
,3.6177865000000002,2.1630859375
,3.6217828,2.255859375
,3.6596536000000004,2.32421875
,3.6616067,2.36328125
,3.7022914,2.3779296875
,3.7028798,2.373046875
,3.7365760000000003,2.36328125
,3.7394277999999996,2.353515625
,3.7736546000000004,2.3291015625
,3.7946505000000004,2.3095703125
,3.8017402999999996,2.28515625
,3.8385293000000003,2.255859375
,3.8434283999999996,2.2216796875
,3.8791861,2.1875
,3.8852577999999998,2.1435546875
,3.9201467,2.099609375
,3.9205091000000003,2.05078125
,3.9555068999999996,2.01171875
,3.9756516,1.9677734375
,3.9843057,1.923828125
,4.0041345,1.875
,4.0247083,1.826171875
,4.0587625,1.77734375
,4.0632823,1.7333984375
,4.0990923,1.689453125
,4.1201928,1.6455078125
,4.1265538,1.611328125
,4.1420431,1.58203125
,4.1876176,1.5478515625
,4.1882315,1.513671875
,4.2204301,1.484375
,4.2256191,1.455078125
,4.2613767,1.4208984375
,4.2617791,1.38671875
,4.2967969,1.357421875
,4.303432,1.3232421875
,4.3236921,1.298828125
,4.3590857,1.2939453125
,4.3626318,1.3427734375
,4.3841187,1.4501953125
,4.4192052,1.58203125
,4.4403942,1.7431640625
,4.441075,1.884765625
,4.47761,2.041015625
,4.4818731,2.1630859375
,4.5161149,2.28515625
,4.5371957,2.3681640625
,4.5449583,2.4365234375
,4.5803122,2.4658203125
,4.5854412,2.4755859375
,4.6204919,2.4609375
,4.6264215,2.44140625
,4.6438848,2.4169921875
,4.6639776,2.4072265625
,4.7046593,2.3828125
,4.7052471,2.36328125
,4.7241105,2.333984375
,4.768714,2.2998046875
,4.7693277,2.265625
,4.799497,2.2216796875
,4.8044604,2.1728515625
,4.8225327,2.119140625
,4.8578118,2.080078125
,4.8798904,2.03125
,4.8845459,1.982421875
,4.9254444,1.9287109375
,4.9261455,1.8798828125
,4.9623627,1.8359375
,4.9649526,1.796875
,4.9833877,1.7578125
,5.0182032,1.728515625
,5.0228368,1.69921875
,5.0612603,1.66015625
,5.0661535,1.6259765625
,5.084405,1.5869140625
,5.1201894,1.5576171875
,5.1256019,1.513671875
,5.1725055,1.474609375
,5.1728672,1.4306640625
,5.1842356,1.3916015625
,5.2210706,1.357421875
,5.2216118,1.328125
,5.2578318,1.3134765625
,5.27872,1.3427734375
,5.2840384,1.4208984375
,5.3205494,1.5478515625
,5.3262547,1.6845703125
,5.3622268,1.8359375
,5.367406,1.982421875
,5.3819237,2.08984375
,5.414284,2.20703125
,5.436453,2.2900390625
,5.4442333,2.3486328125
,5.4825579,2.3779296875
,5.4854264,2.3876953125
,5.5228332,2.373046875
,5.5251937,2.3583984375
,5.5618572,2.3388671875
,5.5622356,2.3193359375
,5.5990231,2.2998046875
,5.6035474,2.275390625
,5.6432711,2.24609375
,5.6436509,2.216796875
,5.6780046,2.177734375
,5.6985324,2.1337890625
,5.7078583,2.0849609375
,5.7236723,2.0361328125
,5.7443328,1.9921875
,5.780288,1.943359375
,5.7853129,1.89453125
,5.8055157,1.845703125
,5.8417157,1.796875
,5.8463567,1.7431640625
,5.8659646,1.69921875
,5.8842989,1.650390625
,5.9058069,1.6162109375
,5.9406465,1.5771484375
,5.9451599,1.54296875
,5.9826982,1.4990234375
,5.9830572,1.474609375
,6.0272694,1.4404296875
,6.027632499999999,1.40625
,6.047847000000001,1.3720703125
,6.0892924,1.3330078125
,6.090128699999999,1.298828125
,6.105961000000001,1.2646484375
,6.1258166,1.2744140625
,6.1602915,1.318359375
,6.1647601000000005,1.416015625
,6.2000411,1.54296875
,6.2204409,1.6943359375
,6.2277776,1.8408203125
,6.277400999999999,1.9873046875
,6.277817199999999,2.109375
,6.2843172,2.2314453125
,6.3196926,2.32421875
,6.3407391,2.3876953125
,6.3467161,2.4267578125
,6.387323200000001,2.431640625
,6.3877904999999995,2.4267578125
,6.4250253,2.40234375
,6.4277272,2.3828125
,6.4439910000000005,2.3583984375
,6.466030699999999,2.3388671875
,6.502151400000001,2.3095703125
,6.5063893,2.28515625
,6.5270335,2.2412109375
,6.562211700000001,2.2021484375
,6.5679894,2.158203125
,6.601197000000001,2.1044921875
,6.622399400000001,2.05078125
,6.624223199999999,2.0068359375
,6.6430902,1.962890625
,6.676766000000001,1.9091796875
,6.6965702,1.8603515625
,6.7060902,1.8115234375
,6.741531500000001,1.767578125
,6.7638,1.7236328125
,6.7680235,1.6796875
,6.8111969000000006,1.630859375
,6.811928699999999,1.591796875
,6.8278912,1.552734375
,6.846475399999999,1.5185546875
,6.8914905,1.474609375
,6.8920894,1.435546875
,6.906862200000001,1.3916015625
,6.9537002999999995,1.357421875
,6.9541004,1.328125
,6.9840353,1.2890625
,6.991279799999999,1.2646484375
,7.005281,1.2841796875
,7.041180300000001,1.3671875
,7.0600986,1.4794921875
,7.068282,1.630859375
,7.0875585,1.77734375
,7.123651499999999,1.9287109375
,7.1285712,2.0556640625
,7.1651758999999995,2.1826171875
,7.165521099999999,2.2802734375
,7.2009781,2.373046875
,7.206788400000001,2.4365234375
,7.2442706999999995,2.470703125
,7.246961499999999,2.4658203125
,7.2831084,2.4609375
,7.288406999999999,2.4462890625
,7.3409324,2.421875
,7.341527599999999,2.3974609375
,7.344364799999999,2.3681640625
,7.3868464,2.34375
,7.387207200000001,2.3046875
,7.418832399999999,2.265625
,7.438929999999999,2.2216796875
,7.4468215,2.1728515625
,7.4813008,2.119140625
,7.5122933,2.060546875
,7.5128789000000005,2.001953125
,7.5298123,1.953125
,7.5444116,1.8994140625
,7.591407200000001,1.8505859375
,7.5919872999999995,1.806640625
,7.6209784,1.7529296875
,7.6277802999999995,1.7041015625
,7.663477800000001,1.6552734375
,7.6678804,1.611328125
,7.714893999999999,1.5625
,7.715256800000001,1.5283203125
,7.7354685,1.484375
,7.746574300000001,1.455078125
,7.792822599999999,1.4208984375
,7.7936336,1.396484375
,7.807731,1.357421875
,7.8446192,1.3232421875
,7.8494198,1.2890625
,7.899304300000001,1.259765625
,7.899681599999999,1.25
,7.9053538,1.30859375
,7.944792100000001,1.4111328125
,7.945221800000001,1.5380859375
,7.993984899999999,1.689453125
,7.994561900000001,1.8310546875
,8.0238948,1.97265625
,8.0294073,2.0947265625
,8.0656242,2.20703125
,8.0660361,2.2900390625
,8.1010463,2.3583984375
,8.1338056,2.392578125
,8.1345922,2.40234375
,8.1481756,2.392578125
,8.1827606,2.3779296875
,8.2044133,2.353515625
,8.2113018,2.333984375
,8.2306054,2.314453125
,8.2654905,2.28515625
,8.2852365,2.255859375
,8.2882264,2.2216796875
,8.3096272,2.1923828125
,8.3477131,2.1484375
,8.3480914,2.1044921875
,8.3831093,2.0556640625
,8.4036368,2.0068359375
,8.4094297,1.953125
,8.4455135,1.904296875
,8.4458701,1.8505859375
,8.4808953,1.806640625
,8.5019127,1.7626953125
,8.5090051,1.71875
,8.5458908,1.669921875
,8.5516559,1.6357421875
,8.5706119,1.5966796875
,8.6133798,1.5576171875
,8.6137469,1.5185546875
,8.6276937,1.4794921875
,8.6482679,1.4453125
,8.6837324,1.4111328125
,8.6883938,1.3720703125
,8.7215624,1.337890625
,8.7424046,1.298828125
,8.7510218,1.2646484375
,8.771455,1.2451171875
,8.7866761,1.26953125
,8.8214279,1.357421875
,8.8422085,1.474609375
,8.847509,1.611328125
,8.8845268,1.7626953125
,8.8895889,1.884765625
,8.9409163,2.0068359375
,8.9412891,2.1044921875
,8.9517924,2.1923828125
,8.9703925,2.24609375
,9.0189195,2.2802734375
,9.0194967,2.28515625
,9.0495172,2.28515625
,9.0500065,2.2705078125
,9.0687614,2.2607421875
,9.1054294,2.2412109375
,9.1103297,2.2265625
,9.1588747,2.20703125
,9.159492,2.1826171875
,9.1891142,2.1435546875
,9.1897413,2.1142578125
,9.2251357,2.0751953125
,9.228814,2.0361328125
,9.2651774,1.9873046875
,9.2691044,1.943359375
,9.3045577,1.8896484375
,9.3254681,1.8408203125
,9.3328683,1.7919921875
,9.3486594,1.7431640625
,9.3829277,1.69921875
,9.3886288,1.66015625
,9.4099249,1.6162109375
,9.4432906,1.572265625
,9.4638897,1.533203125
,9.4713392,1.4892578125
,9.5053137,1.4453125
,9.5268695,1.416015625
,9.5272016,1.376953125
,9.5659179,1.34765625
,9.570577,1.3134765625
,9.6046549,1.2841796875
,9.6093787,1.2548828125
,9.6442275,1.23046875
,9.6653384,1.2158203125
,9.6738382,1.25
,9.708137,1.3232421875
,9.7141761,1.4501953125
,9.7289422,1.5869140625
,9.764486,1.73828125
,9.7686882,1.875
,9.8035383,2.0068359375
,9.8248355,2.1142578125
,9.8336002,2.2119140625
,9.8676823,2.2802734375
,9.8725675,2.314453125
,9.9097977,2.3291015625
,9.910508,2.3193359375
,9.9472567,2.3095703125
,9.9526694,2.28515625
,9.971946,2.265625
,10.0134466,2.2412109375
,10.0140299,2.216796875
,10.0337183,2.1875
,10.0766565,2.1484375
,10.0770711,2.109375
,10.0899723,2.080078125
,10.1223581,2.0361328125
,10.1427631,1.9970703125
,10.1528914,1.943359375
,10.2001007,1.8896484375
,10.200989,1.845703125
,10.212149,1.7919921875
,10.2498052,1.73828125
,10.2502842,1.6845703125
,10.2795261,1.6455078125
,10.2923038,1.6064453125
,10.3283587,1.5625
,10.3330902,1.5234375
,10.3519112,1.4892578125
,10.3862986,1.4453125
,10.4059043,1.4111328125
,10.4143233,1.3818359375
,10.4336059,1.3427734375
,10.4492077,1.3037109375
,10.4956474,1.279296875
,10.4959659,1.25
,10.5105893,1.220703125
,10.5456861,1.19140625
,10.5670955,1.181640625
,10.5726317,1.2109375
,10.6093885,1.2939453125
,10.6134194,1.4306640625
,10.6317746,1.572265625
,10.6686475,1.7333984375
,10.6691052,1.875
,10.7053589,2.0068359375
,10.7264095,2.109375
,10.7312656,2.2021484375
,10.766788,2.265625
,10.7875007,2.2998046875
,10.7930961,2.314453125
,10.8111199,2.3046875
,10.8461043,2.294921875
,10.8529456,2.2802734375
,10.8890894,2.265625
,10.8937053,2.2412109375
,10.9308559,2.216796875
,10.9347418,2.1875
,10.9543889,2.158203125
,10.9703932,2.1240234375
,11.0048543,2.0947265625
,11.0273226,2.05078125
,11.0331316,2.0068359375
,11.0521564,1.9580078125
,11.0729904,1.9091796875
,11.1179493,1.8603515625
,11.1185293,1.8212890625
,11.1333468,1.77734375
,11.170452,1.728515625
,11.1747918,1.6845703125
,11.1922304,1.640625
,11.2286615,1.6064453125
,11.2331686,1.5673828125
,11.252742,1.5283203125
,11.3050666,1.4892578125
,11.3054506,1.455078125
,11.3134065,1.4208984375
,11.3662978,1.38671875
,11.3666737,1.34765625
,11.3722362,1.3232421875
,11.4095258,1.2939453125
,11.4152187,1.26953125
,11.4344061,1.26953125
,11.4761546,1.3037109375
,11.4765188,1.38671875
,11.5214606,1.5087890625
,11.5218552,1.650390625
,11.5326894,1.7822265625
,11.5844206,1.923828125
,11.5848669,2.0458984375
,11.5928876,2.1533203125
,11.6300944,2.236328125
,11.6330933,2.3046875
,11.6693536,2.333984375
,11.6741833,2.3388671875
,11.690164,2.333984375
,11.7257037,2.3291015625
,11.745744,2.314453125
,11.751316,2.2998046875
,11.8011362,2.2802734375
,11.8016833,2.255859375
,11.8318023,2.2314453125
,11.8323267,2.20703125
,11.8779882,2.16796875
,11.8784952,2.12890625
,11.8945772,2.08984375
,11.912964,2.041015625
,11.9479158,1.9970703125
,11.9525503,1.9482421875
,12.0029097,1.8994140625
,12.0033879,1.8505859375
,12.0310882,1.8017578125
,12.0336954,1.7578125
,12.06922,1.708984375
,12.0897818,1.6748046875
,12.0926171,1.630859375
,12.1279175,1.5966796875
,12.1330131,1.5625
,12.1691052,1.533203125
,12.1749475,1.50390625
,12.2098233,1.4794921875
,12.2161435,1.4453125
,12.2363002,1.416015625
,12.2508739,1.376953125
,12.2936699,1.357421875
,12.2940268,1.3330078125
,12.3136475,1.328125
,12.3498386,1.3671875
,12.3545014,1.46484375
,12.3745596,1.5869140625
,12.4118696,1.7431640625
,12.4316868,1.8896484375
,12.4323061,2.021484375
,12.4547374,2.158203125
,12.4899553,2.265625
,12.4933783,2.3583984375
,12.5142149,2.421875
,12.5557648,2.4609375
,12.556148,2.4755859375
,12.5910046,2.470703125
,12.5960159,2.451171875
,12.6294416,2.431640625
,12.6513609,2.412109375
,12.6532142,2.40234375
,12.6876385,2.3779296875
,12.7100157,2.353515625
,12.7148463,2.32421875
,12.7352314,2.28515625
,12.7716477,2.2412109375
,12.7760599,2.1923828125
,12.8115725,2.1435546875
,12.8316394,2.0849609375
,12.8340957,2.041015625
,12.8696892,1.9873046875
,12.8750428,1.943359375
,12.9113288,1.8896484375
,12.9164261,1.845703125
,12.9533565,1.796875
,12.9563572,1.7529296875
,12.9730804,1.708984375
,13.0075174,1.6748046875
,13.0277506,1.630859375
,13.0334021,1.5966796875
,13.0687085,1.5625
,13.0887609,1.5234375
,13.0963597,1.4892578125
,13.1333297,1.4501953125
,13.1362153,1.4111328125
,13.1518176,1.376953125
,13.1861584,1.357421875
,13.2081443,1.3330078125
,13.2141798,1.3330078125
,13.2360853,1.3671875
,13.2841882,1.4501953125
,13.2850351,1.5673828125
,13.2951948,1.7236328125
,13.3326979,1.8603515625
,13.338145,1.9970703125
,13.3568242,2.1240234375
,13.3909127,2.2265625
,13.3941557,2.3193359375
,13.4292066,2.3779296875
,13.4333753,2.421875
,13.4703317,2.4267578125
,13.4989628,2.421875
,13.4994742,2.4072265625
,13.5318654,2.392578125
,13.5354352,2.3681640625
,13.5554878,2.36328125
,13.5931892,2.3388671875
,13.5936843,2.314453125
,13.6277937,2.2802734375
,13.648495,2.2509765625
,13.6561929,2.20703125
,13.6905993,2.1728515625
,13.7129348,2.12890625
,13.7135891,2.080078125
,13.7646145,2.0361328125
,13.764974,1.9873046875
,13.7766538,1.943359375
,13.7973642,1.89453125
,13.8178807,1.845703125
,13.8584017,1.796875
,13.858994,1.748046875
,13.8730524,1.708984375
,13.9218686,1.669921875
,13.9223285,1.6357421875
,13.9521518,1.6015625
,13.9573263,1.5673828125
,13.9928673,1.5234375
,13.9955287,1.494140625
,14.0312546,1.4501953125
,14.036468500000002,1.4111328125
,14.073633099999999,1.3720703125
,14.108510599999999,1.337890625
,14.108870199999998,1.3134765625
,14.115583,1.3427734375
,14.1509313,1.40625
,14.1555672,1.533203125
,14.189214799999998,1.6650390625
,14.2092053,1.826171875
,14.216964099999998,1.9580078125
,14.260826000000002,2.08984375
,14.2611782,2.1923828125
,14.280897199999998,2.294921875
,14.295969500000002,2.36328125
,14.317380199999999,2.4072265625
,14.353618999999998,2.4267578125
,14.3586797,2.421875
,14.377815900000002,2.4072265625
,14.417096999999998,2.3828125
,14.417467899999998,2.3583984375
,14.434273699999999,2.3388671875
,14.468177399999998,2.3193359375
,14.4899266,2.2900390625
,14.4961658,2.2607421875
,14.5434132,2.2265625
,14.5440109,2.1826171875
,14.5730277,2.1337890625
,14.5776596,2.08984375
,14.595629899999999,2.041015625
,14.6300426,1.9921875
,14.6357854,1.9482421875
,14.670399,1.89453125
,14.677727099999998,1.8408203125
,14.712204799999999,1.796875
,14.717525599999998,1.748046875
,14.75368,1.7041015625
,14.758768199999999,1.66015625
,14.807590099999999,1.62109375
,14.8080459,1.58203125
,14.815541,1.54296875
,14.849334800000001,1.513671875
,14.870247299999999,1.4794921875
,14.879025599999999,1.4453125
,14.9161866,1.4111328125
,14.9165445,1.376953125
,14.952837200000001,1.337890625
,14.973629800000001,1.30859375
,14.981329299999999,1.2841796875
,14.9970796,1.2890625
,15.042398299999999,1.3623046875
,15.043009099999999,1.4697265625
,15.0579146,1.6162109375
,15.1047395,1.767578125
,15.1053286,1.9189453125
,15.137038400000002,2.0458984375
,15.137564399999999,2.16796875
,15.1557806,2.265625
,15.191621600000001,2.353515625
,15.1960473,2.4072265625
,15.231271799999998,2.4462890625
,15.260432300000002,2.451171875
,15.260798000000001,2.4462890625
,15.2792663,2.431640625
,15.324365100000001,2.412109375
,15.3250815,2.3876953125
,15.3446706,2.3583984375
,15.3565693,2.3388671875
,15.3916283,2.3046875
,15.413266100000001,2.2705078125
,15.4176356,2.2314453125
,15.452646999999999,2.1875
,15.473306999999998,2.138671875
,15.478781099999999,2.08984375
,15.514927700000001,2.0361328125
,15.542610199999999,1.9873046875
,15.543200500000001,1.93359375
,15.557631700000002,1.8896484375
,15.5778706,1.8408203125
,15.5982381,1.8017578125
,15.618809200000001,1.7529296875
,15.653877900000001,1.708984375
,15.683380199999998,1.6650390625
,15.683793300000001,1.6259765625
,15.701232300000001,1.5869140625
,15.717306700000002,1.5478515625
,15.752559399999999,1.5185546875
,15.7773604,1.4892578125
,15.777896599999998,1.455078125
,15.7994886,1.4208984375
,15.833982800000001,1.38671875
,15.8403542,1.3525390625
,15.8856672,1.318359375
,15.886251399999999,1.2939453125
,15.8968715,1.318359375
,15.934379,1.3916015625
,15.939128199999999,1.5087890625
,15.977161899999999,1.66015625
,15.978991099999998,1.8017578125
,16.0121264,1.953125
,16.0328964,2.080078125
,16.0404213,2.197265625
,16.0569287,2.2900390625
,16.1012374,2.3681640625
,16.1016278,2.412109375
,16.1302825,2.4267578125
,16.1390625,2.421875
,16.1724514,2.4072265625
,16.193737,2.3876953125
,16.200436,2.36328125
,16.2218014,2.3388671875
,16.2720915,2.32421875
,16.2726706,2.2998046875
,16.2780202,2.265625
,16.313348,2.236328125
,16.3181672,2.197265625
,16.3530773,2.1533203125
,16.3739457,2.1044921875
,16.3802216,2.060546875
,16.4144071,2.001953125
,16.4354678,1.953125
,16.4360303,1.904296875
,16.4703659,1.8603515625
,16.4925076,1.81640625
,16.4992636,1.77734375
,16.5354332,1.7333984375
,16.5419522,1.6943359375
,16.5617015,1.650390625
,16.5967243,1.6064453125
,16.6014102,1.5673828125
,16.6194932,1.5283203125
,16.6382488,1.494140625
,16.6758017,1.46484375
,16.7055168,1.4306640625
,16.7058971,1.3916015625
,16.7220171,1.357421875
,16.7575157,1.3232421875
,16.7603982,1.3037109375
,16.7771076,1.3134765625
,16.8144696,1.3818359375
,16.8205192,1.494140625
,16.8555561,1.640625
,16.8597914,1.787109375
,16.8953285,1.9384765625
,16.9023963,2.0751953125
,16.9414456,2.1875
,16.941997,2.2900390625
,16.978259,2.36328125
,16.9817281,2.4169921875
,16.9987934,2.431640625
,17.0194691,2.44140625
,17.0543407,2.431640625
,17.0600164,2.4169921875
,17.0812344,2.3974609375
,17.1161235,2.3779296875
,17.1209148,2.353515625
,17.1565111,2.3291015625
,17.1768734,2.294921875
,17.1791188,2.2607421875
,17.199828,2.2216796875
,17.2337768,2.177734375
,17.2551977,2.12890625
,17.2600763,2.0849609375
,17.3013121,2.0361328125
,17.3017865,1.9873046875
,17.3324668,1.93359375
,17.3521123,1.884765625
,17.3586988,1.845703125
,17.3948371,1.8017578125
,17.4004766,1.7529296875
,17.4359225,1.708984375
,17.4410399,1.669921875
,17.462399,1.630859375
,17.4973702,1.591796875
,17.4979436,1.5478515625
,17.5177004,1.5234375
,17.5519529,1.494140625
,17.5716784,1.4599609375
,17.5802358,1.4208984375
,17.6276938,1.3916015625
,17.628292,1.357421875
,17.6422724,1.3330078125
,17.6909307,1.3427734375
,17.6914622,1.4013671875
,17.7030486,1.513671875
,17.7197073,1.650390625
,17.7547689,1.81640625
,17.7762507,1.962890625
,17.7811966,2.109375
,17.8166931,2.2265625
,17.8222839,2.3388671875
,17.8572211,2.4267578125
,17.8621607,2.470703125
,17.9076196,2.5
,17.9080194,2.4951171875
,17.9222208,2.490234375
,17.9426628,2.470703125
,17.9858149,2.4560546875
,17.9861704,2.44140625
,18.0019516,2.421875
,18.0385403,2.392578125
,18.0427946,2.3681640625
,18.0594536,2.3291015625
,18.1101169,2.2998046875
,18.1104939,2.255859375
,18.1215918,2.2119140625
,18.1571056,2.158203125
,18.1616717,2.1142578125
,18.2040487,2.060546875
,18.2045093,2.01171875
,18.2335893,1.9580078125
,18.2386832,1.9091796875
,18.2739776,1.865234375
,18.2952539,1.826171875
,18.3024366,1.787109375
,18.3223621,1.7529296875
,18.3562241,1.708984375
,18.3763696,1.669921875
,18.3814575,1.6357421875
,18.4224234,1.5966796875
,18.4430129,1.5576171875
,18.4433654,1.5283203125
,18.4623619,1.494140625
,18.4826367,1.46484375
,18.5169857,1.42578125
,18.5228968,1.4013671875
,18.5632934,1.396484375
,18.5636506,1.4453125
,18.6104388,1.533203125
,18.6107943,1.669921875
,18.6302695,1.806640625
,18.6415362,1.962890625
,18.6769575,2.08984375
,18.6825761,2.216796875
,18.7176865,2.3095703125
,18.7528066,2.3974609375
,18.7532697,2.4462890625
,18.7636705,2.4755859375
,18.7809142,2.4658203125
,18.8146461,2.4658203125
,18.8355216,2.4462890625
,18.8430979,2.421875
,18.8933103,2.392578125
,18.8938058,2.3681640625
,18.9023612,2.3388671875
,18.9397503,2.3046875
,18.9601478,2.2705078125
,18.9607814,2.2314453125
,19.0040789,2.1875
,19.0046524,2.1435546875
,19.0358288,2.0947265625
,19.0428115,2.041015625
,19.0788894,1.9873046875
,19.0857392,1.9384765625
,19.1042597,1.884765625
,19.1413917,1.8359375
,19.1457974,1.787109375
,19.1920799,1.7431640625
,19.1925246,1.6943359375
,19.2020936,1.66015625
,19.235798,1.62109375
,19.2553867,1.5869140625
,19.261834,1.552734375
,19.2965269,1.513671875
,19.3177356,1.4794921875
,19.3257528,1.4599609375
,19.3410043,1.42578125
,19.3763751,1.4013671875
,19.3969047,1.3720703125
,19.4018975,1.3671875
,19.4392946,1.396484375
,19.4587089,1.494140625
,19.4645211,1.6259765625
,19.5004222,1.767578125
,19.5051806,1.9189453125
,19.5211148,2.0556640625
,19.5541915,2.1923828125
,19.574776,2.3095703125
,19.5829929,2.4072265625
,19.62703,2.470703125
,19.6274005,2.509765625
,19.657598,2.529296875
,19.6664512,2.51953125
,19.681928,2.5
,19.7195514,2.4755859375
,19.7404675,2.451171875
,19.7436004,2.421875
,19.7791163,2.392578125
,19.7843059,2.353515625
,19.8186684,2.314453125
,19.8391948,2.265625
,19.8456134,2.216796875
,19.8911185,2.1630859375
,19.8916544,2.1142578125
,19.9046128,2.060546875
,19.9385085,2.0166015625
,19.9445234,1.9677734375
,19.9815696,1.9189453125
,19.9860813,1.8701171875
,20.0048359,1.81640625
,20.0493707,1.767578125
,20.0498305,1.71875
,20.0636239,1.6650390625
,20.082894,1.6357421875
,20.1180735,1.5966796875
,20.1397504,1.552734375
,20.1441212,1.5185546875
,20.1789758,1.4794921875
,20.1998768,1.4404296875
,20.2053482,1.4013671875
,20.2500968,1.3623046875
,20.2505116,1.3232421875
,20.263482,1.3037109375
,20.2994,1.3037109375
,20.3265034,1.3671875
,20.3268762,1.474609375
,20.3453103,1.630859375
,20.3664721,1.77734375
,20.401239,1.9287109375
,20.4218026,2.0751953125
,20.4225415,2.1923828125
,20.4683648,2.3095703125
,20.4688525,2.3974609375
,20.4991259,2.4609375
,20.506051,2.4853515625
,20.5412384,2.490234375
,20.5445413,2.470703125
,20.5830885,2.451171875
,20.5865603,2.4267578125
,20.6210337,2.40234375
,20.6418045,2.3779296875
,20.6422438,2.353515625
,20.6836078,2.3193359375
,20.6839648,2.2802734375
,20.7044722,2.236328125
,20.7454527,2.1875
,20.7458086,2.138671875
,20.7910894,2.0849609375
,20.791661,2.03125
,20.8122881,1.97265625
,20.825372,1.923828125
,20.8705551,1.8798828125
,20.8712427,1.8359375
,20.88689,1.787109375
,20.9319576,1.7431640625
,20.9325345,1.69921875
,20.9469311,1.6552734375
,20.9645269,1.611328125
,21.0001837,1.5771484375
,21.0048722,1.533203125
,21.0255124,1.4990234375
,21.059807,1.46484375
,21.0796574,1.42578125
,21.0881891,1.38671875
,21.1237181,1.34765625
,21.1263566,1.3134765625
,21.1417392,1.279296875
,21.1806972,1.259765625
,21.1853809,1.2646484375
,21.2223832,1.3232421875
,21.2254625,1.42578125
,21.2596327,1.572265625
,21.2803386,1.7236328125
,21.2882765,1.8798828125
,21.3234543,2.021484375
,21.328501,2.1533203125
,21.346342,2.2509765625
,21.3664809,2.3583984375
,21.401121,2.431640625
,21.4068346,2.4609375
,21.4262735,2.470703125
,21.4639002,2.4560546875
,21.4689096,2.4365234375
,21.5044349,2.412109375
,21.5074518,2.3974609375
,21.525522,2.373046875
,21.5688131,2.353515625
,21.5691992,2.3291015625
,21.5876675,2.2998046875
,21.6315599,2.2607421875
,21.6320381,2.2216796875
,21.6466159,2.1728515625
,21.6835152,2.119140625
,21.6893225,2.0703125
,21.7056174,2.0166015625
,21.7410484,1.9677734375
,21.7470619,1.9140625
,21.7670053,1.865234375
,21.8044765,1.8115234375
,21.809286,1.7626953125
,21.8473332,1.7138671875
,21.847692,1.669921875
,21.8641363,1.6259765625
,21.899217,1.5966796875
,21.9196841,1.5576171875
,21.9275834,1.5234375
,21.9744941,1.484375
,21.9750934,1.4453125
,21.9888943,1.4013671875
,22.0361059,1.357421875
,22.036705,1.318359375
,22.0477207,1.2841796875
,22.0828906,1.279296875
,22.1039896,1.3330078125
,22.1043734,1.4453125
,22.143956,1.58203125
,22.1738971,1.7431640625
,22.1744596,1.884765625
,22.1876482,2.021484375
,22.2257097,2.138671875
,22.2287682,2.2412109375
,22.2451508,2.3193359375
,22.2676144,2.373046875
,22.3131359,2.3974609375
,22.3134954,2.3974609375
,22.3264964,2.3828125
,22.3640656,2.353515625
,22.3931269,2.32421875
,22.3935747,2.294921875
,22.4084092,2.265625
,22.4244821,2.2314453125
,22.458519,2.197265625
,22.4787758,2.1533203125
,22.4889593,2.1142578125
,22.5093444,2.0654296875
,22.547586,2.0166015625
,22.5479759,1.962890625
,22.583139,1.904296875
,22.604642,1.8505859375
,22.6050462,1.8017578125
,22.6412248,1.748046875
,22.6460168,1.7041015625
,22.6837607,1.650390625
,22.6881575,1.6064453125
,22.7256658,1.552734375
,22.728913,1.50390625
,22.7671189,1.4599609375
,22.7677134,1.416015625
,22.802957,1.3720703125
,22.8229525,1.337890625
,22.8291995,1.3037109375
,22.8478358,1.26953125
,22.8812547,1.2353515625
,22.9033738,1.201171875
,22.9101077,1.1767578125
,22.9459722,1.1474609375
,22.94933,1.123046875
,22.9856274,1.1376953125
,22.9862864,1.19140625
,23.0220854,1.318359375
,23.0272454,1.46484375
,23.0627319,1.630859375
,23.0833927,1.7822265625
,23.0891503,1.93359375
,23.12395,2.05078125
,23.146207,2.16796875
,23.1467894,2.24609375
,23.1818752,2.3095703125
,23.2020514,2.333984375
,23.2073077,2.34375
,23.2431111,2.3291015625
,23.2632649,2.3193359375
,23.2720211,2.294921875
,23.3062089,2.275390625
,23.3090346,2.2509765625
,23.3270479,2.216796875
,23.3615313,2.1875
,23.3830922,2.1533203125
,23.3884901,2.109375
,23.4243746,2.0751953125
,23.4302684,2.041015625
,23.4497824,2.001953125
,23.486143,1.953125
,23.514869,1.904296875
,23.5155656,1.85546875
,23.5291434,1.806640625
,23.549591,1.7626953125
,23.5839201,1.71875
,23.5889002,1.6748046875
,23.6257139,1.6357421875
,23.6562519,1.591796875
,23.6568358,1.552734375
,23.6697076,1.5087890625
,23.7044997,1.4697265625
,23.7243157,1.42578125
,23.7288834,1.4013671875
,23.7792296,1.3671875
,23.7798171,1.337890625
,23.7895803,1.3037109375
,23.8251085,1.2744140625
,23.83026,1.240234375
,23.8663847,1.2158203125
,23.8868896,1.1865234375
,23.8873184,1.19140625
,23.922978,1.2353515625
,23.9448345,1.3525390625
,23.9499853,1.494140625
,23.9870724,1.6455078125
,23.9893206,1.806640625
,24.0272419,1.9384765625
,24.0294929,2.0654296875
,24.0472435,2.16796875
,24.0840885,2.2607421875
,24.0896981,2.314453125
,24.1388174,2.3486328125
,24.1393908,2.353515625
,24.1695638,2.3388671875
,24.1699718,2.314453125
,24.2057276,2.294921875
,24.2108505,2.2705078125
,24.2488807,2.236328125
,24.2542111,2.2119140625
,24.2696063,2.1728515625
,24.3045996,2.138671875
,24.3094572,2.099609375
,24.3457484,2.0556640625
,24.3517838,2.0068359375
,24.372114,1.953125
,24.4210387,1.8994140625
,24.4214737,1.8505859375
,24.4300381,1.796875
,24.4519956,1.7578125
,24.4708588,1.708984375
,24.5128567,1.6650390625
,24.513227,1.6259765625
,24.5308268,1.58203125
,24.5694493,1.5380859375
,24.5698426,1.4990234375
,24.6080717,1.46484375
,24.6374743,1.42578125
,24.6379009,1.396484375
,24.6493012,1.3623046875
,24.6704852,1.3330078125
,24.7153424,1.298828125
,24.7157036,1.26953125
,24.7365381,1.240234375
,24.7539559,1.2060546875
,24.7695061,1.1767578125
,24.8037352,1.15234375
,24.8086911,1.1474609375
,24.8548763,1.19140625
,24.8552309,1.279296875
,24.8769293,1.4208984375
,24.8930282,1.591796875
,24.927404,1.7529296875
,24.9323095,1.9091796875
,24.9704379,2.0458984375
,24.9749923,2.1826171875
,24.990786,2.28515625
,25.0272264,2.373046875
,25.0304387,2.4267578125
,25.0667216,2.4560546875
,25.0709703,2.451171875
,25.111734,2.4462890625
,25.1120911,2.421875
,25.1332692,2.40234375
,25.1507523,2.3681640625
,25.190777,2.3486328125
,25.1911298,2.32421875
,25.2271434,2.2900390625
,25.2543499,2.2509765625
,25.2549098,2.2021484375
,25.2715531,2.1533203125
,25.3079491,2.1044921875
,25.3133638,2.05078125
,25.3302372,1.9921875
,25.3501175,1.9482421875
,25.3954376,1.89453125
,25.3960168,1.845703125
,25.4097127,1.796875
,25.4481263,1.7431640625
,25.4536118,1.6943359375
,25.4895959,1.6552734375
,25.489964,1.611328125
,25.5250293,1.5771484375
,25.5297046,1.5380859375
,25.5638554,1.494140625
,25.5849329,1.4501953125
,25.5918707,1.4111328125
,25.6276711,1.3720703125
,25.632282,1.3330078125
,25.6674023,1.2939453125
,25.6878189,1.259765625
,25.6946578,1.23046875
,25.710564,1.19140625
,25.7552742,1.171875
,25.7558546,1.1474609375
,25.770562,1.142578125
,25.8065396,1.181640625
,25.8282599,1.2841796875
,25.8326002,1.416015625
,25.8774824,1.5869140625
,25.8778367,1.7529296875
,25.8967039,1.89453125
,25.9120489,2.041015625
,25.9333091,2.1484375
,25.969793,2.2509765625
,25.9716401,2.314453125
,26.0048584,2.36328125
,26.0255984,2.373046875
,26.0352225,2.3681640625
,26.0517301,2.34375
,26.0866722,2.3291015625
,26.0916022,2.3095703125
,26.1272844,2.2900390625
,26.1322971,2.2607421875
,26.1677109,2.2314453125
,26.1888937,2.20703125
,26.1949665,2.16796875
,26.2360811,2.1240234375
,26.2366646,2.080078125
,26.2504892,2.0458984375
,26.2836116,1.9970703125
,26.3049345,1.9482421875
,26.3121075,1.8994140625
,26.3471439,1.845703125
,26.3677741,1.796875
,26.3757565,1.7529296875
,26.4104701,1.7041015625
,26.415097,1.66015625
,26.4300699,1.6162109375
,26.4640309,1.5771484375
,26.4854569,1.5380859375
,26.4924674,1.513671875
,26.5130458,1.474609375
,26.5479264,1.435546875
,26.5686696,1.4013671875
,26.5728475,1.3671875
,26.610487,1.337890625
,26.6108484,1.3037109375
,26.6305882,1.279296875
,26.6743263,1.25
,26.6748042,1.220703125
,26.6949403,1.1865234375
,26.7144864,1.162109375
,26.7493222,1.1572265625
,26.7539243,1.2158203125
,26.7874955,1.318359375
,26.7918851,1.46484375
,26.8275474,1.62109375
,26.8320981,1.7626953125
,26.8662865,1.8994140625
,26.8891097,2.0068359375
,26.8957781,2.109375
,26.9303217,2.1728515625
,26.9364262,2.216796875
,26.9513169,2.2265625
,27.0020769,2.236328125
,27.0024713,2.216796875
,27.0321789,2.20703125
,27.0327535,2.1826171875
,27.0690577,2.1630859375
,27.093568,2.1435546875
,27.0939284,2.119140625
,27.1304268,2.0849609375
,27.1359634,2.060546875
,27.1707261,2.0263671875
,27.1713187,1.982421875
,27.2049232,1.9482421875
,27.2266204,1.9091796875
,27.2342275,1.8603515625
,27.2707699,1.8115234375
,27.2902748,1.767578125
,27.2958841,1.7236328125
,27.332246,1.6748046875
,27.3328785,1.630859375
,27.3668765,1.5869140625
,27.3878224,1.552734375
,27.3931218,1.5185546875
,27.4289751,1.474609375
,27.4508313,1.435546875
,27.455101,1.40625
,27.5032573,1.3671875
,27.5041765,1.3330078125
,27.5139672,1.3037109375
,27.5497523,1.2890625
,27.552217,1.2646484375
,27.5857959,1.25
,27.6084826,1.2255859375
,27.6156217,1.201171875
,27.6536469,1.171875
,27.6542443,1.1669921875
,27.6715116,1.19140625
,27.718452,1.2841796875
,27.7189863,1.40625
,27.7394223,1.5673828125
,27.754656,1.71875
,27.7910303,1.8798828125
,27.7962356,2.021484375
,27.8155959,2.12890625
,27.8525599,2.2314453125
,27.8561931,2.3046875
,27.9071536,2.3583984375
,27.9077316,2.3779296875
,27.9141665,2.392578125
,27.9537879,2.3828125
,27.9542639,2.3681640625
,27.9908049,2.3486328125
,27.9964712,2.3291015625
,28.0162829,2.2998046875
,28.0496372,2.2802734375
,28.0715352,2.24609375
,28.0721103,2.216796875
,28.1075993,2.1826171875
,28.1289316,2.138671875
,28.1362081,2.0947265625
,28.1732909,2.0458984375
,28.1782138,2.001953125
,28.2116556,1.9482421875
,28.2167036,1.8994140625
,28.2339696,1.845703125
,28.2778549,1.806640625
,28.2784609,1.7578125
,28.2956881,1.71875
,28.3388056,1.669921875
,28.3393768,1.630859375
,28.3689126,1.5869140625
,28.3772559,1.552734375
,28.392844,1.50390625
,28.4271721,1.4794921875
,28.4472937,1.4453125
,28.4552837,1.4111328125
,28.4929937,1.3720703125
,28.4964896,1.3427734375
,28.5324895,1.30859375
,28.536693,1.279296875
,28.5700806,1.2548828125
,28.5910316,1.2255859375
,28.598382,1.201171875
,28.6157234,1.19140625
,28.6626616,1.240234375
,28.6632712,1.337890625
,28.6745159,1.484375
,28.7276916,1.6357421875
,28.7282853,1.796875
,28.7384318,1.9482421875
,28.7756054,2.0703125
,28.7759613,2.1826171875
,28.7945536,2.265625
,28.8295996,2.34375
,28.8349977,2.3779296875
,28.8715521,2.392578125
,28.8763339,2.3876953125
,28.9148388,2.373046875
,28.9154239,2.353515625
,28.9620931,2.3388671875
,28.9624441,2.314453125
,28.9806238,2.3046875
,28.9969191,2.2802734375
,29.0155501,2.255859375
,29.0540161,2.216796875
,29.0841697,2.1923828125
,29.0845422,2.158203125
,29.0984521,2.1142578125
,29.1332528,2.0703125
,29.1336322,2.021484375
,29.1540628,1.982421875
,29.1897776,1.93359375
,29.2119707,1.8896484375
,29.2161911,1.8408203125
,29.2524856,1.796875
,29.2579141,1.748046875
,29.3024329,1.7041015625
,29.3027953,1.66015625
,29.3185275,1.6259765625
,29.3367427,1.58203125
,29.3564871,1.5478515625
,29.3911977,1.513671875
,29.3967871,1.484375
,29.4328457,1.4453125
,29.436864,1.4111328125
,29.4750477,1.38671875
,29.5050794,1.3525390625
,29.5056412,1.318359375
,29.5154383,1.2841796875
,29.5540683,1.2646484375
,29.5549289,1.2451171875
,29.5909132,1.2548828125
,29.6121828,1.2890625
,29.6196417,1.376953125
,29.6552439,1.494140625
,29.6574841,1.6357421875
,29.6758658,1.7626953125
,29.7084751,1.904296875
,29.7302855,2.021484375
,29.738609,2.1044921875
,29.7574193,2.1875
,29.7914062,2.2265625
,29.8133801,2.2509765625
,29.8185478,2.2509765625
,29.8556011,2.2412109375
,29.8559779,2.216796875
,29.8930738,2.197265625
,29.8958092,2.177734375
,29.9321522,2.158203125
,29.9386408,2.1337890625
,29.9753214,2.1142578125
,29.9782721,2.0849609375
,30.014626399999997,2.0556640625
,30.0195201,2.021484375
,30.040199899999998,1.982421875
,30.078711300000002,1.943359375
,30.079076299999997,1.8994140625
,30.100853,1.865234375
,30.1174751,1.81640625
,30.1525977,1.77734375
,30.1579993,1.7333984375
,30.1940601,1.6845703125
,30.198974300000003,1.640625
,30.234518299999998,1.5966796875
,30.2348729,1.5576171875
,30.2667322,1.5234375
,30.276348400000003,1.4892578125
,30.312084400000003,1.4501953125
,30.332203399999997,1.4111328125
,30.339215000000003,1.3818359375
,30.3739573,1.3525390625
,30.379669,1.318359375
,30.4157788,1.2890625
,30.416134300000003,1.259765625
,30.455369500000003,1.2353515625
,30.4559013,1.2109375
,30.493299299999997,1.19140625
,30.497564099999998,1.171875
,30.5333915,1.171875
,30.5535853,1.2060546875
,30.558869100000003,1.298828125
,30.578542300000002,1.4208984375
,30.613770199999998,1.5869140625
,30.616841800000003,1.728515625
,30.652434300000003,1.875
,30.6600792,2.0068359375
,30.695198400000002,2.109375
,30.6983806,2.1923828125
,30.733643200000003,2.2509765625
,30.753931799999997,2.2900390625
,30.762132,2.2998046875
,30.796706399999998,2.2900390625
,30.7972252,2.2705078125
,30.829045299999997,2.2607421875
,30.8618241,2.24609375
,30.862410699999998,2.2314453125
,30.879308,2.2119140625
,30.9143105,2.1923828125
,30.934724199999998,2.1630859375
,30.939580399999997,2.12890625
,30.9742339,2.0947265625
,30.978972400000004,2.0654296875
,30.997767500000002,2.03125
,31.034011900000003,1.982421875
,31.055241100000003,1.943359375
,31.0607057,1.89453125
,31.096643,1.8505859375
,31.0991062,1.806640625
,31.133747800000002,1.7578125
,31.1527436,1.7138671875
,31.158321,1.6748046875
,31.2040029,1.6357421875
,31.204359699999998,1.591796875
,31.224486300000002,1.552734375
,31.2411489,1.513671875
,31.2602009,1.474609375
,31.296464899999997,1.4404296875
,31.316307799999997,1.40625
,31.316713300000004,1.3720703125
,31.350848,1.3427734375
,31.372478200000003,1.318359375
,31.380036699999998,1.2939453125
,31.422024399999998,1.2646484375
,31.4224951,1.240234375
,31.456832900000002,1.220703125
,31.459768699999998,1.2109375
,31.498756399999998,1.23046875
,31.5192374,1.3134765625
,31.51997,1.4208984375
,31.559840299999998,1.5771484375
,31.5604302,1.71875
,31.581825700000003,1.865234375
,31.6014987,1.982421875
,31.638157900000003,2.099609375
,31.6408208,2.197265625
,31.6783157,2.255859375
,31.6807121,2.2998046875
,31.715168,2.3095703125
,31.718148499999998,2.3095703125
,31.7515755,2.2998046875
,31.771585700000003,2.28515625
,31.781742199999997,2.265625
,31.8183777,2.24609375
,31.8224468,2.2265625
,31.858137,2.20703125
,31.858580500000002,2.1826171875
,31.894021799999997,2.1630859375
,31.900228,2.1337890625
,31.935802000000002,2.1044921875
,31.941690299999998,2.0703125
,31.978156499999997,2.03125
,31.981155200000003,1.9921875
,32.0161904,1.9482421875
,32.0217048,1.9091796875
,32.0388565,1.865234375
,32.0739221,1.8359375
,32.0951394,1.796875
,32.1001169,1.7626953125
,32.1205068,1.7236328125
,32.1564942,1.6943359375
,32.1616333,1.6552734375
,32.1959677,1.630859375
,32.2163819,1.5966796875
,32.2219711,1.5673828125
,32.2380925,1.533203125
,32.2737849,1.513671875
,32.2812188,1.4892578125
,32.3172926,1.4599609375
,32.3217143,1.4306640625
,32.3573252,1.4013671875
,32.3600863,1.3720703125
,32.3942238,1.3427734375
,32.4144012,1.337890625
,32.4195382,1.3671875
,32.4544177,1.455078125
,32.4810603,1.5673828125
,32.4816446,1.708984375
,32.5181403,1.8408203125
,32.5214629,1.9677734375
,32.5572555,2.0703125
,32.5633271,2.1630859375
,32.5846169,2.236328125
,32.6011967,2.265625
,32.6353389,2.2900390625
,32.641676,2.2900390625
,32.6783886,2.28515625
,32.6833873,2.265625
,32.7201786,2.24609375
,32.7205326,2.2216796875
,32.7558793,2.20703125
,32.7769088,2.1875
,32.7775745,2.177734375
,32.8130124,2.158203125
,32.8340732,2.1337890625
,32.8413001,2.099609375
,32.8854154,2.0654296875
,32.8857757,2.0263671875
,32.9063993,1.9873046875
,32.9231077,1.9482421875
,32.9582547,1.8994140625
,32.9630221,1.85546875
,32.9798087,1.8115234375
,33.0243419,1.7724609375
,33.0246895,1.73828125
,33.045417,1.7041015625
,33.0638722,1.6650390625
,33.104046,1.630859375
,33.1046215,1.591796875
,33.1245884,1.5576171875
,33.1401333,1.5283203125
,33.1786872,1.50390625
,33.1792226,1.484375
,33.2270293,1.455078125
,33.2275985,1.435546875
,33.2430249,1.4013671875
,33.2797104,1.376953125
,33.2829069,1.3525390625
,33.3199045,1.357421875
,33.3203774,1.3916015625
,33.3530821,1.494140625
,33.3741903,1.6162109375
,33.3832669,1.767578125
,33.4025588,1.8994140625
,33.4359644,2.041015625
,33.4576111,2.158203125
,33.4649516,2.2705078125
,33.4815216,2.3486328125
,33.5151104,2.4169921875
,33.5365717,2.451171875
,33.541415,2.4658203125
,33.5852191,2.4609375
,33.5858815,2.4462890625
,33.6010346,2.431640625
,33.6462324,2.4072265625
,33.6468093,2.392578125
,33.666299,2.3779296875
,33.6859939,2.3583984375
,33.702499,2.3291015625
,33.7372712,2.3046875
,33.7423809,2.275390625
,33.7632227,2.2412109375
,33.8047646,2.197265625
,33.805302,2.158203125
,33.8424383,2.1142578125
,33.8428026,2.0654296875
,33.8782008,2.0263671875
,33.9000287,1.9775390625
,33.9005205,1.9384765625
,33.9347698,1.89453125
,33.9563818,1.85546875
,33.9633906,1.81640625
,34.0002431,1.77734375
,34.0056224,1.73828125
,34.0410922,1.7041015625
,34.0416189,1.669921875
,34.0854358,1.650390625
,34.085881,1.62109375
,34.1170847,1.5869140625
,34.1239206,1.552734375
,34.157841,1.5234375
,34.1788647,1.484375
,34.1827614,1.46484375
,34.2179141,1.455078125
,34.2400483,1.4892578125
,34.2430095,1.5869140625
,34.2778058,1.708984375
,34.2828713,1.85546875
,34.3221111,1.9921875
,34.3242463,2.1240234375
,34.3634148,2.2412109375
,34.3637744,2.353515625
,34.4115637,2.4267578125
,34.412138,2.490234375
,34.4409592,2.5244140625
,34.4413257,2.5439453125
,34.4773685,2.5390625
,34.4978195,2.5244140625
,34.5054045,2.509765625
,34.5506348,2.48046875
,34.5510253,2.4560546875
,34.5664302,2.431640625
,34.6031902,2.40234375
,34.6041324,2.3681640625
,34.6238008,2.3388671875
,34.6583477,2.2998046875
,34.6788386,2.255859375
,34.6838611,2.20703125
,34.7190174,2.16796875
,34.7257241,2.1240234375
,34.7698757,2.080078125
,34.770285,2.0361328125
,34.7851082,1.9921875
,34.8039979,1.9482421875
,34.8232313,1.9091796875
,34.8583308,1.875
,34.8793034,1.8359375
,34.8848218,1.796875
,34.9289767,1.7578125
,34.9294851,1.7236328125
,34.9425971,1.689453125
,34.9879755,1.669921875
,34.9883374,1.640625
,35.0044904,1.611328125
,35.0420815,1.58203125
,35.0449642,1.552734375
,35.0816076,1.5185546875
,35.0843266,1.4892578125
,35.1203225,1.4697265625
,35.141373,1.4892578125
,35.1484148,1.5673828125
,35.1632361,1.669921875
,35.1982761,1.8115234375
,35.218085,1.943359375
,35.2241973,2.080078125
,35.268398,2.1923828125
,35.2687523,2.2998046875
,35.28923,2.373046875
,35.3061687,2.431640625
,35.3223513,2.4560546875
,35.3568175,2.470703125
,35.3782473,2.4658203125
,35.385382,2.451171875
,35.4217027,2.431640625
,35.4249957,2.4169921875
,35.4624154,2.3974609375
,35.4670502,2.3779296875
,35.5163804,2.3486328125
,35.5167784,2.32421875
,35.5239032,2.2998046875
,35.5579818,2.2607421875
,35.5807219,2.2265625
,35.5851547,2.1826171875
,35.620239,2.138671875
,35.6248025,2.0947265625
,35.6607862,2.0458984375
,35.6811689,1.9921875
,35.6836951,1.9580078125
,35.7205704,1.9140625
,35.7261602,1.8798828125
,35.760326,1.8408203125
,35.7654909,1.806640625
,35.7990788,1.7724609375
,35.8198695,1.7333984375
,35.827678,1.69921875
,35.8648651,1.66015625
,35.8679761,1.630859375
,35.8842177,1.591796875
,35.9195479,1.5673828125
,35.939257,1.533203125
,35.9464435,1.50390625
,35.9830511,1.46484375
,35.9852583,1.4404296875
,36.0203591,1.4453125
,36.0415407,1.513671875
,36.0419019,1.611328125
,36.0786222,1.7529296875
,36.0986395,1.884765625
,36.1046096,2.03125
,36.1401157,2.158203125
,36.1607125,2.265625
,36.1681169,2.3583984375
,36.2051401,2.421875
,36.2057535,2.4658203125
,36.2498293,2.48046875
,36.2503813,2.490234375
,36.2669538,2.4755859375
,36.2863275,2.4560546875
,36.3201224,2.431640625
,36.3410338,2.412109375
,36.3460857,2.3876953125
,36.3799228,2.3583984375
,36.4008832,2.3291015625
,36.4059733,2.294921875
,36.4404688,2.265625
,36.4450107,2.2216796875
,36.4793104,2.177734375
,36.4989787,2.12890625
,36.5060591,2.080078125
,36.5417174,2.03125
,36.5641777,1.982421875
,36.5686801,1.9287109375
,36.6083291,1.8798828125
,36.60877,1.826171875
,36.6250955,1.7919921875
,36.6615784,1.7529296875
,36.6859888,1.708984375
,36.6863535,1.6650390625
,36.7226431,1.6259765625
,36.7279155,1.58203125
,36.7628627,1.552734375
,36.7940139,1.5185546875
,36.7943676,1.484375
,36.8069178,1.455078125
,36.843155,1.4208984375
,36.8453092,1.3916015625
,36.8826111,1.357421875
,36.8877684,1.3525390625
,36.9361838,1.38671875
,36.9365966,1.474609375
,36.9454387,1.591796875
,36.9819116,1.7431640625
,36.9878871,1.884765625
,37.0241221,2.0361328125
,37.0285781,2.158203125
,37.0754621,2.2705078125
,37.0761501,2.3681640625
,37.0887166,2.4267578125
,37.1246578,2.470703125
,37.125348,2.48046875
,37.1615752,2.4853515625
,37.1673002,2.470703125
,37.2174897,2.451171875
,37.2180667,2.4267578125
,37.2290163,2.4072265625
,37.2482068,2.3828125
,37.2849566,2.3583984375
,37.2895886,2.32421875
,37.3401501,2.294921875
,37.3405074,2.255859375
,37.3454767,2.216796875
,37.3878384,2.177734375
,37.3882742,2.1337890625
,37.4082243,2.08984375
,37.4498573,2.0361328125
,37.450331,1.9873046875
,37.4694105,1.9384765625
,37.5114603,1.8896484375
,37.5118198,1.845703125
,37.5316842,1.8115234375
,37.5468699,1.7724609375
,37.5822707,1.7333984375
,37.6035674,1.6943359375
,37.6089955,1.66015625
,37.6288467,1.6259765625
,37.6652562,1.591796875
,37.6658302,1.5576171875
,37.7004006,1.533203125
,37.7208816,1.5087890625
,37.7282131,1.4794921875
,37.7652512,1.4453125
,37.7697975,1.416015625
,37.8120939,1.4013671875
,37.8126753,1.396484375
,37.8298332,1.4453125
,37.8472577,1.533203125
,37.8822134,1.6748046875
,37.8871559,1.81640625
,37.9359178,1.982421875
,37.9363389,2.1142578125
,37.9484981,2.24609375
,37.9852809,2.34375
,37.989708,2.4267578125
,38.0245151,2.48046875
,38.03072,2.5146484375
,38.0518778,2.5244140625
,38.0681238,2.51953125
,38.1052198,2.5048828125
,38.1099865,2.490234375
,38.155344,2.470703125
,38.1557727,2.4462890625
,38.1692901,2.421875
,38.2067567,2.392578125
,38.2095578,2.353515625
,38.2269977,2.3193359375
,38.2481541,2.28515625
,38.2831151,2.236328125
,38.3045092,2.1923828125
,38.309703,2.1533203125
,38.3461169,2.1044921875
,38.3501345,2.060546875
,38.3892024,2.0068359375
,38.38956,1.953125
,38.4079127,1.904296875
,38.4528757,1.865234375
,38.4532402,1.8212890625
,38.4706378,1.7822265625
,38.5158472,1.73828125
,38.5163549,1.69921875
,38.5315135,1.66015625
,38.5655079,1.62109375
,38.5658658,1.58203125
,38.6026491,1.552734375
,38.6260639,1.513671875
,38.6265734,1.4794921875
,38.6618702,1.4404296875
,38.6819102,1.40625
,38.6915949,1.38671875
,38.72705,1.396484375
,38.7329308,1.46484375
,38.7524305,1.572265625
,38.7717722,1.708984375
,38.7875203,1.8505859375
,38.8223012,2.001953125
,38.8425054,2.1240234375
,38.8500622,2.2412109375
,38.8865516,2.32421875
,38.9061503,2.392578125
,38.91132,2.4267578125
,38.9469719,2.4462890625
,38.9662355,2.44140625
,38.968738,2.431640625
,39.004185,2.4169921875
,39.010481,2.3876953125
,39.0303812,2.3681640625
,39.0650666,2.3388671875
,39.0849007,2.314453125
,39.0909249,2.275390625
,39.1260991,2.2412109375
,39.1464646,2.2021484375
,39.1494942,2.1630859375
,39.1687353,2.119140625
,39.2136376,2.0751953125
,39.2139881,2.0263671875
,39.2309573,1.9775390625
,39.2508692,1.9287109375
,39.2919914,1.875
,39.2923458,1.826171875
,39.3127078,1.7919921875
,39.3319341,1.7529296875
,39.3486896,1.6796875
,39.383282,1.6455078125
,39.4044146,1.6162109375
,39.40982,1.5771484375
,39.4621547,1.5380859375
,39.4625055,1.50390625
,39.4713395,1.4697265625
,39.508534,1.4404296875
,39.5090039,1.40625
,39.5390688,1.3818359375
,39.551248,1.34765625
,39.5865522,1.318359375
,39.5907874,1.30859375
,39.6326864,1.34765625
,39.6332777,1.4453125
,39.6799019,1.5625
,39.6804723,1.7041015625
,39.7017618,1.8408203125
,39.7113879,1.9921875
,39.7582883,2.109375
,39.7586519,2.216796875
,39.7726808,2.294921875
,39.8218788,2.3486328125
,39.822485,2.3779296875
,39.8324143,2.392578125
,39.849675,2.3828125
,39.8851948,2.373046875
,39.9051084,2.353515625
,39.9101729,2.333984375
,39.9458977,2.3046875
,39.9683091,2.28515625
,39.9730481,2.255859375
,40.0219801,2.216796875
,40.0224709,2.1875
,40.0292808,2.1435546875
,40.0691139,2.109375
,40.069469,2.0654296875
,40.1047805,2.021484375
,40.1257738,1.97265625
,40.1312309,1.9287109375
,40.166183,1.8798828125
,40.1859478,1.8310546875
,40.1936485,1.787109375
,40.2281886,1.7431640625
,40.2311763,1.69921875
,40.2723397,1.6650390625
,40.2727925,1.6357421875
,40.2915733,1.5966796875
,40.3270922,1.5625
,40.3323098,1.533203125
,40.3526593,1.50390625
,40.3881543,1.46484375
,40.4097785,1.435546875
,40.4103204,1.4013671875
,40.4450509,1.376953125
,40.4664861,1.3427734375
,40.4733672,1.318359375
,40.5092205,1.30859375
,40.5120183,1.337890625
,40.5505408,1.4111328125
,40.5531457,1.5283203125
,40.5710036,1.66015625
,40.6059359,1.81640625
,40.610711,1.9580078125
,40.6450172,2.0654296875
,40.6658428,2.1630859375
,40.6734948,2.2412109375
,40.7086484,2.2900390625
,40.7132926,2.3095703125
,40.7491942,2.3095703125
,40.7496773,2.28515625
,40.7999738,2.265625
,40.8005584,2.24609375
,40.8292035,2.2216796875
,40.8317209,2.2021484375
,40.8687657,2.177734375
,40.8718804,2.1533203125
,40.9232798,2.119140625
,40.9238496,2.08984375
,40.9539302,2.05078125
,40.9545118,2.01171875
,40.9702828,1.97265625
,41.0047069,1.93359375
,41.0251973,1.8896484375
,41.0331257,1.845703125
,41.0691853,1.796875
,41.0734495,1.7529296875
,41.1090371,1.7041015625
,41.1163622,1.66015625
,41.1313538,1.6162109375
,41.1719853,1.5869140625
,41.1724602,1.552734375
,41.2030686,1.5185546875
,41.2129813,1.484375
,41.2491004,1.4501953125
,41.2788796,1.416015625
,41.2793232,1.38671875
,41.3109103,1.357421875
,41.3112777,1.3232421875
,41.3564533,1.298828125
,41.3569263,1.26953125
,41.3775184,1.259765625
,41.3937567,1.2744140625
,41.431023,1.3427734375
,41.4366728,1.4599609375
,41.4705904,1.611328125
,41.4711678,1.7626953125
,41.5137552,1.9287109375
,41.5141867,2.0556640625
,41.5341482,2.177734375
,41.5530524,2.2802734375
,41.5886193,2.3486328125
,41.593319,2.3974609375
,41.6401878,2.412109375
,41.6405593,2.4072265625
,41.6567428,2.3876953125
,41.6925063,2.36328125
,41.6928633,2.333984375
,41.7281057,2.32421875
,41.7320194,2.2998046875
,41.7676075,2.275390625
,41.7879306,2.24609375
,41.7957191,2.216796875
,41.8311575,2.177734375
,41.836212,2.138671875
,41.8510491,2.08984375
,41.8872656,2.0654296875
,41.9084249,2.0263671875
,41.9132272,1.982421875
,41.9528263,1.9384765625
,41.98382,1.89453125
,41.9841748,1.8505859375
,41.9952897,1.8017578125
,42.0448334,1.7626953125
,42.0451938,1.71875
,42.0654298,1.6796875
,42.0729349,1.650390625
,42.1062658,1.6162109375
,42.1269754,1.5869140625
,42.1342734,1.5576171875
,42.1704062,1.5185546875
,42.1743801,1.4892578125
,42.2101603,1.46484375
,42.2331009,1.4306640625
,42.233466,1.40625
,42.2663159,1.3720703125
,42.2875299,1.357421875
,42.2956616,1.34765625
,42.3293982,1.396484375
,42.3346777,1.4892578125
,42.3733092,1.630859375
,42.3760506,1.7822265625
,42.4117435,1.943359375
,42.4123363,2.0751953125
,42.4455852,2.2119140625
,42.4666129,2.314453125
,42.476057,2.40234375
,42.4950196,2.451171875
,42.5307662,2.4853515625
,42.5518107,2.4853515625
,42.5561139,2.470703125
,42.591726,2.4462890625
,42.5920851,2.4267578125
,42.6401277,2.412109375
,42.6406972,2.392578125
,42.6712544,2.373046875
,42.675526,2.353515625
,42.7164424,2.3193359375
,42.7167968,2.2900390625
,42.7525828,2.24609375
,42.7534195,2.20703125
,42.7939655,2.16796875
,42.7943849,2.1240234375
,42.8312683,2.0751953125
,42.8339542,2.03125
,42.868825,1.97265625
,42.8891887,1.9287109375
,42.8970805,1.875
,42.9336353,1.8359375
,42.9342002,1.787109375
,42.9679792,1.7529296875
,42.9880416,1.71875
,42.9938247,1.6796875
,43.030215,1.6357421875
,43.0350235,1.6064453125
,43.0731917,1.5576171875
,43.0782549,1.5234375
,43.0971702,1.484375
,43.1321826,1.4453125
,43.1344352,1.4013671875
,43.172032,1.376953125
,43.1766836,1.357421875
,43.1953457,1.3720703125
,43.2320483,1.4453125
,43.2351585,1.5625
,43.2762622,1.708984375
,43.2766497,1.8505859375
,43.3115824,1.9970703125
,43.3329924,2.1142578125
,43.3334629,2.2314453125
,43.3697868,2.32421875
,43.3983957,2.392578125
,43.3988284,2.431640625
,43.4150213,2.44140625
,43.4525553,2.431640625
,43.4569674,2.412109375
,43.4948957,2.392578125
,43.495473,2.36328125
,43.5148494,2.34375
,43.5505195,2.32421875
,43.5576235,2.3046875
,43.5928559,2.2705078125
,43.5951427,2.236328125
,43.6306331,2.2021484375
,43.6514383,2.158203125
,43.6521943,2.109375
,43.6870083,2.0703125
,43.7077997,2.0263671875
,43.7151938,1.97265625
,43.7508176,1.923828125
,43.7835663,1.875
,43.7841291,1.826171875
,43.7976469,1.787109375
,43.8446575,1.73828125
,43.8451884,1.689453125
,43.8662123,1.650390625
,43.8743639,1.6064453125
,43.9100813,1.5771484375
,43.9305578,1.5478515625
,43.9377608,1.5234375
,43.9842894,1.4990234375
,43.9848214,1.46484375
,43.9977687,1.4306640625
,44.0321456,1.396484375
,44.0538643,1.3671875
,44.0542258,1.34765625
,44.0911599,1.34765625
,44.1121747,1.3916015625
,44.1169706,1.4990234375
,44.1512321,1.630859375
,44.1713238,1.787109375
,44.1773424,1.9287109375
,44.2130835,2.0703125
,44.2161478,2.177734375
,44.2361036,2.2900390625
,44.2799476,2.36328125
,44.280322,2.421875
,44.3012959,2.44140625
,44.3182703,2.4462890625
,44.3599627,2.431640625
,44.360564,2.412109375
,44.3764609,2.392578125
,44.3949543,2.373046875
,44.4380258,2.3486328125
,44.4385973,2.333984375
,44.4857283,2.3046875
,44.4860848,2.265625
,44.4996431,2.2265625
,44.5347073,2.1875
,44.5381616,2.138671875
,44.5743439,2.08984375
,44.5799818,2.0458984375
,44.5958188,1.9921875
,44.6313037,1.953125
,44.6364141,1.9091796875
,44.6710551,1.8603515625
,44.6921095,1.8115234375
,44.6991715,1.7626953125
,44.7493034,1.7138671875
,44.7496637,1.6748046875
,44.7611263,1.640625
,44.7776049,1.6015625
,44.813356,1.572265625
,44.8184435,1.54296875
,44.853301,1.513671875
,44.8590305,1.4794921875
,44.8926776,1.4501953125
,44.913527,1.4111328125
,44.9194751,1.3818359375
,44.9359887,1.34765625
,44.9562446,1.337890625
,44.9917168,1.337890625
,45.0140881,1.3916015625
,45.0188147,1.4892578125
,45.0623687,1.630859375
,45.0627348,1.7724609375
,45.0785294,1.9189453125
,45.1129412,2.05078125
,45.1345541,2.1533203125
,45.1400883,2.2509765625
,45.1560677,2.28515625
,45.2027028,2.333984375
,45.2031865,2.3486328125
,45.2203156,2.353515625
,45.2543604,2.3291015625
,45.2594995,2.3095703125
,45.3106391,2.2802734375
,45.3111349,2.2607421875
,45.3184822,2.2314453125
,45.338335,2.216796875
,45.3878488,2.1875
,45.3882188,2.158203125
,45.3979319,2.1240234375
,45.4332473,2.0849609375
,45.4527543,2.041015625
,45.4623097,1.9921875
,45.482369,1.9384765625
,45.4982159,1.904296875
,45.5320931,1.865234375
,45.539373,1.806640625
,45.5754995,1.7529296875
,45.5784538,1.7236328125
,45.6239113,1.6796875
,45.6242993,1.6259765625
,45.6551897,1.58203125
,45.6555512,1.5576171875
,45.6910561,1.5234375
,45.7162665,1.474609375
,45.7168462,1.4501953125
,45.7630343,1.42578125
,45.7633926,1.3916015625
,45.7930475,1.3623046875
,45.8001489,1.3330078125
,45.8363139,1.3037109375
,45.8371795,1.2841796875
,45.8741347,1.3134765625
,45.9044497,1.3916015625
,45.9048018,1.5185546875
,45.9188055,1.6650390625
,45.9550397,1.8310546875
,45.9597721,1.9775390625
,45.9958619,2.12890625
,46.0016587,2.24609375
,46.0445419,2.353515625
,46.0450967,2.44140625
,46.0591831,2.48046875
,46.0933572,2.5146484375
,46.1141743,2.5146484375
,46.1222568,2.5146484375
,46.1400787,2.4951171875
,46.1751496,2.48046875
,46.196732,2.4560546875
,46.2017211,2.431640625
,46.218038,2.3974609375
,46.2601466,2.373046875
,46.260719,2.333984375
,46.2974418,2.294921875
,46.2980298,2.24609375
,46.3210235,2.197265625
,46.3688104,2.1484375
,46.3691633,2.1044921875
,46.3831365,2.0556640625
,46.3999225,2.001953125
,46.4349209,1.9580078125
,46.4389189,1.9140625
,46.4724226,1.865234375
,46.4940062,1.8212890625
,46.4995874,1.77734375
,46.5367434,1.7333984375
,46.5416014,1.689453125
,46.5569965,1.650390625
,46.5919594,1.6162109375
,46.6128134,1.58203125
,46.6197223,1.552734375
,46.654504,1.513671875
,46.6596297,1.4794921875
,46.697988,1.4453125
,46.717644,1.40625
,46.7225383,1.376953125
,46.7587549,1.3671875
,46.7632714,1.42578125
,46.7791949,1.513671875
,46.8132618,1.6650390625
,46.8347689,1.8115234375
,46.841896,1.97265625
,46.8618654,2.1044921875
,46.8992748,2.2314453125
,46.9020236,2.3291015625
,46.9356553,2.4169921875
,46.9570258,2.470703125
,46.9575193,2.5
,46.9952763,2.5
,47.0247161,2.4951171875
,47.0250761,2.48046875
,47.042138,2.4609375
,47.0759279,2.4365234375
,47.0984257,2.412109375
,47.1035194,2.3876953125
,47.1180151,2.3583984375
,47.1649612,2.333984375
,47.1653156,2.294921875
,47.1807936,2.2509765625
,47.2277993,2.2119140625
,47.2281906,2.1630859375
,47.2579178,2.1142578125
,47.2628859,2.0654296875
,47.2789472,2.01171875
,47.3216245,1.962890625
,47.3542226,1.9189453125
,47.3545818,1.8359375
,47.3603653,1.8017578125
,47.3951571,1.7578125
,47.4173856,1.728515625
,47.422017,1.689453125
,47.4601317,1.650390625
,47.4645128,1.611328125
,47.5086326,1.5771484375
,47.5089908,1.5380859375
,47.5191268,1.5185546875
,47.5551211,1.484375
,47.5756104,1.455078125
,47.5813976,1.4208984375
,47.615458,1.3916015625
,47.6361627,1.3623046875
,47.6445072,1.3720703125
,47.6961674,1.42578125
,47.6965208,1.5283203125
,47.7007891,1.6796875
,47.736203,1.826171875
,47.7410121,1.97265625
,47.7764324,2.0947265625
,47.7966966,2.20703125
,47.8020984,2.2900390625
,47.8412294,2.353515625
,47.8417448,2.392578125
,47.8780479,2.4072265625
,47.881838,2.3974609375
,47.9341531,2.373046875
,47.9347597,2.3486328125
,47.9431529,2.32421875
,47.9625998,2.2998046875
,47.9973501,2.275390625
,48.0177706,2.24609375
,48.0214348,2.216796875
,48.0558612,2.197265625
,48.0606552,2.138671875
,48.096993,2.1142578125
,48.1018215,2.080078125
,48.1361072,2.0361328125
,48.1569394,1.9921875
,48.1642701,1.943359375
,48.2006711,1.8896484375
,48.2054585,1.845703125
,48.2205603,1.7919921875
,48.2567968,1.748046875
,48.2615845,1.7041015625
,48.2994002,1.6650390625
,48.303744,1.6259765625
,48.3377062,1.5869140625
,48.3430448,1.5478515625
,48.3792432,1.5087890625
,48.3845965,1.474609375
,48.4014522,1.4404296875
,48.4364826,1.4111328125
,48.4571547,1.3818359375
,48.4650406,1.34765625
,48.4829979,1.3134765625
,48.5186895,1.2841796875
,48.5236336,1.26953125
,48.5607723,1.30859375
,48.561362,1.396484375
,48.5994409,1.5380859375
,48.6000162,1.7041015625
,48.6383744,1.8505859375
,48.6436676,1.9970703125
,48.6848402,2.119140625
,48.685419,2.236328125
,48.7216112,2.3193359375
,48.7244682,2.3779296875
,48.7399451,2.4072265625
,48.7771323,2.421875
,48.7828343,2.4072265625
,48.8254681,2.3876953125
,48.8258288,2.3583984375
,48.8437633,2.333984375
,48.8863483,2.3046875
,48.8871905,2.2802734375
,48.9065917,2.24609375
,48.9261843,2.216796875
,48.9604292,2.177734375
,48.9638693,2.138671875
,48.9827553,2.099609375
,49.0183374,2.0556640625
,49.0379396,2.01171875
,49.0427814,1.9677734375
,49.0777669,1.9189453125
,49.1009784,1.8701171875
,49.1064007,1.8212890625
,49.1227432,1.7724609375
,49.1588179,1.728515625
,49.1619829,1.689453125
,49.1827367,1.650390625
,49.2282414,1.611328125
,49.2285947,1.572265625
,49.2496593,1.5380859375
,49.2647363,1.4990234375
,49.3061336,1.4599609375
,49.3067036,1.4208984375
,49.3269649,1.3916015625
,49.3445499,1.3623046875
,49.3638626,1.328125
,49.3998431,1.2939453125
,49.4303643,1.2646484375
,49.4307243,1.240234375
,49.4470068,1.2548828125
,49.4606326,1.30859375
,49.4989986,1.42578125
,49.5034217,1.572265625
,49.5534737,1.7333984375
,49.5538587,1.875
,49.5633598,2.0166015625
,49.5982501,2.1337890625
,49.6188485,2.2216796875
,49.6257091,2.2900390625
,49.6618297,2.3193359375
,49.6661689,2.3291015625
,49.6840587,2.314453125
,49.7189553,2.2998046875
,49.7237268,2.2802734375
,49.7590242,2.255859375
,49.7786169,2.2314453125
,49.7867859,2.2119140625
,49.8238967,2.1826171875
,49.8267725,2.1533203125
,49.8422728,2.1142578125
,49.882017,2.0849609375
,49.8826396,2.05078125
,49.9165098,2.01171875
,49.9367491,1.962890625
,49.9436348,1.9189453125
,49.978722,1.865234375
,50.0090828,1.8212890625
,50.0096371,1.7724609375
,50.0222793,1.7236328125
,50.0693726,1.6796875
,50.0697396,1.650390625
,50.084062,1.6162109375
,50.1213698,1.5771484375
,50.1258309,1.5380859375
,50.1617588,1.50390625
,50.165822,1.46484375
,50.1823911,1.42578125
,50.2177877,1.4013671875
,50.2390721,1.3720703125
,50.2437319,1.3037109375
,50.2789687,1.2841796875
,50.299863,1.259765625
,50.3069452,1.2353515625
,50.3258033,1.23046875
,50.3630661,1.279296875
,50.3661823,1.3720703125
,50.4027735,1.50390625
,50.4031987,1.640625
,50.4413254,1.7919921875
,50.4447636,1.9189453125
,50.4889078,2.03125
,50.4899413,2.119140625
,50.505381,2.1875
,50.5384301,2.2265625
,50.5595084,2.2314453125
,50.5690884,2.2216796875
,50.5845705,2.1923828125
,50.6361717,2.177734375
,50.6366567,2.1533203125
,50.646606,2.1337890625
,50.682079,2.109375
,50.6856678,2.0849609375
,50.722574,2.05078125
,50.7277388,2.021484375
,50.7434928,1.9775390625
,50.7914895,1.9482421875
,50.7919233,1.9091796875
,50.8047897,1.865234375
,50.8527767,1.81640625
,50.8531376,1.77734375
,50.8679931,1.728515625
,50.8881205,1.6796875
,50.9324008,1.6357421875
,50.9329756,1.5869140625
,50.9486145,1.5478515625
,50.9644619,1.4794921875
,50.9985235,1.455078125
,51.0190775,1.42578125
,51.026043,1.396484375
,51.0746975,1.3623046875
,51.075288,1.3330078125
,51.0889556,1.30859375
,51.1256051,1.2841796875
,51.1259555,1.2548828125
,51.1661168,1.23046875
,51.1666865,1.2109375
,51.2141087,1.201171875
,51.2146257,1.2353515625
,51.2440754,1.318359375
,51.2469968,1.455078125
,51.2853631,1.6064453125
,51.2879029,1.767578125
,51.304668,1.9091796875
,51.3543646,2.060546875
,51.3548874,2.1728515625
,51.3858057,2.2802734375
,51.3861866,2.353515625
,51.4325142,2.40234375
,51.4330376,2.4169921875
,51.4534396,2.4169921875
,51.4657677,2.40234375
,51.4842827,2.3876953125
,51.5274718,2.3681640625
,51.5280992,2.3388671875
,51.5582155,2.314453125
,51.5672085,2.28515625
,51.6029381,2.2509765625
,51.6084102,2.2119140625
,51.645684,2.1728515625
,51.6462858,2.12890625
,51.6691965,2.08984375
,51.6868707,2.0166015625
,51.7223011,1.9775390625
,51.7264613,1.93359375
,51.7624179,1.8896484375
,51.7664941,1.845703125
,51.8006647,1.796875
,51.8225427,1.7578125
,51.8299376,1.7138671875
,51.8695831,1.6748046875
,51.8701614,1.6455078125
,51.8879558,1.6162109375
,51.9240414,1.58203125
,51.9261149,1.5478515625
,51.9660885,1.513671875
,51.966958,1.4794921875
,52.0024584,1.4453125
,52.023443,1.4111328125
,52.0265089,1.3720703125
,52.0468842,1.34765625
,52.0834379,1.328125
,52.0864455,1.3427734375
,52.1236219,1.3916015625
,52.1281869,1.5185546875
,52.1630457,1.669921875
,52.1688073,1.8212890625
,52.2051167,1.9775390625
,52.2055984,2.1142578125
,52.2413614,2.24609375
,52.2614248,2.353515625
,52.2664804,2.44140625
,52.2869187,2.5
,52.3251969,2.51953125
,52.3283833,2.529296875
,52.3636326,2.51953125
,52.3670092,2.5
,52.4030259,2.4853515625
,52.4047133,2.4609375
,52.4414312,2.4365234375
,52.461328,2.412109375
,52.4678922,2.373046875
,52.5012315,2.333984375
,52.5232197,2.2900390625
,52.5280619,2.24609375
,52.567274,2.1875
,52.5867788,2.1435546875
,52.5871324,2.08984375
,52.6075743,2.0458984375
,52.6454947,1.9970703125
,52.649434,1.9580078125
,52.6927302,1.904296875
,52.6933017,1.8603515625
,52.7109188,1.81640625
,52.7453267,1.7724609375
,52.7457345,1.728515625
,52.7808911,1.69921875
,52.8032743,1.66015625
,52.8079531,1.62109375
,52.846278,1.5869140625
,52.8659092,1.552734375
,52.8710107,1.513671875
,52.8898836,1.474609375
,52.9400651,1.435546875
,52.9407714,1.396484375
,52.9699962,1.3623046875
,52.9709412,1.337890625
,52.9890937,1.337890625
,53.0342291,1.38671875
,53.0348178,1.494140625
,53.0485793,1.6162109375
,53.095975,1.7626953125
,53.0963966,1.904296875
,53.1172174,2.0166015625
,53.1322716,2.1240234375
,53.1492972,2.177734375
,53.18397,2.255859375
,53.1891113,2.28515625
,53.2370976,2.294921875
,53.2375645,2.2802734375
,53.2675368,2.265625
,53.2700711,2.2412109375
,53.3078783,2.2216796875
,53.3084656,2.197265625
,53.328173,2.177734375
,53.3789749,2.1533203125
,53.3793253,2.1240234375
,53.3899014,2.08984375
,53.4410253,2.05078125
,53.4416064,2.0068359375
,53.4507694,1.9580078125
,53.4716901,1.9091796875
,53.4890493,1.85546875
,53.5244243,1.8115234375
,53.5272342,1.767578125
,53.5650568,1.71875
,53.5856972,1.6748046875
,53.5908567,1.630859375
,53.6107972,1.5869140625
,53.6449257,1.54296875
,53.6653415,1.50390625
,53.668292,1.4794921875
,53.7044673,1.4453125
,53.7357144,1.4111328125
,53.7363503,1.3818359375
,53.7507773,1.3525390625
,53.796992,1.3134765625
,53.7975386,1.2841796875
,53.8110041,1.2548828125
,53.8272268,1.2255859375
,53.8625792,1.2158203125
,53.8900389,1.201171875
,53.8906353,1.279296875
,53.9374241,1.396484375
,53.9378958,1.5478515625
,53.9678236,1.69921875
,53.9726895,1.85546875
,53.9905115,1.982421875
,54.0260864,2.099609375
,54.0459203,2.1875
,54.0481898,2.275390625
,54.0900786,2.3291015625
,54.0906643,2.3486328125
,54.1378244,2.3486328125
,54.1382902,2.333984375
,54.1668376,2.3193359375
,54.1732153,2.2998046875
,54.207318,2.28515625
,54.2076678,2.265625
,54.2418876,2.24609375
,54.2619584,2.2216796875
,54.2711675,2.1875
,54.3075501,2.1484375
,54.3093768,2.109375
,54.343152,2.060546875
,54.3635913,2.01171875
,54.3745203,1.9677734375
,54.3905682,1.9091796875
,54.4253489,1.865234375
,54.4313546,1.81640625
,54.4673959,1.77734375
,54.4698189,1.728515625
,54.5076855,1.6845703125
,54.5127043,1.640625
,54.5472627,1.6015625
,54.547614,1.5625
,54.5833116,1.533203125
,54.6038483,1.4697265625
,54.6099803,1.4501953125
,54.644234,1.4208984375
,54.6665548,1.3916015625
,54.6735258,1.357421875
,54.7092676,1.3330078125
,54.7139405,1.30859375
,54.7340875,1.279296875
,54.7689509,1.279296875
,54.7694816,1.3134765625
,54.8046819,1.416015625
,54.8265328,1.5380859375
,54.8309762,1.6943359375
,54.8677294,1.8359375
,54.8723886,1.9775390625
,54.9084163,2.08984375
,54.9134575,2.197265625
,54.9309269,2.275390625
,54.9653828,2.3388671875
,54.9703615,2.36328125
,55.005016,2.3681640625
,55.0256352,2.353515625
,55.0335546,2.333984375
,55.068857,2.314453125
,55.0733617,2.294921875
,55.0940229,2.275390625
,55.1098784,2.255859375
,55.1443781,2.2412109375
,55.1652237,2.2119140625
,55.1729954,2.1826171875
,55.2187981,2.1435546875
,55.219155,2.109375
,55.2325876,2.0654296875
,55.2822142,2.021484375
,55.282571,1.97265625
,55.2952206,1.93359375
,55.3112327,1.8603515625
,55.3467073,1.8310546875
,55.351346,1.7919921875
,55.3864765,1.748046875
,55.4082754,1.708984375
,55.4124638,1.669921875
,55.4488797,1.630859375
,55.4538332,1.5869140625
,55.4933686,1.5478515625
,55.4937218,1.50390625
,55.5117442,1.4794921875
,55.5458253,1.4453125
,55.5666736,1.40625
,55.5716718,1.3720703125
,55.6121012,1.3330078125
,55.6150952,1.2890625
,55.6345759,1.2646484375
,55.6697871,1.26953125
,55.6702341,1.3134765625
,55.6908425,1.4208984375
,55.7345384,1.5478515625
,55.7348901,1.6943359375
,55.7539151,1.81640625
,55.7962198,1.93359375
,55.7968418,2.021484375
,55.8156588,2.099609375
,55.8308703,2.138671875
,55.8749167,2.16796875
,55.8752729,2.1728515625
,55.896441,2.158203125
,55.9138936,2.138671875
,55.949365,2.119140625
,55.9536745,2.099609375
,55.9894061,2.08984375
,56.0093326,2.0703125
,56.0098836,2.0458984375
,56.0470035,2.0263671875
,56.0678821,1.97265625
,56.0728564,1.943359375
,56.1096949,1.9140625
,56.1125139,1.8798828125
,56.1481264,1.8408203125
,56.1696795,1.796875
,56.1748802,1.7529296875
,56.2197011,1.7041015625
,56.2202292,1.66015625
,56.2322053,1.640625
,56.2654513,1.6064453125
,56.2858344,1.572265625
,56.2934547,1.54296875
,56.331258,1.50390625
,56.3346581,1.4697265625
,56.371067,1.4306640625
,56.376423,1.4013671875
,56.3930714,1.3623046875
,56.4277754,1.337890625
,56.4326702,1.3134765625
,56.4691455,1.2890625
,56.4747051,1.2646484375
,56.4946014,1.25
,56.5444244,1.2255859375
,56.5449072,1.25
,56.551687,1.3134765625
,56.5873282,1.435546875
,56.5920665,1.572265625
,56.6282505,1.7333984375
,56.6486335,1.8798828125
,56.65369,2.001953125
,56.7007551,2.119140625
,56.7012097,2.2119140625
,56.7292064,2.28515625
,56.7314572,2.3291015625
,56.7782887,2.3583984375
,56.7786399,2.333984375
,56.8090497,2.333984375
,56.8134844,2.32421875
,56.8487372,2.3095703125
,56.8694329,2.294921875
,56.8742562,2.275390625
,56.909798,2.255859375
,56.9311726,2.2265625
,56.9359145,2.197265625
,56.9534474,2.1533203125
,56.9895603,2.119140625
,57.0130725,2.080078125
,57.0137683,2.0458984375
,57.0603067,1.9970703125
,57.0608783,1.953125
,57.0906975,1.8994140625
,57.0960207,1.8505859375
,57.1139671,1.8017578125
,57.1492584,1.7626953125
,57.1539533,1.71875
,57.1882799,1.6796875
,57.2090574,1.640625
,57.2142236,1.6015625
,57.2478468,1.5576171875
,57.2680959,1.5283203125
,57.2750892,1.494140625
,57.2924657,1.4599609375
,57.326702,1.4306640625
,57.3472644,1.4013671875
,57.3545468,1.3623046875
,57.3895398,1.3330078125
,57.3948347,1.3037109375
,57.4311675,1.2841796875
,57.4367973,1.3037109375
,57.4534641,1.3720703125
,57.4891829,1.4892578125
,57.4929092,1.630859375
,57.5295912,1.787109375
,57.5348205,1.923828125
,57.5739291,2.05078125
,57.5742847,2.16796875
,57.62117,2.2509765625
,57.6215312,2.3193359375
,57.6513324,2.353515625
,57.6565345,2.373046875
,57.6730305,2.36328125
,57.706315,2.3583984375
,57.7260444,2.34375
,57.7363876,2.3291015625
,57.7735254,2.3046875
,57.7779003,2.2900390625
,57.7966703,2.265625
,57.8334174,2.236328125
,57.8340557,2.2021484375
,57.8554248,2.1728515625
,57.8741188,2.12890625
,57.9091749,2.0947265625
,57.932085,2.05078125
,57.9364504,2.001953125
,57.9571578,1.9580078125
,57.9950998,1.9091796875
,57.9956636,1.865234375
,58.0141637,1.81640625
,58.0496878,1.7822265625
,58.0545126,1.73828125
,58.0915544,1.69921875
,58.0960561,1.66015625
,58.1329366,1.62109375
,58.1371996,1.5869140625
,58.1728363,1.552734375
,58.1732068,1.513671875
,58.1981783,1.4892578125
,58.2187061,1.435546875
,58.234947,1.3818359375
,58.2757893,1.3671875
,58.2762439,1.34765625
,58.3127356,1.3330078125
,58.3185621,1.3134765625
,58.3368616,1.3232421875
,58.3715482,1.3623046875
,58.4004855,1.46484375
,58.4010621,1.5869140625
,58.4134096,1.7431640625
,58.4500974,1.875
,58.4704098,2.0068359375
,58.4778186,2.109375
,58.5261402,2.20703125
,58.5267409,2.265625
,58.5377645,2.314453125
,58.5729858,2.3291015625
,58.5939686,2.32421875
,58.5973667,2.32421875
,58.6157145,2.314453125
,58.6528714,2.3046875
,58.6738662,2.294921875
,58.6768198,2.2900390625
,58.7116009,2.275390625
,58.7313998,2.255859375
,58.7349622,2.2314453125
,58.757201,2.20703125
,58.8053693,2.177734375
,58.8057184,2.1533203125
,58.817392,2.119140625
,58.8516784,2.0849609375
,58.8575717,2.05078125
,58.8925452,2.0068359375
,58.8978437,1.97265625
,58.9190667,1.93359375
,58.9413647,1.8798828125
,58.9572415,1.826171875
,59.0058375,1.8115234375
,59.0062025,1.787109375
,59.0179872,1.7626953125
,59.038434,1.728515625
,59.0759022,1.69921875
,59.078622,1.669921875
,59.1133403,1.640625
,59.1338188,1.611328125
,59.1370327,1.5869140625
,59.1733077,1.5478515625
,59.1760965,1.5234375
,59.2108336,1.4892578125
,59.231771,1.474609375
,59.2391482,1.50390625
,59.2858937,1.5771484375
,59.2862868,1.7041015625
,59.2964561,1.8359375
,59.3300879,1.9873046875
,59.3504125,2.119140625
,59.356073,2.2412109375
,59.3913164,2.333984375
,59.4110135,2.421875
,59.4190067,2.470703125
,59.4375199,2.5
,59.4553711,2.5048828125
,59.5028695,2.5048828125
,59.5034441,2.4853515625
,59.5225924,2.4560546875
,59.5386827,2.4267578125
,59.5574264,2.3974609375
,59.5922772,2.36328125
,59.6135438,2.3291015625
,59.6190847,2.2900390625
,59.6352636,2.2412109375
,59.6691689,2.1923828125
,59.6904409,2.1240234375
,59.6982754,2.08984375
,59.7334973,2.05078125
,59.7372177,2.001953125
,59.7731994,1.9580078125
,59.7785411,1.9091796875
,59.8137367,1.8603515625
,59.8334802,1.8212890625
,59.8412439,1.77734375
,59.8563717,1.728515625
,59.8910827,1.6943359375
,59.9113861,1.6552734375
,59.9194259,1.6162109375
,59.9567858,1.5771484375
,59.9600292,1.54296875
,59.9963382,1.4990234375
,60.0006877,1.46484375
,60.0166373,1.42578125
,60.0507386,1.396484375
,60.0714112,1.357421875
,60.0780649,1.3330078125
,60.125676,1.3037109375
,60.1262518,1.3037109375
,60.1381813,1.3525390625
,60.1742126,1.4404296875
,60.1793904,1.5771484375
,60.1964814,1.7138671875
,60.2319387,1.8701171875
,60.252075,1.9970703125
,60.258137,2.1240234375
,60.3092217,2.2216796875
,60.3095859,2.3046875
,60.3208482,2.353515625
,60.3568778,2.3876953125
,60.3572718,2.3876953125
,60.3908206,2.3876953125
,60.4116136,2.3486328125
,60.4191285,2.34375
,60.4527832,2.32421875
,60.4740755,2.3193359375
,60.4788201,2.2998046875
,60.501448,2.2705078125
,60.5361052,2.2412109375
,60.5423112,2.2119140625
,60.5766271,2.16796875
,60.5769793,2.12890625
,60.6117496,2.099609375
,60.6342417,2.0556640625
,60.6387045,2.01171875
,60.673933,1.9677734375
,60.6945809,1.923828125
,60.7024509,1.8798828125
,60.737232,1.8359375
,60.7375919,1.7919921875
,60.7746514,1.7529296875
,60.7790205,1.7236328125
,60.7993293,1.6845703125
,60.8421384,1.650390625
,60.8427254,1.6162109375
,60.860597,1.5869140625
,60.8961275,1.5576171875
,60.9025,1.5234375
,60.9198794,1.4892578125
,60.9392538,1.4599609375
,60.9822888,1.42578125
,60.9828528,1.4013671875
,60.999459,1.3671875
,61.034186,1.3525390625
,61.0535825,1.3623046875
,61.0608008,1.435546875
,61.078424,1.533203125
,61.1147944,1.6845703125
,61.1246557,1.8017578125
,61.1393785,1.9091796875
,61.178168,2.041015625
,61.1787536,2.1435546875
,61.2153632,2.2265625
,61.2365087,2.275390625
,61.2414136,2.3046875
,61.2615554,2.3046875
,61.3115271,2.294921875
,61.3119567,2.275390625
,61.3185569,2.2607421875
,61.3532538,2.24609375
,61.3732941,2.236328125
,61.3811609,2.2216796875
,61.4161892,2.197265625
,61.4220026,2.1728515625
,61.4569574,2.138671875
,61.4619685,2.099609375
,61.4781964,2.0556640625
,61.5135923,2.021484375
,61.5356594,1.9775390625
,61.5402147,1.9384765625
,61.5783763,1.8896484375
,61.5812897,1.8505859375
,61.6179263,1.8017578125
,61.6201995,1.7626953125
,61.6549853,1.71875
,61.6593549,1.689453125
,61.6946227,1.6552734375
,61.7148146,1.62109375
,61.7194329,1.58203125
,61.7560473,1.552734375
,61.7760604,1.5234375
,61.7806356,1.494140625
,61.815629,1.4599609375
,61.8356483,1.4306640625
,61.8426613,1.4013671875
,61.8598793,1.3427734375
,61.9041435,1.3330078125
,61.9047162,1.318359375
,61.9230783,1.337890625
,61.9417456,1.4013671875
,61.9774317,1.5185546875
,61.9823862,1.6552734375
,62.017110900000006,1.8115234375
,62.0396363,1.953125
,62.040316000000004,2.08984375
,62.076072100000005,2.2216796875
,62.081977300000005,2.3193359375
,62.1212462,2.3974609375
,62.1218236,2.44140625
,62.157583200000005,2.470703125
,62.1621942,2.4658203125
,62.198598000000004,2.4560546875
,62.1989485,2.4365234375
,62.21941579999999,2.421875
,62.2410996,2.4072265625
,62.2755693,2.392578125
,62.281197199999994,2.3681640625
,62.3178322,2.34375
,62.322875100000005,2.3046875
,62.358033500000005,2.2705078125
,62.3583967,2.2216796875
,62.396198999999996,2.197265625
,62.40081910000001,2.158203125
,62.4463908,2.109375
,62.446758200000005,2.060546875
,62.461588000000006,2.0166015625
,62.5098423,1.962890625
,62.5103153,1.9189453125
,62.5296659,1.875
,62.5435992,1.826171875
,62.562741599999995,1.7626953125
,62.5983767,1.7041015625
,62.59893460000001,1.6845703125
,62.6339055,1.6552734375
,62.655152,1.630859375
,62.662847400000004,1.6015625
,62.700253200000006,1.5673828125
,62.704442,1.5380859375
,62.741863699999996,1.4990234375
,62.742219899999995,1.46484375
,62.7758362,1.4306640625
,62.7810552,1.40625
,62.816305,1.3916015625
,62.820859299999995,1.4208984375
,62.857305600000004,1.4990234375
,62.8776869,1.6259765625
,62.883181699999994,1.7626953125
,62.920191,1.923828125
,62.920548800000006,2.0556640625
,62.9553234,2.197265625
,62.9758063,2.3095703125
,62.981162499999996,2.40234375
,63.0230289,2.4658203125
,63.02340770000001,2.5048828125
,63.0426552,2.5244140625
,63.07771030000001,2.51953125
,63.0982504,2.5
,63.1010598,2.48046875
,63.14761970000001,2.4609375
,63.1479927,2.44140625
,63.1631371,2.4267578125
,63.1985974,2.392578125
,63.20219229999999,2.36328125
,63.23857889999999,2.3193359375
,63.2446822,2.275390625
,63.26001840000001,2.2265625
,63.295815700000006,2.1826171875
,63.301461,2.1142578125
,63.3383936,2.0751953125
,63.343860199999995,2.0361328125
,63.3788924,1.9921875
,63.3820307,1.9482421875
,63.4200338,1.904296875
,63.446968999999996,1.865234375
,63.447368600000004,1.8212890625
,63.4833835,1.7822265625
,63.483971499999996,1.7431640625
,63.501964599999994,1.7138671875
,63.5389514,1.6796875
,63.5586668,1.6455078125
,63.563204600000006,1.611328125
,63.5993617,1.5771484375
,63.618926900000005,1.5380859375
,63.6243279,1.4990234375
,63.6408083,1.4599609375
,63.6760525,1.435546875
,63.6977943,1.40625
,63.70267200000001,1.3818359375
,63.723283300000006,1.3916015625
,63.7582584,1.4501953125
,63.779521,1.5576171875
,63.784570900000006,1.6796875
,63.819987499999996,1.826171875
,63.83954369999999,1.9482421875
,63.842518,2.0751953125
,63.8779148,2.1728515625
,63.8839351,2.2607421875
,63.9302565,2.3095703125
,63.930841,2.3388671875
,63.943697799999995,2.34375
,63.97752989999999,2.3291015625
,63.9985119,2.3095703125
,64.0067306,2.28515625
,64.0269603,2.236328125
,64.0420721,2.2021484375
,64.0792582,2.2021484375
,64.0841577,2.1826171875
,64.1219935,2.158203125
,64.1226312,2.1240234375
,64.159644,2.0849609375
,64.1802417,2.0458984375
,64.1852648,2.0068359375
,64.2026237,1.9580078125
,64.2369101,1.9140625
,64.256452,1.875
,64.2639284,1.8310546875
,64.2852724,1.7822265625
,64.3184372,1.7431640625
,64.3393194,1.69921875
,64.3449489,1.6552734375
,64.3794444,1.6162109375
,64.4006033,1.5771484375
,64.403598,1.5478515625
,64.4239024,1.513671875
,64.4594644,1.494140625
,64.4917908,1.4599609375
,64.4922023,1.435546875
,64.5071221,1.4013671875
,64.5559793,1.3671875
,64.55637,1.328125
,64.5619582,1.30859375
,64.5838577,1.2841796875
,64.6184402,1.3037109375
,64.6234001,1.38671875
,64.6588837,1.494140625
,64.6791172,1.640625
,64.6863616,1.7919921875
,64.7248117,1.943359375
,64.726776,2.0703125
,64.7464667,2.1728515625
,64.7647216,2.2509765625
,64.8008508,2.3486328125
,64.8033995,2.4072265625
,64.8414468,2.44140625
,64.8448108,2.44140625
,64.8812649,2.4365234375
,64.8863683,2.4169921875
,64.9283425,2.392578125
,64.9288703,2.36328125
,64.958405,2.353515625
,64.9647319,2.32421875
,65.0047338,2.28515625
,65.0051055,2.24609375
,65.0395523,2.20703125
,65.0593092,2.1533203125
,65.067965,2.099609375
,65.1022662,2.0458984375
,65.1028157,1.9873046875
,65.1370413,1.9384765625
,65.1571722,1.884765625
,65.164621,1.8310546875
,65.2007859,1.77734375
,65.2062162,1.7333984375
,65.2529255,1.6845703125
,65.2534776,1.6357421875
,65.2678662,1.591796875
,65.2845098,1.5380859375
,65.3194635,1.4990234375
,65.3249017,1.455078125
,65.3612734,1.4208984375
,65.3664218,1.3818359375
,65.386715,1.34765625
,65.423377,1.30859375
,65.427523,1.2744140625
,65.4443139,1.2353515625
,65.4783456,1.220703125
,65.4990617,1.181640625
,65.5045666,1.23046875
,65.5409255,1.30859375
,65.5455459,1.4404296875
,65.5793818,1.5771484375
,65.6002308,1.73828125
,65.6079161,1.8798828125
,65.6450853,2.001953125
,65.6490289,2.1142578125
,65.6644823,2.197265625
,65.7002253,2.265625
,65.7210644,2.2998046875
,65.7260603,2.314453125
,65.7643783,2.3046875
,65.764989,2.2900390625
,65.7993049,2.265625
,65.82056,2.2509765625
,65.8254717,2.2265625
,65.8716868,2.216796875
,65.8722605,2.1923828125
,65.8869515,2.16796875
,65.9077797,2.138671875
,65.9270251,2.099609375
,65.9611861,2.0556640625
,65.9835282,2.01171875
,65.988176,1.97265625
,66.0039825,1.923828125
,66.0248895,1.884765625
,66.0607482,1.8408203125
,66.0800352,1.8017578125
,66.0852153,1.7578125
,66.1244384,1.7138671875
,66.1300356,1.669921875
,66.1476703,1.630859375
,66.163885,1.5869140625
,66.197704,1.5576171875
,66.2172688,1.494140625
,66.2250712,1.484375
,66.2624003,1.4599609375
,66.266881,1.435546875
,66.3024804,1.40625
,66.3281902,1.3720703125
,66.3287684,1.3427734375
,66.3651959,1.318359375
,66.3707811,1.2939453125
,66.3858389,1.298828125
,66.4060086,1.3671875
,66.4411713,1.474609375
,66.4458351,1.6162109375
,66.480833,1.767578125
,66.5000254,1.9189453125
,66.5080152,2.05078125
,66.5463397,2.16796875
,66.5509701,2.2607421875
,66.5657789,2.3193359375
,66.6016815,2.3583984375
,66.621928,2.3681640625
,66.6267271,2.36328125
,66.6631096,2.3388671875
,66.6673699,2.314453125
,66.7003445,2.28515625
,66.7212795,2.2705078125
,66.7271947,2.2412109375
,66.7469948,2.2216796875
,66.7938381,2.1923828125
,66.7944158,2.1630859375
,66.8066859,2.1142578125
,66.8550203,2.0751953125
,66.8553828,2.021484375
,66.8854138,1.982421875
,66.888195,1.93359375
,66.9088949,1.8798828125
,66.9298355,1.8115234375
,66.9474767,1.7431640625
,66.9823839,1.7138671875
,66.9874273,1.6796875
,67.0266873,1.640625
,67.0270695,1.6064453125
,67.0642631,1.5673828125
,67.0688543,1.5283203125
,67.1063439,1.4892578125
,67.1068038,1.455078125
,67.1273562,1.4306640625
,67.1635537,1.4013671875
,67.1692982,1.3720703125
,67.2152242,1.337890625
,67.2156003,1.3037109375
,67.2301693,1.26953125
,67.2672208,1.2451171875
,67.267915,1.26953125
,67.3092277,1.3232421875
,67.3095937,1.4453125
,67.356825,1.58203125
,67.3571827,1.7431640625
,67.3689202,1.8798828125
,67.4053575,2.021484375
,67.4112448,2.12890625
,67.4476652,2.2265625
,67.448359,2.2900390625
,67.4959757,2.3388671875
,67.4963339,2.353515625
,67.5175923,2.3583984375
,67.5282625,2.34375
,67.5644932,2.3193359375
,67.5703041,2.2998046875
,67.6076134,2.275390625
,67.6080804,2.255859375
,67.6425614,2.2265625
,67.650373,2.1826171875
,67.684713,2.1337890625
,67.6854789,2.1142578125
,67.7277174,2.080078125
,67.7280685,2.0458984375
,67.7484091,2.001953125
,67.7878454,1.962890625
,67.7883812,1.9140625
,67.8260812,1.8701171875
,67.8316706,1.826171875
,67.8490683,1.77734375
,67.8847528,1.7333984375
,67.8879208,1.6943359375
,67.9252481,1.6552734375
,67.9477609,1.6162109375
,67.9483664,1.58203125
,67.9957142,1.54296875
,67.996102,1.513671875
,68.027243,1.4794921875
,68.0278335,1.4599609375
,68.0649555,1.42578125
,68.0682659,1.396484375
,68.1046065,1.3623046875
,68.1101476,1.337890625
,68.1447262,1.3330078125
,68.1653384,1.3818359375
,68.1729834,1.484375
,68.1884116,1.6015625
,68.2079287,1.7578125
,68.2449705,1.89453125
,68.2743897,2.03125
,68.2747456,2.138671875
,68.2888485,2.2314453125
,68.3250143,2.294921875
,68.3295632,2.333984375
,68.3517932,2.34375
,68.373098,2.314453125
,68.3876337,2.275390625
,68.4216117,2.265625
,68.4447514,2.2509765625
,68.4495064,2.236328125
,68.4970406,2.2119140625
,68.4976173,2.1875
,68.5116201,2.1630859375
,68.5452813,2.1337890625
,68.5664814,2.1044921875
,68.5669375,2.0703125
,68.60671,2.03125
,68.6112974,1.9873046875
,68.6494609,1.943359375
,68.6500004,1.89453125
,68.6870958,1.8505859375
,68.6906838,1.796875
,68.7268613,1.748046875
,68.7274931,1.7041015625
,68.7761664,1.6650390625
,68.7765223,1.62109375
,68.7955623,1.591796875
,68.8108934,1.5576171875
,68.8484275,1.5185546875
,68.8510426,1.4892578125
,68.888751,1.455078125
,68.8934434,1.416015625
,68.9090139,1.3818359375
,68.9441313,1.3525390625
,68.9498498,1.328125
,68.9862834,1.3330078125
,68.9896719,1.376953125
,69.0265027,1.474609375
,69.031962,1.5966796875
,69.0666209,1.7431640625
,69.0718267,1.8701171875
,69.0942644,1.97265625
,69.1126531,2.060546875
,69.1285558,2.12890625
,69.1634249,2.2021484375
,69.1924535,2.2412109375
,69.1931112,2.255859375
,69.2273033,2.24609375
,69.2313817,2.2265625
,69.2688554,2.1923828125
,69.2722144,2.16796875
,69.291001,2.1435546875
,69.3251879,2.1337890625
,69.3314224,2.1142578125
,69.3783924,2.08984375
,69.3787557,2.0654296875
,69.3909937,2.03125
,69.4122579,1.9921875
,69.4470203,1.9580078125
,69.4667578,1.9189453125
,69.4696748,1.8701171875
,69.5042187,1.8310546875
,69.5247538,1.7919921875
,69.5316508,1.748046875
,69.5835923,1.7041015625
,69.5840016,1.669921875
,69.5924007,1.6259765625
,69.6280573,1.591796875
,69.6284311,1.5576171875
,69.6487751,1.5283203125
,69.6854226,1.494140625
,69.6906352,1.4697265625
,69.7242948,1.435546875
,69.7458775,1.40625
,69.7526219,1.376953125
,69.7878048,1.3427734375
,69.7934998,1.3232421875
,69.8129772,1.328125
,69.833858,1.3623046875
,69.8508307,1.4404296875
,69.8855018,1.591796875
,69.9055662,1.728515625
,69.911618,1.8701171875
,69.9473239,1.97265625
,69.9519153,2.0703125
,69.9884857,2.1337890625
,70.0092477,2.177734375
,70.0096617,2.1875
,70.0444829,2.177734375
,70.064686,2.1533203125
,70.0710567,2.1337890625
,70.1099871,2.109375
,70.1147752,2.0849609375
,70.1339506,2.060546875
,70.170096,2.03125
,70.1753094,2.001953125
,70.1915123,1.97265625
,70.2271354,1.9482421875
,70.2300694,1.9140625
,70.2657824,1.875
,70.2862147,1.8359375
,70.2933477,1.7919921875
,70.329053,1.748046875
,70.3341926,1.7041015625
,70.3510191,1.66015625
,70.3860259,1.6162109375
,70.3922111,1.58203125
,70.4131202,1.5380859375
,70.4523863,1.50390625
,70.4527929,1.4697265625
,70.499688,1.435546875
,70.5002759,1.40625
,70.529926,1.3818359375
,70.5347095,1.3525390625
,70.5544207,1.3037109375
,70.5717769,1.26953125
,70.6090903,1.2744140625
,70.6137791,1.2744140625
,70.6507705,1.3037109375
,70.6511646,1.3671875
,70.6858441,1.494140625
,70.7068909,1.6259765625
,70.7165574,1.787109375
,70.7524736,1.93359375
,70.7530243,2.05078125
,70.7872784,2.16796875
,70.7921884,2.255859375
,70.8282437,2.32421875
,70.8319902,2.3583984375
,70.8676755,2.373046875
,70.8878366,2.3681640625
,70.8956924,2.353515625
,70.9116045,2.3291015625
,70.946641,2.314453125
,70.9514257,2.3046875
,70.9867525,2.2900390625
,71.0076556,2.2705078125
,71.0151903,2.2509765625
,71.0486451,2.2265625
,71.0692137,2.1875
,71.0742954,2.1484375
,71.0923463,2.1044921875
,71.12671,2.0751953125
,71.1319396,2.03125
,71.1698807,1.9873046875
,71.1878854,1.93359375
,71.1920928,1.8896484375
,71.2287906,1.8408203125
,71.249877,1.796875
,71.2546403,1.7529296875
,71.2770325,1.6943359375
,71.2924105,1.640625
,71.3373093,1.6259765625
,71.3376745,1.5966796875
,71.3548016,1.58203125
,71.3743138,1.552734375
,71.408965,1.5234375
,71.4292489,1.494140625
,71.4370102,1.46484375
,71.456082,1.4501953125
,71.4707849,1.4794921875
,71.5046028,1.572265625
,71.5261497,1.6943359375
,71.5328896,1.8359375
,71.5694166,1.9677734375
,71.5739389,2.099609375
,71.6201044,2.2119140625
,71.6206572,2.314453125
,71.6511288,2.3779296875
,71.6515921,2.4267578125
,71.6970245,2.4462890625
,71.6975937,2.4365234375
,71.7172619,2.421875
,71.7358646,2.392578125
,71.770511,2.3681640625
,71.7765899,2.3388671875
,71.8139522,2.314453125
,71.8143274,2.2900390625
,71.834032,2.2705078125
,71.8545732,2.236328125
,71.8759338,2.20703125
,71.8944467,2.16796875
,71.9325638,2.1240234375
,71.9360579,2.080078125
,71.9712874,2.03125
,71.9716438,1.982421875
,72.0066448,1.9482421875
,72.0267779,1.8798828125
,72.0347219,1.8115234375
,72.0711812,1.7822265625
,72.0763599,1.7529296875
,72.0945554,1.7138671875
,72.131676,1.6796875
,72.1358018,1.650390625
,72.17743,1.6162109375
,72.1778644,1.5869140625
,72.1928447,1.5576171875
,72.2274959,1.533203125
,72.2345767,1.50390625
,72.2699877,1.474609375
,72.2749977,1.4453125
,72.3109452,1.4306640625
,72.3159667,1.455078125
,72.3514666,1.5234375
,72.3568462,1.640625
,72.3747288,1.767578125
,72.4122684,1.923828125
,72.4153896,2.0458984375
,72.4495921,2.1630859375
,72.4706789,2.24609375
,72.4761199,2.314453125
,72.5223635,2.3486328125
,72.5229505,2.36328125
,72.5324578,2.3486328125
,72.5682367,2.3291015625
,72.5734863,2.3046875
,72.6088411,2.2802734375
,72.6291146,2.255859375
,72.6364527,2.24609375
,72.6766838,2.2314453125
,72.6773177,2.20703125
,72.7236036,2.1826171875
,72.7239975,2.1533203125
,72.7371598,2.099609375
,72.755809,2.0458984375
,72.8019713,2.021484375
,72.8023224,1.9921875
,72.8159581,1.9580078125
,72.8511916,1.9140625
,72.8563521,1.8701171875
,72.8941424,1.826171875
,72.9132173,1.7919921875
,72.913891,1.7529296875
,72.9560488,1.7138671875
,72.9566246,1.689453125
,72.9753372,1.6552734375
,73.0113548,1.62109375
,73.0171587,1.5869140625
,73.0514944,1.5576171875
,73.0719398,1.5234375
,73.0773185,1.4892578125
,73.0950936,1.4599609375
,73.1279714,1.435546875
,73.1490974,1.416015625
,73.155434,1.4404296875
,73.1935068,1.4990234375
,73.1963938,1.6162109375
,73.2456336,1.7529296875
,73.2460241,1.89453125
,73.2659496,2.0166015625
,73.2756243,2.1484375
,73.3100072,2.2509765625
,73.3309844,2.3193359375
,73.3361493,2.3681640625
,73.3853716,2.3876953125
,73.3860154,2.3876953125
,73.3966754,2.3681640625
,73.446747,2.3486328125
,73.4471162,2.32421875
,73.4579794,2.2802734375
,73.4744742,2.24609375
,73.5073324,2.2412109375
,73.528029,2.2265625
,73.5375722,2.2119140625
,73.5873832,2.1826171875
,73.5877385,2.1484375
,73.5973129,2.119140625
,73.6347679,2.0751953125
,73.6648233,2.03125
,73.6654279,1.9873046875
,73.6746631,1.9580078125
,73.7089532,1.9189453125
,73.7297902,1.875
,73.7369463,1.8310546875
,73.7727252,1.7919921875
,73.7929165,1.748046875
,73.7992159,1.708984375
,73.8165396,1.6650390625
,73.8511662,1.6357421875
,73.857528,1.611328125
,73.8768012,1.58203125
,73.9111459,1.5478515625
,73.932752,1.5185546875
,73.9378676,1.4892578125
,73.9753586,1.4501953125
,73.996167,1.4306640625
,73.9968292,1.435546875
,74.0159975,1.50390625
,74.0539602,1.6064453125
,74.0750855,1.7529296875
,74.0780832,1.8896484375
,74.1128574,2.0361328125
,74.1184662,2.1533203125
,74.1542385,2.2607421875
,74.1591754,2.3388671875
,74.1799123,2.3876953125
,74.1953185,2.3974609375
,74.2338651,2.4169921875
,74.2388158,2.4169921875
,74.272746,2.392578125
,74.2772185,2.3681640625
,74.3110728,2.34375
,74.3309547,2.32421875
,74.3374286,2.294921875
,74.3728938,2.265625
,74.3939612,2.236328125
,74.3965704,2.2119140625
,74.432383,2.1728515625
,74.4383605,2.138671875
,74.4723385,2.099609375
,74.4926918,2.060546875
,74.4986012,2.01171875
,74.5347478,1.962890625
,74.5355176,1.9140625
,74.5726005,1.875
,74.5755983,1.8310546875
,74.6097115,1.787109375
,74.6319942,1.7431640625
,74.6387961,1.7041015625
,74.6767919,1.6650390625
,74.6771895,1.630859375
,74.7124237,1.6064453125
,74.733518,1.5771484375
,74.7339271,1.552734375
,74.7706603,1.5283203125
,74.790742,1.4990234375
,74.7984368,1.4697265625
,74.8487127,1.4404296875
,74.8490795,1.4111328125
,74.8605708,1.40625
,74.8965755,1.4501953125
,74.9010559,1.5283203125
,74.921032,1.6357421875
,74.9373995,1.7529296875
,74.9725886,1.9140625
,74.99289,2.0458984375
,74.997802,2.1630859375
,75.0334345,2.2509765625
,75.0535615,2.3193359375
,75.0610216,2.353515625
,75.1110077,2.3681640625
,75.1114572,2.353515625
,75.1179175,2.333984375
,75.1530302,2.314453125
,75.1582967,2.294921875
,75.1953557,2.2705078125
,75.2005304,2.2607421875
,75.2215624,2.236328125
,75.2415859,2.20703125
,75.2776618,2.177734375
,75.2780139,2.1484375
,75.3139373,2.1142578125
,75.3187204,2.080078125
,75.3615803,2.041015625
,75.3620545,1.9970703125
,75.3918413,1.953125
,75.4002534,1.9091796875
,75.4346481,1.8603515625
,75.4565416,1.81640625
,75.4570746,1.77734375
,75.493242,1.73828125
,75.4983149,1.7041015625
,75.5335922,1.669921875
,75.5541682,1.6357421875
,75.5594476,1.6064453125
,75.608812,1.572265625
,75.6093824,1.5478515625
,75.6206093,1.5087890625
,75.6414886,1.4599609375
,75.6592113,1.40625
,75.6801126,1.396484375
,75.7153751,1.38671875
,75.7178163,1.416015625
,75.7568237,1.484375
,75.7598737,1.6064453125
,75.7974744,1.7431640625
,75.8016521,1.8896484375
,75.8198653,2.0166015625
,75.85439,2.1533203125
,75.8599055,2.2607421875
,75.8956286,2.333984375
,75.8992154,2.392578125
,75.9495007,2.4169921875
,75.9500855,2.412109375
,75.9617897,2.392578125
,75.9982359,2.373046875
,75.9988135,2.34375
,76.0178166,2.3291015625
,76.0523081,2.3095703125
,76.073912,2.2900390625
,76.0823872,2.265625
,76.1019331,2.2412109375
,76.1360168,2.20703125
,76.1405897,2.16796875
,76.1818114,2.12890625
,76.1823695,2.080078125
,76.2020178,2.0361328125
,76.2196889,1.9921875
,76.2394152,1.9482421875
,76.2751639,1.8994140625
,76.3055083,1.85546875
,76.3060899,1.806640625
,76.322887,1.767578125
,76.3422963,1.71875
,76.3625255,1.6650390625
,76.3791469,1.6064453125
,76.4151044,1.591796875
,76.4224534,1.572265625
,76.4402983,1.5478515625
,76.4765277,1.5185546875
,76.4959857,1.4990234375
,76.5009398,1.4697265625
,76.5403076,1.435546875
,76.5408802,1.4111328125
,76.5764697,1.40625
,76.5792914,1.4453125
,76.6157481,1.5283203125
,76.620989,1.6552734375
,76.6639959,1.796875
,76.6644444,1.943359375
,76.6809341,2.0751953125
,76.7149811,2.1923828125
,76.7357719,2.28515625
,76.7412226,2.3779296875
,76.7762103,2.4267578125
,76.7792874,2.451171875
,76.8196957,2.451171875
,76.8513194,2.4267578125
,76.8516876,2.4072265625
,76.8618411,2.3779296875
,76.9127553,2.3583984375
,76.9131187,2.3291015625
,76.9200682,2.3095703125
,76.9594916,2.28515625
,76.9599691,2.2509765625
,76.9955371,2.2119140625
,77.00134,2.177734375
,77.0402781,2.12890625
,77.0408495,2.080078125
,77.0773317,2.03125
,77.0844853,1.9580078125
,77.0999501,1.89453125
,77.1224168,1.865234375
,77.1411999,1.8310546875
,77.1769954,1.787109375
,77.1820797,1.7529296875
,77.2159397,1.7138671875
,77.236754,1.669921875
,77.243448,1.630859375
,77.2777516,1.5966796875
,77.2988497,1.5625
,77.2992982,1.5380859375
,77.3367977,1.50390625
,77.3418152,1.4697265625
,77.3796755,1.4404296875
,77.383858,1.40625
,77.4026327,1.3671875
,77.4376547,1.3427734375
,77.4576661,1.3525390625
,77.4595236,1.4013671875
,77.49468,1.5185546875
,77.5152247,1.6552734375
,77.5212332,1.81640625
,77.5569905,1.953125
,77.5630972,2.0849609375
,77.5966909,2.1875
,77.625817,2.275390625
,77.6261871,2.333984375
,77.6435295,2.3779296875
,77.6633646,2.3828125
,77.6824029,2.373046875
,77.7013805,2.3486328125
,77.736138,2.32421875
,77.7564902,2.2998046875
,77.7624875,2.2900390625
,77.7958229,2.2705078125
,77.8163479,2.24609375
,77.8245345,2.197265625
,77.8407124,2.177734375
,77.877,2.158203125
,77.8808595,2.1240234375
,77.9161793,2.0849609375
,77.9389909,2.0458984375
,77.9437607,2.0068359375
,77.9797968,1.9580078125
,77.9849149,1.9091796875
,78.0008817,1.865234375
,78.0345753,1.8310546875
,78.0550503,1.7919921875
,78.0626262,1.7529296875
,78.0976858,1.7138671875
,78.1026401,1.6748046875
,78.1369905,1.640625
,78.1583193,1.6015625
,78.1654919,1.572265625
,78.1815207,1.5380859375
,78.2189424,1.513671875
,78.2198493,1.484375
,78.2628854,1.455078125
,78.2634304,1.42578125
,78.2997651,1.4013671875
,78.3043261,1.376953125
,78.3239201,1.3818359375
,78.3408855,1.42578125
,78.3862789,1.533203125
,78.3867627,1.6650390625
,78.4034303,1.81640625
,78.43939,1.962890625
,78.4426943,2.080078125
,78.4793887,2.1875
,78.484162,2.2607421875
,78.5193632,2.3193359375
,78.5408284,2.34375
,78.5452799,2.32421875
,78.5635663,2.28515625
,78.5984302,2.2802734375
,78.6034058,2.265625
,78.6498315,2.24609375
,78.6502642,2.2265625
,78.6639091,2.2119140625
,78.6993591,2.177734375
,78.7269115,2.1533203125
,78.7273171,2.1240234375
,78.7434364,2.0849609375
,78.7916753,2.05078125
,78.7922587,2.0166015625
,78.8032744,1.9775390625
,78.8370881,1.93359375
,78.8572153,1.8896484375
,78.8649402,1.845703125
,78.9010151,1.7919921875
,78.9015877,1.7431640625
,78.9383456,1.708984375
,78.9433934,1.669921875
,78.9812637,1.630859375
,78.9847437,1.5966796875
,79.0205788,1.5576171875
,79.0250137,1.5185546875
,79.0604389,1.4892578125
,79.065587,1.4599609375
,79.0817094,1.42578125
,79.1168908,1.4013671875
,79.1370253,1.3720703125
,79.1437417,1.34765625
,79.1794101,1.318359375
,79.210172,1.328125
,79.2105382,1.376953125
,79.2261866,1.4892578125
,79.247337,1.6259765625
,79.2662725,1.7626953125
,79.2827668,1.884765625
,79.3187894,2.0458984375
,79.3481456,2.16796875
,79.3485869,2.2705078125
,79.3649153,2.3486328125
,79.4009033,2.3876953125
,79.4070924,2.3974609375
,79.4572281,2.3828125
,79.4576741,2.3583984375
,79.4655943,2.32421875
,79.4837999,2.3046875
,79.5192209,2.2802734375
,79.5243795,2.2607421875
,79.5581143,2.236328125
,79.5784528,2.2119140625
,79.5859416,2.1728515625
,79.6233105,2.138671875
,79.6236828,2.099609375
,79.6580869,2.0654296875
,79.6632742,2.0166015625
,79.6997815,1.9775390625
,79.704163,1.93359375
,79.7376776,1.884765625
,79.7573567,1.8359375
,79.7661918,1.7919921875
,79.8009283,1.7431640625
,79.8210054,1.7041015625
,79.8247433,1.6796875
,79.8444656,1.6455078125
,79.8803648,1.6064453125
,79.8855738,1.5771484375
,79.9222775,1.5478515625
,79.9276376,1.513671875
,79.9625451,1.484375
,79.9671166,1.455078125
,79.9890682,1.4013671875
,80.0081879,1.3623046875
,80.0254495,1.3427734375
,80.0651851,1.337890625
,80.0656609,1.3525390625
,80.1014871,1.42578125
,80.1072439,1.533203125
,80.1441689,1.6845703125
,80.1485055,1.8359375
,80.1838597,1.9873046875
,80.1842577,2.109375
,80.2199114,2.2412109375
,80.2517207,2.333984375
,80.2522904,2.4072265625
,80.2677549,2.4462890625
,80.3029283,2.451171875
,80.3070304,2.4365234375
,80.3418604,2.4267578125
,80.3632129,2.3974609375
,80.3636511,2.3681640625
,80.3989177,2.353515625
,80.419681,2.333984375
,80.4246817,2.3095703125
,80.4459345,2.275390625
,80.4818831,2.2412109375
,80.4878617,2.2021484375
,80.531719,2.158203125
,80.532085,2.119140625
,80.5626488,2.0751953125
,80.5630534,2.0263671875
,80.598369,1.982421875
,80.6185567,1.9384765625
,80.6247933,1.8896484375
,80.6723072,1.8505859375
,80.6728773,1.8017578125
,80.6938212,1.7578125
,80.7102482,1.7138671875
,80.7472067,1.6552734375
,80.7477482,1.6162109375
,80.7664261,1.591796875
,80.8131658,1.5673828125
,80.8137711,1.54296875
,80.8280987,1.5185546875
,80.8757437,1.4990234375
,80.8761646,1.4697265625
,80.888342,1.4501953125
,80.9072326,1.416015625
,80.9410085,1.4013671875
,80.9448015,1.3818359375
,80.9849964,1.416015625
,81.0062893,1.4990234375
,81.0068914,1.6162109375
,81.0430497,1.7724609375
,81.0482861,1.9140625
,81.0822263,2.0556640625
,81.1036507,2.1728515625
,81.1040252,2.28515625
,81.1405871,2.36328125
,81.1616752,2.4169921875
,81.1673662,2.4365234375
,81.2057587,2.431640625
,81.206191,2.412109375
,81.2500698,2.3876953125
,81.2506435,2.36328125
,81.2813329,2.34375
,81.285961,2.3291015625
,81.3218424,2.2998046875
,81.3423512,2.275390625
,81.3472183,2.2412109375
,81.3817981,2.2119140625
,81.4020584,2.16796875
,81.4070289,2.1240234375
,81.4405393,2.0751953125
,81.4491752,2.01171875
,81.4673052,1.9482421875
,81.5019121,1.9189453125
,81.5062192,1.8798828125
,81.5391668,1.8408203125
,81.5600141,1.796875
,81.5693852,1.7529296875
,81.604266,1.708984375
,81.6098791,1.6748046875
,81.6309851,1.640625
,81.6467358,1.6015625
,81.6811619,1.572265625
,81.7028678,1.54296875
,81.7078854,1.513671875
,81.7477243,1.484375
,81.7481743,1.4501953125
,81.7849789,1.416015625
,81.8106028,1.38671875
,81.8111547,1.3623046875
,81.827074,1.3720703125
,81.8624447,1.4306640625
,81.8681064,1.552734375
,81.9183547,1.6943359375
,81.9187134,1.8505859375
,81.9293314,2.01171875
,81.9653774,2.1337890625
,81.9699486,2.255859375
,81.9862284,2.3486328125
,82.028655,2.4267578125
,82.0292534,2.4658203125
,82.0497419,2.48046875
,82.08639,2.470703125
,82.0900516,2.4462890625
,82.1265118,2.421875
,82.1293915,2.3974609375
,82.150496,2.3681640625
,82.1711925,2.32421875
,82.1878461,2.275390625
,82.224905,2.265625
,82.2294569,2.236328125
,82.2648271,2.20703125
,82.2681848,2.16796875
,82.3045391,2.1240234375
,82.310944,2.0751953125
,82.3465016,2.021484375
,82.3499831,1.9677734375
,82.3680334,1.9189453125
,82.4020297,1.8798828125
,82.4228831,1.8408203125
,82.428348,1.796875
,82.4642363,1.748046875
,82.4710474,1.708984375
,82.5055633,1.6650390625
,82.5107373,1.630859375
,82.5278615,1.5966796875
,82.5626914,1.5673828125
,82.567224,1.54296875
,82.6014401,1.5087890625
,82.6221015,1.4794921875
,82.6301132,1.4453125
,82.6797848,1.416015625
,82.680141,1.3818359375
,82.6919538,1.357421875
,82.7058206,1.357421875
,82.7414735,1.42578125
,82.7627455,1.5283203125
,82.76935,1.6796875
,82.8059738,1.826171875
,82.8088681,1.9775390625
,82.8532362,2.109375
,82.8535902,2.2314453125
,82.8748267,2.32421875
,82.8914887,2.392578125
,82.9312744,2.4267578125
,82.9316335,2.4462890625
,82.9491968,2.451171875
,82.9961658,2.4365234375
,82.9965869,2.4169921875
,83.0098193,2.392578125
,83.0623329,2.3681640625
,83.0627352,2.3388671875
,83.077249,2.3095703125
,83.089022,2.2705078125
,83.1363687,2.2412109375
,83.1369446,2.197265625
,83.150065,2.158203125
,83.1856942,2.109375
,83.215015,2.060546875
,83.2156621,2.01171875
,83.2323299,1.9580078125
,83.2703141,1.9140625
,83.2709006,1.8603515625
,83.291152,1.81640625
,83.3259574,1.7724609375
,83.3313265,1.728515625
,83.3503348,1.6845703125
,83.3709702,1.6455078125
,83.4065326,1.6064453125
,83.4119154,1.5771484375
,83.4280445,1.54296875
,83.4669776,1.5185546875
,83.4959035,1.494140625
,83.4963526,1.4697265625
,83.5112989,1.435546875
,83.5462203,1.40625
,83.5514034,1.3818359375
,83.5858558,1.34765625
,83.5909098,1.337890625
,83.6110378,1.3671875
,83.6520666,1.4306640625
,83.6526375,1.5673828125
,83.6823767,1.7431640625
,83.6900715,1.904296875
,83.7301101,2.060546875
,83.7304635,2.1826171875
,83.7495642,2.2998046875
,83.7844939,2.3779296875
,83.8045804,2.4365234375
,83.8079337,2.4560546875
,83.8548934,2.4609375
,83.8554248,2.4462890625
,83.8864431,2.4267578125
,83.8908634,2.3974609375
,83.9266359,2.3779296875
,83.9321803,2.36328125
,83.9677283,2.3388671875
,83.9728568,2.314453125
,83.989509,2.2802734375
,84.023749,2.2509765625
,84.0443801,2.20703125
,84.049749,2.1630859375
,84.0862833,2.1142578125
,84.0920018,2.0703125
,84.1341669,2.0166015625
,84.1346687,1.962890625
,84.1498964,1.9091796875
,84.1865587,1.875
,84.1897046,1.8359375
,84.2278726,1.787109375
,84.2478167,1.748046875
,84.2515418,1.7041015625
,84.2902335,1.66015625
,84.2935023,1.6259765625
,84.313824,1.5869140625
,84.3341108,1.5478515625
,84.3546888,1.4892578125
,84.3701816,1.4599609375
,84.4161401,1.4404296875
,84.4167127,1.416015625
,84.4478329,1.3916015625
,84.4522755,1.3671875
,84.4871712,1.34765625
,84.4919375,1.3671875
,84.543346,1.42578125
,84.5437361,1.552734375
,84.5734673,1.6943359375
,84.5738252,1.8603515625
,84.5918835,1.9970703125
,84.6268835,2.1337890625
,84.6316846,2.2412109375
,84.6692538,2.3388671875
,84.6992452,2.3974609375
,84.6996087,2.44140625
,84.7094457,2.44140625
,84.7452682,2.431640625
,84.7498656,2.412109375
,84.7851213,2.3876953125
,84.8060275,2.36328125
,84.8129534,2.3388671875
,84.8476794,2.314453125
,84.8523473,2.2802734375
,84.9029342,2.24609375
,84.9033014,2.20703125
,84.9244498,2.1728515625
,84.9332048,2.12890625
,84.9529408,2.0849609375
,84.9980179,2.041015625
,84.9984425,1.9970703125
,85.0148387,1.9482421875
,85.059069,1.89453125
,85.0594954,1.845703125
,85.0748253,1.7822265625
,85.0910754,1.7236328125
,85.1271819,1.6943359375
,85.1326186,1.66015625
,85.1706592,1.62109375
,85.17325,1.591796875
,85.211819,1.5576171875
,85.2122866,1.5283203125
,85.2485744,1.494140625
,85.2795904,1.46484375
,85.2801125,1.42578125
,85.2918799,1.40625
,85.328168,1.3720703125
,85.3332192,1.34765625
,85.3541182,1.3134765625
,85.3892838,1.3232421875
,85.3921701,1.3623046875
,85.4265862,1.4697265625
,85.4462282,1.6015625
,85.4512728,1.77734375
,85.4852394,1.943359375
,85.5063711,2.080078125
,85.5138746,2.2119140625
,85.5336814,2.314453125
,85.5738349,2.3974609375
,85.5743863,2.4462890625
,85.6080933,2.4658203125
,85.6283563,2.4560546875
,85.6304801,2.44140625
,85.6653222,2.4169921875
,85.698226,2.3876953125
,85.698711,2.36328125
,85.7128007,2.333984375
,85.7468726,2.3046875
,85.7680399,2.2705078125
,85.776193,2.2314453125
,85.7969199,2.1826171875
,85.8167011,2.1142578125
,85.8333719,2.0654296875
,85.8682584,2.0263671875
,85.8732984,1.982421875
,85.9153108,1.93359375
,85.9156753,1.8798828125
,85.9502811,1.8359375
,85.9551056,1.787109375
,85.9751502,1.7431640625
,85.9907192,1.6943359375
,86.0279278,1.6552734375
,86.0585351,1.62109375
,86.0591267,1.5869140625
,86.0759554,1.54296875
,86.094515,1.513671875
,86.1289494,1.4794921875
,86.1501597,1.4404296875
,86.1567559,1.4111328125
,86.1725346,1.3818359375
,86.1930759,1.3525390625
,86.2278829,1.3232421875
,86.2333281,1.2939453125
,86.2691506,1.2744140625
,86.2979105,1.279296875
,86.2985569,1.328125
,86.3151508,1.4404296875
,86.3316607,1.58203125
,86.375468,1.7529296875
,86.3760156,1.904296875
,86.3935809,2.05078125
,86.4297576,2.1826171875
,86.4526022,2.275390625
,86.4558515,2.353515625
,86.4754686,2.3974609375
,86.5107326,2.412109375
,86.5302236,2.3974609375
,86.535248,2.3583984375
,86.5508952,2.333984375
,86.5927178,2.32421875
,86.5930859,2.3046875
,86.6274837,2.28515625
,86.6491054,2.265625
,86.6547187,2.236328125
,86.6898927,2.2021484375
,86.7114898,2.1630859375
,86.7118471,2.1240234375
,86.7473093,2.08984375
,86.7677972,2.0458984375
,86.7755755,2.001953125
,86.8252756,1.9482421875
,86.825642,1.89453125
,86.8365235,1.845703125
,86.8878577,1.796875
,86.8884333,1.7578125
,86.8917971,1.7138671875
,86.9264897,1.6748046875
,86.9469237,1.640625
,86.9551528,1.6015625
,86.9891076,1.572265625
,87.0097376,1.5478515625
,87.0175273,1.513671875
,87.0530092,1.484375
,87.0556348,1.4599609375
,87.0740811,1.4208984375
,87.1098425,1.396484375
,87.1148807,1.3623046875
,87.1512544,1.337890625
,87.1540258,1.328125
,87.2003429,1.3671875
,87.2007235,1.455078125
,87.2303335,1.5966796875
,87.2360858,1.7431640625
,87.2702282,1.875
,87.2914105,2.01171875
,87.2918747,2.1435546875
,87.3304786,2.2412109375
,87.3578062,2.3193359375
,87.3581794,2.36328125
,87.3789651,2.3779296875
,87.3976408,2.3681640625
,87.4324761,2.3388671875
,87.437417,2.3095703125
,87.4545499,2.2802734375
,87.4898037,2.265625
,87.4960898,2.2412109375
,87.5144955,2.216796875
,87.5497189,2.1875
,87.5707219,2.158203125
,87.5781788,2.119140625
,87.6236764,2.0703125
,87.624259,2.021484375
,87.6340614,1.9873046875
,87.671975,1.93359375
,87.67277,1.8896484375
,87.7081338,1.8408203125
,87.7291634,1.7919921875
,87.737218,1.7431640625
,87.7817163,1.6943359375
,87.782069,1.66015625
,87.7934511,1.6162109375
,87.846412,1.58203125
,87.8468757,1.5478515625
,87.8544926,1.513671875
,87.8931663,1.4794921875
,87.9230033,1.4501953125
,87.9235765,1.416015625
,87.9378994,1.3916015625
,87.9584326,1.357421875
,87.9938351,1.30859375
,87.9942458,1.259765625
,88.0335632,1.26953125
,88.0638104,1.298828125
,88.064258,1.3671875
,88.0744545,1.494140625
,88.1096628,1.6357421875
,88.1292725,1.806640625
,88.1383143,1.9580078125
,88.1867407,2.1044921875
,88.187107,2.2216796875
,88.195509,2.333984375
,88.2313567,2.412109375
,88.2368899,2.4658203125
,88.2719181,2.4755859375
,88.2779254,2.4755859375
,88.3121434,2.4462890625
,88.3179971,2.421875
,88.3540286,2.3974609375
,88.3543955,2.373046875
,88.3889384,2.353515625
,88.4094796,2.32421875
,88.4163587,2.294921875
,88.46569,2.255859375
,88.4661431,2.2119140625
,88.477934,2.1728515625
,88.5147764,2.119140625
,88.5153471,2.0703125
,88.5457474,2.0263671875
,88.557801,1.982421875
,88.5931458,1.93359375
,88.5958121,1.884765625
,88.6309004,1.8310546875
,88.6516364,1.787109375
,88.6588657,1.7431640625
,88.6953664,1.69921875
,88.6980893,1.6552734375
,88.7354899,1.6064453125
,88.7360678,1.5771484375
,88.771123,1.5576171875
,88.7951218,1.533203125
,88.7979823,1.5087890625
,88.8363818,1.474609375
,88.8368033,1.4501953125
,88.8743976,1.416015625
,88.8814801,1.38671875
,88.8964591,1.3623046875
,88.9314787,1.3818359375
,88.9360525,1.4501953125
,88.9702254,1.572265625
,88.9918835,1.7333984375
,88.9984634,1.8798828125
,89.0330948,2.0361328125
,89.0395133,2.1728515625
,89.07393,2.3046875
,89.0953458,2.392578125
,89.0959243,2.470703125
,89.1318529,2.509765625
,89.1512697,2.51953125
,89.1570242,2.5146484375
,89.1934522,2.4951171875
,89.1983581,2.4658203125
,89.2369867,2.44140625
,89.2375888,2.412109375
,89.2737853,2.3876953125
,89.2769504,2.353515625
,89.3124702,2.32421875
,89.3187815,2.28515625
,89.355871,2.236328125
,89.3564884,2.1875
,89.3944378,2.1435546875
,89.4002409,2.08984375
,89.4197959,2.041015625
,89.4403841,1.9677734375
,89.4576469,1.9189453125
,89.4932697,1.8798828125
,89.4971107,1.8359375
,89.5328546,1.787109375
,89.5531312,1.7431640625
,89.5583178,1.708984375
,89.5963238,1.669921875
,89.6020086,1.6259765625
,89.6366497,1.5966796875
,89.6373788,1.5625
,89.6850667,1.5283203125
,89.6854204,1.494140625
,89.7052553,1.46484375
,89.7178206,1.4306640625
,89.7530293,1.396484375
,89.7741624,1.3623046875
,89.7805547,1.3427734375
,89.7969482,1.3623046875
,89.8304517,1.455078125
,89.8518635,1.5771484375
,89.8597876,1.728515625
,89.896841,1.8701171875
,89.8974121,2.01171875
,89.9335127,2.1240234375
,89.9537045,2.2412109375
,89.960388,2.3193359375
,89.97796,2.36328125
,90.013478,2.3828125
,90.0169485,2.3779296875
,90.052413,2.353515625
,90.0737955,2.3291015625
,90.0790721,2.2998046875
,90.1141811,2.2705078125
,90.134996,2.24609375
,90.1420691,2.216796875
,90.1617114,2.158203125
,90.1791921,2.1240234375
,90.217839,2.0947265625
,90.2183352,2.060546875
,90.2639601,2.0166015625
,90.2644191,1.97265625
,90.2858798,1.923828125
,90.2993548,1.875
,90.3338431,1.81640625
,90.3539224,1.7822265625
,90.356532,1.7333984375
,90.3920116,1.6943359375
,90.4209082,1.6455078125
,90.421626,1.6064453125
,90.4573108,1.5576171875
,90.4596478,1.5185546875
,90.4953722,1.4794921875
,90.5015368,1.4453125
,90.5180902,1.40625
,90.5547502,1.3818359375
,90.5596428,1.3525390625
,90.595579,1.3330078125
,90.5986588,1.3037109375
,90.6406262,1.2744140625
,90.6411215,1.2646484375
,90.6626638,1.2841796875
,90.7033871,1.3623046875
,90.7040127,1.484375
,90.7176967,1.650390625
,90.7645439,1.806640625
,90.7650544,1.962890625
,90.7860434,2.0947265625
,90.7989404,2.2119140625
,90.834555,2.2998046875
,90.8590114,2.373046875
,90.8594987,2.412109375
,90.8944868,2.3876953125
,90.9206974,2.3828125
,90.9212706,2.3583984375
,90.9387999,2.3388671875
,90.9808915,2.314453125
,90.9814718,2.294921875
,91.0170819,2.2705078125
,91.0206074,2.24609375
,91.0561138,2.20703125
,91.0785867,2.1728515625
,91.0791642,2.12890625
,91.1138543,2.099609375
,91.1194167,2.05078125
,91.1587927,2.01171875
,91.1592201,1.9580078125
,91.1942373,1.9140625
,91.2165544,1.8603515625
,91.222886,1.8212890625
,91.2569254,1.7724609375
,91.2598483,1.728515625
,91.297483,1.689453125
,91.298075,1.650390625
,91.3322125,1.611328125
,91.3530122,1.58203125
,91.3625074,1.5478515625
,91.4020049,1.513671875
,91.4025492,1.484375
,91.4186105,1.455078125
,91.4634513,1.4306640625
,91.4640613,1.4013671875
,91.4801779,1.376953125
,91.5270701,1.34765625
,91.5276423,1.3330078125
,91.5406201,1.3671875
,91.57398,1.4404296875
,91.5949752,1.572265625
,91.6021474,1.7138671875
,91.6377189,1.8798828125
,91.6675026,2.021484375
,91.668047,2.158203125
,91.6823864,2.265625
,91.717834,2.353515625
,91.7219934,2.412109375
,91.7605505,2.4462890625
,91.7913916,2.44140625
,91.7920347,2.421875
,91.7997012,2.3974609375
,91.8351459,2.373046875
,91.8411655,2.3486328125
,91.8615373,2.3291015625
,91.8954937,2.3046875
,91.915493,2.2705078125
,91.9223341,2.236328125
,91.9591371,2.1923828125
,91.9643553,2.1435546875
,91.9803551,2.0947265625
,92.0264948,2.05078125
,92.0270592,2.0068359375
,92.0559518,1.9580078125
,92.0612072,1.904296875
,92.096531,1.8505859375
,92.1172264,1.8017578125
,92.1225331,1.7578125
,92.1412542,1.71875
,92.1601212,1.6796875
,92.1947326,1.650390625
,92.2150845,1.611328125
,92.2201566,1.58203125
,92.254769,1.552734375
,92.277164,1.5234375
,92.2840911,1.494140625
,92.3199031,1.4697265625
,92.3242174,1.435546875
,92.3442867,1.3916015625
,92.3610214,1.3671875
,92.3964764,1.3671875
,92.4007984,1.3916015625
,92.437922,1.4794921875
,92.4438408,1.5966796875
,92.478671,1.748046875
,92.4838048,1.89453125
,92.5242424,2.0458984375
,92.5534823,2.1826171875
,92.5538419,2.28515625
,92.5620934,2.3828125
,92.5972954,2.4365234375
,92.6029245,2.470703125
,92.6220957,2.470703125
,92.657324,2.4560546875
,92.6783401,2.4267578125
,92.6839468,2.392578125
,92.7008961,2.36328125
,92.7363585,2.3388671875
,92.7414035,2.3095703125
,92.7894134,2.2900390625
,92.7899963,2.2509765625
,92.8032553,2.2119140625
,92.8387928,2.16796875
,92.8434889,2.119140625
,92.8798566,2.0654296875
,92.8804151,2.01171875
,92.9010974,1.962890625
,92.9361791,1.9140625
,92.9565652,1.8603515625
,92.9612544,1.806640625
,92.997066,1.7578125
,93.0185453,1.708984375
,93.023819,1.6650390625
,93.0448354,1.62109375
,93.0807574,1.552734375
,93.0811189,1.5234375
,93.1154533,1.494140625
,93.1357587,1.4599609375
,93.1427688,1.4404296875
,93.1789037,1.416015625
,93.1842167,1.38671875
,93.2212043,1.3525390625
,93.2244301,1.328125
,93.2617403,1.30859375
,93.2621949,1.318359375
,93.2983803,1.3916015625
,93.3025984,1.5087890625
,93.3366478,1.6650390625
,93.3579003,1.81640625
,93.3646826,1.9677734375
,93.4016869,2.0947265625
,93.4066277,2.216796875
,93.4232555,2.3046875
,93.4422883,2.3828125
,93.4854322,2.421875
,93.4860623,2.4267578125
,93.5044235,2.412109375
,93.5245588,2.3876953125
,93.5643082,2.3681640625
,93.564884,2.3388671875
,93.6021658,2.314453125
,93.6027169,2.28515625
,93.6369502,2.2607421875
,93.6577972,2.2265625
,93.66497,2.197265625
,93.7017315,2.1484375
,93.7024149,2.1044921875
,93.7375153,2.0556640625
,93.7592337,2.0068359375
,93.7665972,1.9482421875
,93.8029068,1.8798828125
,93.8071468,1.8359375
,93.8223954,1.787109375
,93.8591511,1.748046875
,93.8909352,1.708984375
,93.8914574,1.6650390625
,93.9063846,1.6259765625
,93.9414428,1.591796875
,93.9455381,1.5576171875
,93.9823657,1.5234375
,93.9827248,1.4892578125
,94.0177316,1.4599609375
,94.0380411,1.4306640625
,94.0440198,1.40625
,94.0897961,1.376953125
,94.090154,1.3427734375
,94.1057285,1.3232421875
,94.1429219,1.318359375
,94.1478402,1.3720703125
,94.1628933,1.4697265625
,94.2003682,1.6259765625
,94.2035177,1.77734375
,94.2405765,1.93359375
,94.2449634,2.0654296875
,94.2827328,2.1875
,94.2832469,2.275390625
,94.3211615,2.353515625
,94.3215206,2.3876953125
,94.3569603,2.412109375
,94.3872164,2.40234375
,94.3875082,2.3779296875
,94.4042865,2.3486328125
,94.4499762,2.3291015625
,94.4503309,2.2998046875
,94.4656782,2.2705078125
,94.5008693,2.2412109375
,94.5214191,2.2119140625
,94.526768,2.1728515625
,94.5449515,2.12890625
,94.5786483,2.099609375
,94.5836104,2.0556640625
,94.6206801,2.0166015625
,94.6260589,1.9677734375
,94.6622232,1.9140625
,94.6648676,1.865234375
,94.7025118,1.8115234375
,94.7029606,1.767578125
,94.7236412,1.728515625
,94.7453662,1.6845703125
,94.7939439,1.640625
,94.7943732,1.6015625
,94.8062146,1.5673828125
,94.8421249,1.5380859375
,94.8631859,1.4990234375
,94.8684346,1.4599609375
,94.8852175,1.42578125
,94.9218362,1.396484375
,94.9252471,1.3671875
,94.9645559,1.3427734375
,94.9651862,1.3134765625
,95.0111429,1.318359375
,95.0115869,1.3720703125
,95.0258967,1.484375
,95.0448292,1.611328125
,95.0886952,1.7724609375
,95.0892842,1.9287109375
,95.1041648,2.05078125
,95.1423137,2.1630859375
,95.1463936,2.2509765625
,95.1814706,2.314453125
,95.1864514,2.3486328125
,95.2231527,2.3583984375
,95.2434708,2.34375
,95.2487592,2.3193359375
,95.2662901,2.294921875
,95.2847104,2.275390625
,95.320286,2.255859375
,95.3419026,2.236328125
,95.3471233,2.20703125
,95.3835753,2.177734375
,95.3854442,2.1435546875
,95.420775,2.099609375
,95.4430142,2.0556640625
,95.4435528,2.0068359375
,95.480522,1.9677734375
,95.4851023,1.923828125
,95.5194799,1.8798828125
,95.5395013,1.8310546875
,95.5471657,1.787109375
,95.581533,1.7333984375
,95.5874435,1.6943359375
,95.621943,1.650390625
,95.6273083,1.62109375
,95.6457657,1.58203125
,95.6804837,1.552734375
,95.6874063,1.513671875
,95.708057,1.494140625
,95.7466559,1.46484375
,95.7470527,1.435546875
,95.7679751,1.4013671875
,95.7854107,1.3720703125
,95.8201583,1.34765625
,95.8274569,1.328125
,95.8458368,1.328125
,95.8872053,1.3671875
,95.887554,1.4697265625
,95.9066887,1.6064453125
,95.9446124,1.767578125
,95.9475611,1.9140625
,95.9860503,2.0361328125
,95.9864788,2.1630859375
,96.0210333,2.28515625
,96.0266462,2.3828125
,96.0726322,2.4267578125
,96.0733434,2.451171875
,96.08773,2.4462890625
,96.1345436,2.431640625
,96.1348922,2.40234375
,96.1548271,2.373046875
,96.1667483,2.34375
,96.2004725,2.3291015625
,96.2063257,2.3046875
,96.2276118,2.275390625
,96.2622817,2.2412109375
,96.2831699,2.2021484375
,96.2893233,2.1533203125
,96.325067,2.1044921875
,96.3254232,2.05078125
,96.3609434,2.01171875
,96.3661141,1.962890625
,96.4006854,1.9091796875
,96.421617,1.8701171875
,96.4274042,1.8212890625
,96.461671,1.7724609375
,96.4828847,1.728515625
,96.4906595,1.689453125
,96.5064504,1.6455078125
,96.542055,1.6162109375
,96.5479697,1.58203125
,96.5849179,1.54296875
,96.5854666,1.5087890625
,96.6214676,1.484375
,96.6408982,1.4501953125
,96.648448,1.4208984375
,96.6858462,1.3916015625
,96.6892759,1.357421875
,96.7266782,1.328125
,96.7270939,1.3232421875
,96.7654358,1.3720703125
,96.7660161,1.46484375
,96.8046437,1.6015625
,96.8077634,1.748046875
,96.8447411,1.904296875
,96.8505587,2.03125
,96.8882701,2.158203125
,96.8888497,2.255859375
,96.9071016,2.34375
,96.9474242,2.3876953125
,96.947784,2.4072265625
,96.969279,2.392578125
,97.0060299,2.3779296875
,97.0085389,2.3486328125
,97.0461871,2.3193359375
,97.0510178,2.294921875
,97.0676783,2.2705078125
,97.0885963,2.24609375
,97.13587,2.216796875
,97.1364538,2.1875
,97.1481378,2.1435546875
,97.1825172,2.0947265625
,97.20368,2.0458984375
,97.2115414,1.9970703125
,97.227489,1.943359375
,97.2474705,1.904296875
,97.2827548,1.8603515625
,97.287734,1.81640625
,97.3240082,1.7724609375
,97.3534704,1.7236328125
,97.3539751,1.6796875
,97.3706804,1.640625
,97.390223,1.5966796875
,97.4245959,1.552734375
,97.4458446,1.5185546875
,97.446211,1.4794921875
,97.483108,1.4501953125
,97.5038814,1.4208984375
,97.5145533,1.396484375
,97.5290222,1.3623046875
,97.5789898,1.337890625
,97.5796513,1.3037109375
,97.5910384,1.279296875
,97.6068785,1.259765625
,97.642933,1.3037109375
,97.6636526,1.396484375
,97.668944,1.5185546875
,97.7185739,1.6845703125
,97.7189671,1.8359375
,97.7314221,1.9921875
,97.7679647,2.1142578125
,97.772711,2.2314453125
,97.7877175,2.314453125
,97.8253137,2.3828125
,97.8469036,2.412109375
,97.847474,2.4169921875
,97.8841108,2.3974609375
,97.9066736,2.3779296875
,97.9111886,2.353515625
,97.9467762,2.3291015625
,97.9501798,2.3046875
,97.9676323,2.275390625
,98.0118682,2.255859375
,98.0124376,2.2265625
,98.042135,2.1923828125
,98.0494245,2.1484375
,98.086545,2.099609375
,98.0919972,2.05078125
,98.1278124,2.001953125
,98.130187,1.943359375
,98.1665079,1.8896484375
,98.1961752,1.8359375
,98.1965932,1.796875
,98.2093183,1.748046875
,98.2596724,1.7041015625
,98.2600963,1.66015625
,98.2900335,1.6259765625
,98.2906239,1.591796875
,98.3382493,1.5576171875
,98.3387921,1.5185546875
,98.3673509,1.4794921875
,98.3679226,1.455078125
,98.4048991,1.4208984375
,98.4110261,1.396484375
,98.4450996,1.3671875
,98.4508244,1.337890625
,98.4935823,1.3037109375
,98.494137,1.2841796875
,98.5077424,1.2939453125
,98.5550579,1.3671875
,98.5554803,1.4794921875
,98.5752378,1.630859375
,98.5908176,1.796875
,98.6109376,1.9384765625
,98.6452956,2.0751953125
,98.6644484,2.1923828125
,98.6726066,2.294921875
,98.6883012,2.3583984375
,98.7236065,2.412109375
,98.7446388,2.4169921875
,98.7499601,2.4072265625
,98.7877828,2.3828125
,98.789636,2.3583984375
,98.8338868,2.32421875
,98.8342511,2.2998046875
,98.8541558,2.2705078125
,98.8957448,2.236328125
,98.896423,2.197265625
,98.9102286,2.16796875
,98.9439191,2.12890625
,98.9662071,2.080078125
,98.9714546,2.0361328125
,98.9922231,1.982421875
,99.0280898,1.9287109375
,99.0325706,1.875
,99.0694717,1.826171875
,99.070056,1.77734375
,99.1062424,1.728515625
,99.1111821,1.689453125
,99.1463218,1.6455078125
,99.1523307,1.6015625
,99.190753,1.5625
,99.1912205,1.5234375
,99.2389561,1.4892578125
,99.2395061,1.4599609375
,99.2701174,1.42578125
,99.2706083,1.4013671875
,99.315917,1.3720703125
,99.3165069,1.3525390625
,99.3310576,1.328125
,99.3661742,1.3037109375
,99.393659,1.279296875
,99.3940081,1.259765625
,99.409654,1.2744140625
,99.4567395,1.3525390625
,99.4571216,1.4697265625
,99.477368,1.630859375
,99.4916959,1.787109375
,99.533527,1.953125
,99.5340875,2.080078125
,99.5535276,2.2119140625
,99.5730729,2.314453125
,99.6077357,2.3828125
,99.6290437,2.421875
