Time,PPG_Signal
0.2386204,1.1572265625
0.2389869,1.181640625
0.2569652,1.2158203125
0.2922292,1.26953125
0.292773,1.3232421875
0.3288128,1.376953125
0.3496229,1.416015625
0.3569056,1.4501953125
0.3783727,1.474609375
0.39773,1.4794921875
0.4343687,1.474609375
0.4388067,1.4599609375
0.4740446,1.4404296875
0.4745048,1.4111328125
0.5180725,1.38671875
0.5184712,1.3623046875
0.5384499,1.3427734375
0.5562805,1.318359375
0.5924032,1.3037109375
0.625898,1.279296875
0.6263837,1.259765625
0.634948,1.240234375
0.6729291,1.23046875
0.6732269,1.2158203125
0.7197732,1.2109375
0.7200993,1.2060546875
0.7413388,1.19140625
0.7590925,1.1865234375
0.7955848,1.1767578125
0.7991365,1.171875
0.8156908,1.162109375
0.8588407,1.1669921875
0.8591451,1.1572265625
0.8773226,1.1572265625
0.912244,1.15234375
0.9165262,1.1474609375
0.9685412,1.142578125
0.9688507,1.1474609375
0.9752249,1.1376953125
1.0145054,1.142578125
1.0178069,1.15234375
1.0613457,1.1669921875
1.0616684,1.2109375
1.0767891,1.259765625
1.1130797,1.318359375
1.1331572,1.3671875
1.1393653,1.4111328125
1.1564221,1.435546875
1.2024675,1.46484375
1.2028464,1.4453125
1.2175246,1.4599609375
1.2515678,1.4501953125
1.256399,1.4306640625
1.2946033,1.40625
1.3154723,1.3720703125
1.3189519,1.3427734375
1.3394486,1.3232421875
1.3599714,1.3037109375
1.3763355,1.279296875
1.4121504,1.2646484375
1.4166986,1.25
1.4516815,1.2353515625
1.4571912,1.220703125
1.50439,1.2060546875
1.5050949,1.19140625
1.5208317,1.181640625
1.5350525,1.171875
1.5751964,1.1669921875
1.5756551,1.1572265625
1.6220874,1.15234375
1.6223936,1.1474609375
1.6376883,1.142578125
1.6757647,1.1474609375
1.6941517,1.142578125
1.6985546,1.142578125
1.716969,1.142578125
1.7416268,1.15234375
1.7580612,1.15234375
1.805106,1.1572265625
1.8054205,1.1572265625
1.8178972,1.162109375
1.8695453,1.171875
1.8700145,1.2060546875
1.8750072,1.240234375
1.910616,1.298828125
1.9156412,1.3427734375
1.9500796,1.38671875
1.9712466,1.4111328125
1.9803947,1.4453125
1.9982429,1.455078125
2.0386706,1.455078125
2.04005,1.4453125
2.0596289,1.42578125
2.1004117,1.4013671875
2.1007679,1.3720703125
2.1217154,1.3525390625
2.1398126,1.328125
2.1796543,1.3037109375
2.1801076,1.2841796875
2.2147765,1.2646484375
2.2185083,1.2451171875
2.2534921,1.2353515625
2.2742446,1.220703125
2.2789703,1.2109375
2.2979807,1.2060546875
2.3492323,1.1962890625
2.3496926,1.1865234375
2.3575488,1.1767578125
2.3962753,1.171875
2.4178925,1.162109375
2.4208209,1.162109375
2.4364604,1.15234375
2.471161,1.15234375
2.4907012,1.15234375
2.4977239,1.1572265625
2.5334904,1.15234375
2.5547204,1.15234375
2.5596158,1.1474609375
2.595311,1.1474609375
2.5956399,1.142578125
2.631751,1.1572265625
2.662036,1.1767578125
2.6624125,1.2109375
2.6792343,1.259765625
2.71347,1.30859375
2.7348727,1.3525390625
2.7397609,1.38671875
2.787023,1.4208984375
2.787341,1.4404296875
2.8081155,1.455078125
2.8184381,1.4599609375
2.8651687,1.455078125
2.8656342,1.435546875
2.8804965,1.416015625
2.9267369,1.38671875
2.9271393,1.3623046875
2.9424653,1.337890625
2.9621879,1.318359375
3.004201,1.2939453125
3.0045264,1.2744140625
3.0196572,1.26953125
3.0390396,1.2548828125
3.0804176,1.240234375
3.0824623,1.2255859375
3.1011148,1.220703125
3.1363881,1.201171875
3.1416756,1.19140625
3.1598278,1.1767578125
3.2026031,1.171875
3.2030869,1.171875
3.2209604,1.1669921875
3.2387455,1.162109375
3.2787678,1.1572265625
3.2832678,1.162109375
3.3011838,1.1572265625
3.3503873,1.162109375
3.3509508,1.15234375
3.3715048,1.15234375
3.3796601,1.15234375
3.3994022,1.15234375
3.4205868,1.1572265625
3.4557246,1.1767578125
3.4603541,1.2109375
3.4943603,1.259765625
3.5153582,1.30859375
3.5158602,1.3671875
3.5599159,1.4111328125
3.5603529,1.4453125
3.580416,1.474609375
3.6161924,1.4794921875
3.6192288,1.484375
3.6582596,1.4697265625
3.6767102,1.46484375
3.6812061,1.4306640625
3.7026665,1.3916015625
3.7189498,1.3427734375
3.7544362,1.337890625
3.7831715,1.328125
3.783625,1.328125
3.7996929,1.3134765625
3.8429811,1.298828125
3.8432813,1.279296875
3.8598284,1.26953125
3.9056507,1.2451171875
3.9059605,1.25
3.9205598,1.2353515625
3.9559528,1.220703125
3.9584748,1.2109375
3.9949486,1.201171875
4.0156743,1.19140625
4.0210993,1.181640625
4.0572977,1.181640625
4.0585462,1.171875
4.0948964,1.171875
4.099778,1.171875
4.1357586,1.171875
4.14121,1.162109375
4.1749309,1.162109375
4.1951955,1.1572265625
4.2012687,1.15234375
4.2375481,1.1572265625
4.2384728,1.1669921875
4.2748525,1.2109375
4.2783223,1.259765625
4.3013222,1.3232421875
4.3213196,1.3720703125
4.3416398,1.4208984375
4.3763711,1.455078125
4.3969965,1.484375
4.3973724,1.494140625
4.4467773,1.50390625
4.4470215,1.494140625
4.4666345,1.4794921875
4.4793096,1.4501953125
4.5130352,1.42578125
4.5344596,1.3916015625
4.5423067,1.376953125
4.5873988,1.34765625
4.5879678,1.3232421875
4.6037729,1.298828125
4.6192946,1.2744140625
4.6595984,1.259765625
4.6600545,1.240234375
4.6959803,1.2255859375
4.7007385,1.2109375
4.7362443,1.1962890625
4.7558162,1.181640625
4.7635664,1.171875
4.7799272,1.1572265625
4.8164852,1.162109375
4.8213438,1.1572265625
4.8578479,1.1572265625
4.8600087,1.1572265625
4.9097141,1.1474609375
4.9100541,1.1474609375
4.9296728,1.142578125
4.9428891,1.142578125
4.9600288,1.1376953125
5.0025885,1.142578125
5.0030363,1.142578125
5.0501347,1.15234375
5.0506023,1.1669921875
5.0640585,1.2060546875
5.0828185,1.2548828125
5.1198605,1.30859375
5.1201838,1.3525390625
5.1534955,1.40625
5.1757431,1.435546875
5.1804042,1.46484375
5.2164822,1.484375
5.2368149,1.4794921875
5.2420148,1.4794921875
5.2796487,1.455078125
5.3007053,1.42578125
5.3009558,1.396484375
5.3212315,1.376953125
5.3582598,1.3525390625
5.3585112,1.3330078125
5.4033612,1.30859375
5.4038092,1.2890625
5.4232727,1.2646484375
5.4584367,1.25
5.4636886,1.23046875
5.5118524,1.2158203125
5.5120981,1.2060546875
5.5310317,1.1865234375
5.5404549,1.181640625
5.5755803,1.1767578125
5.6037851,1.171875
5.6041868,1.1669921875
5.6393424,1.162109375
5.6422662,1.15234375
5.6638354,1.1474609375
5.6821951,1.142578125
5.7175803,1.1474609375
5.7219001,1.142578125
5.7595449,1.142578125
5.7599738,1.1376953125
5.8062338,1.1376953125
5.8065969,1.142578125
5.8374274,1.171875
5.8444946,1.220703125
5.8617424,1.26953125
5.8808755,1.337890625
5.9165299,1.3916015625
5.9376719,1.4453125
5.9423891,1.474609375
5.9778737,1.50390625
5.9979024,1.513671875
6.0045133,1.5185546875
6.019867,1.5087890625
6.0548341,1.494140625
6.075424,1.4697265625
6.0838595,1.4501953125
6.1033379,1.4208984375
6.148302,1.396484375
6.1487682,1.3720703125
6.1952768,1.34765625
6.1957357,1.328125
6.2047819,1.298828125
6.225903,1.2646484375
6.2426539,1.23046875
6.2773109,1.23046875
6.2811463,1.220703125
6.3165571,1.2109375
6.3368046,1.201171875
6.3431631,1.1962890625
6.3774778,1.1865234375
6.3972385,1.181640625
6.4002017,1.1669921875
6.4344507,1.1669921875
6.4552711,1.1572265625
6.4613366,1.162109375
6.5035558,1.1572265625
6.5041054,1.15234375
6.5245308,1.1474609375
6.5670138,1.142578125
6.5674072,1.142578125
6.5818808,1.1376953125
6.6160546,1.1669921875
6.6364358,1.2060546875
6.6441712,1.26953125
6.6801667,1.3330078125
6.6841985,1.396484375
6.718871,1.4453125
6.7393398,1.494140625
6.7397254,1.5234375
6.7748988,1.552734375
6.796132,1.572265625
6.8045241,1.5771484375
6.8397738,1.5673828125
6.8428366,1.5478515625
6.8914524,1.5283203125
6.8917336,1.4990234375
6.9056758,1.4697265625
6.9228853,1.435546875
6.9705346,1.4111328125
6.9709479,1.38671875
6.983392,1.3623046875
7.0186977,1.3330078125
7.0477088,1.30859375
7.0480337,1.2841796875
7.0660949,1.259765625
7.1033376,1.23046875
7.1044357,1.2109375
7.125193,1.1962890625
7.1408534,1.1767578125
7.174721,1.1669921875
7.1958006,1.15234375
7.2055872,1.1474609375
7.2255354,1.1376953125
7.244905,1.1328125
7.2801816,1.123046875
7.3009774,1.1181640625
7.3013815,1.1083984375
7.3371656,1.1083984375
7.3577226,1.1083984375
7.3645454,1.11328125
7.3994553,1.1181640625
7.4052743,1.142578125
7.4410713,1.19140625
7.4439056,1.2451171875
7.4775004,1.3037109375
7.4995312,1.3525390625
7.5041108,1.40625
7.5393916,1.4453125
7.5438786,1.474609375
7.5786457,1.484375
7.5840599,1.4892578125
7.6217712,1.484375
7.6275327,1.46484375
7.6442289,1.435546875
7.6794339,1.4111328125
7.6814954,1.3818359375
7.7312086,1.3525390625
7.7315234,1.3232421875
7.762002,1.298828125
7.7648219,1.279296875
7.8027878,1.25
7.8044146,1.23046875
7.8230469,1.2060546875
7.8585874,1.1962890625
7.8864244,1.1572265625
7.886738,1.162109375
7.9212783,1.162109375
7.926291,1.1572265625
7.9644581,1.1474609375
7.9647172,1.142578125
7.9984114,1.1376953125
8.0193045,1.1328125
8.0254936,1.1279296875
8.0444006,1.1279296875
8.0795545,1.1328125
8.0825668,1.1279296875
8.1190196,1.1279296875
8.1487571,1.1279296875
8.1491112,1.1376953125
8.1660702,1.15234375
8.2059277,1.19140625
8.2224948,1.240234375
8.2229459,1.30859375
8.2550313,1.3720703125
8.2753348,1.4306640625
8.2870593,1.46484375
8.3233566,1.494140625
8.3263248,1.5087890625
8.3647762,1.513671875
8.3651696,1.50390625
8.3834144,1.4990234375
8.4233795,1.4794921875
8.4541081,1.4501953125
8.4544297,1.4208984375
8.465371,1.396484375
8.5022052,1.3720703125
8.522214,1.34765625
8.5265332,1.3232421875
8.5438423,1.3037109375
8.5795356,1.2841796875
8.5836897,1.2646484375
8.6230791,1.2451171875
8.6235532,1.2255859375
8.6697508,1.2109375
8.6701469,1.2060546875
8.6898943,1.19140625
8.7073904,1.1767578125
8.7418019,1.162109375
8.7483671,1.1474609375
8.7640345,1.1376953125
8.7996284,1.1376953125
8.8203941,1.1328125
8.8265002,1.1328125
8.8766698,1.123046875
8.8770686,1.123046875
8.8881448,1.1181640625
8.9374821,1.1279296875
8.9379214,1.1474609375
8.94722,1.201171875
8.9834883,1.2548828125
8.9838712,1.3232421875
9.0310206,1.38671875
9.0314169,1.4453125
9.0503422,1.4892578125
9.0674414,1.5185546875
9.1053491,1.54296875
9.1056676,1.552734375
9.1557212,1.5576171875
9.1562378,1.5478515625
9.165122,1.5283203125
9.1989003,1.50390625
9.2202682,1.474609375
9.227199,1.4404296875
9.2616195,1.416015625
9.2818668,1.38671875
9.2843467,1.3671875
9.3176062,1.3427734375
9.3388726,1.318359375
9.3460677,1.298828125
9.3894457,1.2744140625
9.3897488,1.25
9.4193418,1.23046875
9.4299319,1.2158203125
9.4461172,1.1962890625
9.4816029,1.1865234375
9.4841563,1.171875
9.5190596,1.162109375
9.5399847,1.1474609375
9.5448295,1.142578125
9.5791505,1.1328125
9.6006185,1.1279296875
9.6107728,1.1181640625
9.6297847,1.1083984375
9.6459655,1.0986328125
9.6813836,1.11328125
9.6864699,1.1328125
9.7292582,1.162109375
9.7296569,1.220703125
9.7472119,1.2890625
9.7829406,1.357421875
9.8028156,1.4111328125
9.8074323,1.4599609375
9.824898,1.4990234375
9.8688181,1.533203125
9.8692359,1.5478515625
9.8986486,1.5576171875
9.9065489,1.5478515625
9.9405804,1.533203125
9.9611798,1.5087890625
9.9694299,1.474609375
10.0067819,1.4453125
10.0070355,1.4111328125
10.0412086,1.3818359375
10.0465397,1.3525390625
10.086754,1.3330078125
10.087155,1.3037109375
10.1321299,1.279296875
10.1325284,1.25
10.1618888,1.23046875
10.1675362,1.201171875
10.2022122,1.1865234375
10.2047716,1.171875
10.2407624,1.1572265625
10.2707359,1.142578125
10.2709832,1.1279296875
10.2884761,1.1181640625
10.3240317,1.11328125
10.3282056,1.1083984375
10.3493188,1.0986328125
10.3691787,1.0693359375
10.3862068,1.0498046875
10.4259121,1.064453125
10.4264321,1.0791015625
10.4573182,1.09375
10.4677674,1.1181640625
10.5048502,1.171875
10.509319,1.2255859375
10.5504835,1.2939453125
10.5507795,1.3525390625
10.568468,1.4111328125
10.5870035,1.4453125
10.6291548,1.4794921875
10.6295656,1.4990234375
10.6653254,1.4990234375
10.6671549,1.4892578125
10.7073156,1.4697265625
10.7077237,1.4453125
10.7256874,1.4111328125
10.761498,1.3818359375
10.7809128,1.3525390625
10.7877786,1.328125
10.8094707,1.298828125
10.8458821,1.279296875
10.8499782,1.259765625
10.8704992,1.240234375
10.886366,1.2109375
10.9222585,1.19140625
10.9262911,1.171875
10.9661195,1.162109375
10.9664881,1.15234375
11.0027357,1.1376953125
11.0227769,1.1279296875
11.0293247,1.1181640625
11.0636492,1.1083984375
11.0842333,1.103515625
11.0870771,1.103515625
11.1376343,1.103515625
11.1380849,1.103515625
11.1470421,1.0986328125
11.1807638,1.103515625
11.2016736,1.0986328125
11.2089051,1.103515625
11.2430636,1.1181640625
11.2638217,1.1669921875
11.2719502,1.23046875
11.2873701,1.2890625
11.3218328,1.3525390625
11.3422086,1.40625
11.3472128,1.455078125
11.3793526,1.4794921875
11.4004848,1.4990234375
11.4109747,1.50390625
11.4470284,1.50390625
11.4474729,1.484375
11.4825358,1.46484375
11.5110915,1.435546875
11.5114832,1.4111328125
11.5449158,1.376953125
11.5494761,1.3525390625
11.587696,1.328125
11.6071162,1.3037109375
11.6098139,1.279296875
11.6283534,1.2548828125
11.6634661,1.23046875
11.6680409,1.2109375
11.7108613,1.19140625
11.711137,1.1767578125
11.7299943,1.162109375
11.7515026,1.1474609375
11.7865982,1.1376953125
11.7870699,1.1279296875
11.8225043,1.123046875
11.850153,1.1181640625
11.8504012,1.11328125
11.8845045,1.1083984375
11.8890159,1.103515625
11.9251309,1.103515625
11.9295614,1.0986328125
11.9743621,1.0986328125
11.9746065,1.103515625
11.9967324,1.142578125
12.008122,1.1865234375
12.0514906,1.25
12.0517461,1.3134765625
12.0728113,1.38671875
12.0907746,1.435546875
12.1257025,1.484375
12.1485795,1.5087890625
12.152757,1.533203125
12.1674369,1.533203125
12.2061057,1.5380859375
12.2281564,1.5185546875
12.2284809,1.50390625
12.2679237,1.474609375
12.287735,1.4404296875
12.2894091,1.4111328125
12.3249885,1.3818359375
12.3457591,1.3525390625
12.3483158,1.3232421875
12.3856873,1.3037109375
12.3883453,1.2841796875
12.4247364,1.2548828125
12.4450029,1.2353515625
12.4505208,1.2109375
12.4864443,1.19140625
12.4926513,1.181640625
12.5081497,1.162109375
12.5457183,1.15234375
12.5672785,1.1474609375
12.5694452,1.1328125
12.6097875,1.1279296875
12.6100317,1.1181640625
12.6309738,1.1181640625
12.6650304,1.1083984375
12.6857836,1.103515625
12.6883269,1.09375
12.72354,1.0986328125
12.728096,1.0986328125
12.7646325,1.1083984375
12.7849001,1.1279296875
12.7894559,1.171875
12.8266243,1.2255859375
12.8313557,1.298828125
12.8513327,1.357421875
12.8847566,1.396484375
12.8922289,1.4208984375
12.910342,1.4501953125
12.9449705,1.4794921875
12.9497958,1.494140625
12.9836492,1.4892578125
13.004512,1.474609375
13.0116921,1.4501953125
13.06043,1.4208984375
13.0606756,1.3916015625
13.0677475,1.357421875
13.1088162,1.328125
13.1090563,1.3037109375
13.1540171,1.279296875
13.1544402,1.25
13.1742975,1.2255859375
13.215944,1.2109375
13.2168552,1.19140625
13.2331107,1.171875
13.2489328,1.15234375
13.283734,1.1474609375
13.3043546,1.1328125
13.3099932,1.1279296875
13.3535885,1.1181640625
13.354164,1.11328125
13.3743082,1.103515625
13.3940146,1.0986328125
13.4103448,1.09375
13.44811,1.09375
13.4483587,1.09375
13.4700151,1.09375
13.506328,1.0888671875
13.512293,1.09375
13.5583701,1.0986328125
13.5587604,1.103515625
13.5724269,1.1376953125
13.588656,1.181640625
13.6375791,1.2451171875
13.6378947,1.298828125
13.6689047,1.34765625
13.6692023,1.38671875
13.7049774,1.416015625
13.7265903,1.4306640625
13.733296,1.435546875
13.7541782,1.42578125
13.7915301,1.4111328125
13.7918515,1.3818359375
13.8381311,1.357421875
13.8388277,1.3330078125
13.8513897,1.3037109375
13.901603,1.279296875
13.901996,1.25
13.9323307,1.2353515625
13.9327994,1.2109375
13.9697892,1.1962890625
13.9700862,1.1767578125
13.9929105,1.1669921875
14.0269616,1.1572265625
14.0299741,1.162109375
14.0713747,1.15234375
14.0902974,1.1474609375
14.0929408,1.1376953125
14.1262102,1.1328125
14.1476291,1.123046875
14.1493564,1.1279296875
14.185806,1.1279296875
14.2075734,1.123046875
14.2122223,1.123046875
14.247119,1.123046875
14.2686458,1.123046875
14.2715773,1.1181640625
14.3171801,1.1181640625
14.3175709,1.1181640625
14.3369156,1.1376953125
14.3498236,1.162109375
14.3950716,1.2109375
14.3954879,1.2646484375
14.4243295,1.318359375
14.4316853,1.3623046875
14.4693771,1.396484375
14.4738288,1.435546875
14.4908261,1.4404296875
14.5152055,1.4501953125
14.531331,1.4208984375
14.5657999,1.4208984375
14.5856097,1.4013671875
14.5925391,1.376953125
14.6402538,1.34765625
14.6406663,1.328125
14.6556882,1.298828125
14.7023662,1.2841796875
14.7026119,1.259765625
14.7126137,1.25
14.7485535,1.23046875
14.7513684,1.2158203125
14.7930065,1.1962890625
14.7933331,1.19140625
14.815169,1.181640625
14.8550522,1.171875
14.8552969,1.162109375
14.871512,1.15234375
14.9097009,1.1474609375
14.9100955,1.142578125
14.9459295,1.142578125
14.965287,1.1376953125
14.9724308,1.1328125
15.0069117,1.1328125
15.0394294,1.1279296875
15.0398469,1.123046875
15.0508482,1.1376953125
15.0868241,1.1328125
15.1070143,1.1376953125
15.1120907,1.15234375
15.1473342,1.1669921875
15.1674506,1.201171875
15.1730545,1.2451171875
15.2069356,1.298828125
15.228245,1.3427734375
15.2303127,1.38671875
15.2726282,1.416015625
15.2731886,1.4453125
15.3093498,1.4501953125
15.3134105,1.455078125
15.3485754,1.4404296875
15.369777,1.4208984375
15.3766578,1.396484375
15.4137097,1.3427734375
15.4140126,1.318359375
15.4623922,1.30859375
15.4628068,1.2939453125
15.4764926,1.2744140625
15.4941897,1.259765625
15.5299928,1.2451171875
15.5343615,1.23046875
15.5836218,1.2158203125
15.5841014,1.2060546875
15.5917245,1.19140625
15.6150636,1.181640625
15.6328866,1.1767578125
15.6664946,1.171875
15.6882127,1.162109375
15.695853,1.1572265625
15.7393406,1.1474609375
15.7396364,1.142578125
15.7568096,1.142578125
15.7718623,1.1328125
15.8168408,1.1328125
15.8175209,1.1328125
15.8372968,1.1376953125
15.8544597,1.1376953125
15.8898801,1.1328125
15.9097664,1.1376953125
15.9145704,1.15234375
15.9309528,1.1767578125
15.9665893,1.2255859375
15.9868203,1.2744140625
15.993382,1.328125
16.0292773,1.3623046875
16.0510657,1.396484375
16.0528996,1.416015625
16.0993198,1.4404296875
16.0996235,1.4501953125
16.1187387,1.435546875
16.1321716,1.4208984375
16.1692613,1.40625
16.172608,1.376953125
16.2076606,1.34765625
16.228702,1.3232421875
16.2340158,1.3037109375
16.2664572,1.279296875
16.2885745,1.259765625
16.2962334,1.2451171875
16.3142225,1.23046875
16.3569478,1.220703125
16.3573473,1.2060546875
16.373787,1.1962890625
16.4105585,1.19140625
16.4151052,1.1767578125
16.4499625,1.171875
16.4699173,1.162109375
16.4759845,1.1572265625
16.4932225,1.142578125
16.530383,1.1474609375
16.535164,1.142578125
16.5702391,1.1474609375
16.5751286,1.142578125
16.6223003,1.1474609375
16.6225965,1.142578125
16.6375441,1.1474609375
16.6528346,1.142578125
16.6865395,1.1474609375
16.707994,1.1572265625
16.7152055,1.1865234375
16.7631646,1.2255859375
16.7635901,1.2646484375
16.7755563,1.3037109375
16.8255984,1.337890625
16.8259991,1.3623046875
16.8577294,1.3818359375
16.8580474,1.396484375
16.8741644,1.396484375
16.9192814,1.38671875
16.9195927,1.3720703125
16.9354102,1.34765625
16.9716066,1.3232421875
16.9981736,1.298828125
16.9984922,1.279296875
17.0171591,1.2646484375
17.0392163,1.2353515625
17.0545266,1.201171875
17.1071263,1.201171875
17.1074584,1.201171875
17.1166989,1.2060546875
17.1664479,1.201171875
17.1669317,1.1962890625
17.1766823,1.19140625
17.2133741,1.1865234375
17.2446245,1.1767578125
17.2449269,1.1767578125
17.2563523,1.171875
17.3065031,1.171875
17.3075,1.171875
17.3173922,1.1669921875
17.3543699,1.1572265625
17.3587507,1.162109375
17.3784934,1.1572265625
17.3954707,1.15234375
17.4314498,1.1572265625
17.4354988,1.162109375
17.4555519,1.171875
17.4918895,1.1865234375
17.4974616,1.2158203125
17.5163144,1.2548828125
17.5544348,1.298828125
17.5546773,1.328125
17.6017345,1.3623046875
17.6022003,1.38671875
17.6169887,1.40625
17.6522069,1.40625
17.6547707,1.40625
17.6942583,1.396484375
17.715489,1.3720703125
17.718097,1.34765625
17.7342814,1.328125
17.7719747,1.3134765625
17.7768008,1.2939453125
17.7973346,1.279296875
17.8330169,1.2646484375
17.8375782,1.2548828125
17.8711754,1.240234375
17.8924077,1.23046875
17.895583,1.2158203125
17.9452866,1.2060546875
17.9457307,1.19140625
17.9748758,1.19140625
17.9751761,1.181640625
18.0104231,1.1865234375
18.029685,1.1767578125
18.0376847,1.171875
18.0577123,1.1669921875
18.0931096,1.162109375
18.0976638,1.162109375
18.1161479,1.1572265625
18.1510364,1.171875
18.1551209,1.171875
18.1900801,1.1767578125
18.210243,1.1767578125
18.2171783,1.181640625
18.2560612,1.1962890625
18.2564707,1.23046875
18.2904892,1.26953125
18.2955196,1.3232421875
18.3336714,1.3720703125
18.3389299,1.40625
18.3724128,1.4306640625
18.376351,1.4453125
18.4131404,1.455078125
18.4435146,1.4501953125
18.4439552,1.435546875
18.4547747,1.416015625
18.493531,1.396484375
18.521909,1.3720703125
18.5224023,1.3525390625
18.5372892,1.328125
18.5725085,1.3134765625
18.6008681,1.2939453125
18.6012294,1.2744140625
18.6129064,1.2548828125
18.6483912,1.2548828125
18.6707143,1.2451171875
18.6777748,1.23046875
18.7129222,1.2255859375
18.7185796,1.2158203125
18.7592666,1.2060546875
18.7597212,1.1962890625
18.7955894,1.19140625
18.8006628,1.1865234375
18.8197924,1.1767578125
18.8368079,1.171875
18.8821301,1.1669921875
18.8825672,1.1669921875
18.8967756,1.1669921875
18.9191826,1.162109375
18.9547296,1.162109375
18.9599089,1.1669921875
18.9936488,1.162109375
19.0008152,1.1767578125
19.0159978,1.201171875
19.0527489,1.259765625
19.0717604,1.3037109375
19.0789055,1.357421875
19.1133072,1.396484375
19.1195957,1.4306640625
19.1558005,1.4501953125
19.1581619,1.474609375
19.1930416,1.474609375
19.1946397,1.4697265625
19.2378076,1.4501953125
19.2382068,1.42578125
19.2725125,1.396484375
19.2922526,1.376953125
19.2983172,1.34765625
19.3313302,1.3232421875
19.3517957,1.298828125
19.3592716,1.279296875
19.3771406,1.2646484375
19.4123998,1.25
19.4171038,1.240234375
19.4526539,1.2255859375
19.4728285,1.2109375
19.4790098,1.201171875
19.5158428,1.1865234375
19.5357148,1.181640625
19.5391232,1.15234375
19.5728345,1.1279296875
19.5753484,1.1376953125
19.6137149,1.1474609375
19.6420476,1.142578125
19.6422882,1.1474609375
19.6582575,1.142578125
19.704242,1.1474609375
19.704492,1.1474609375
19.7243926,1.1474609375
19.7372931,1.1474609375
19.7811663,1.171875
19.7815676,1.201171875
19.7983852,1.2451171875
19.8354985,1.2841796875
19.8390607,1.3330078125
19.8739792,1.3671875
19.8805321,1.3916015625
19.896346,1.4013671875
19.9384096,1.4208984375
19.9388052,1.42578125
19.9682567,1.4111328125
19.9774756,1.3916015625
20.0158215,1.3671875
20.0469213,1.3427734375
20.0472479,1.318359375
20.0605888,1.298828125
20.0764476,1.279296875
20.1129812,1.2646484375
20.1394185,1.25
20.1398196,1.240234375
20.1609171,1.2255859375
20.200615,1.2255859375
20.2010069,1.2158203125
20.2394257,1.2109375
20.239882,1.2060546875
20.258166,1.1962890625
20.2959606,1.19140625
20.2963368,1.1865234375
20.3314491,1.1865234375
20.3520389,1.1767578125
20.3593356,1.1767578125
20.4030444,1.1669921875
20.4034567,1.1669921875
20.4208275,1.162109375
20.4649255,1.162109375
20.465234,1.1572265625
20.4790612,1.1669921875
20.5273255,1.181640625
20.5277208,1.2158203125
20.5413994,1.2548828125
20.5882737,1.30859375
20.5886685,1.3525390625
20.6021916,1.3818359375
20.6213874,1.4111328125
20.6389688,1.42578125
20.6752167,1.4404296875
20.6801631,1.4404296875
20.728769,1.4404296875
20.7291805,1.42578125
20.7415901,1.4013671875
20.7620853,1.3720703125
20.8071711,1.34765625
20.807488,1.3232421875
20.8184303,1.30859375
20.85521,1.2841796875
20.8571679,1.2744140625
20.9003623,1.2646484375
20.9006917,1.2451171875
20.9209175,1.23046875
20.9535643,1.2158203125
20.9746415,1.2060546875
20.9775826,1.19140625
21.0125467,1.1865234375
21.0339722,1.181640625
21.0402646,1.1767578125
21.0879534,1.171875
21.0883595,1.1669921875
21.1007178,1.162109375
21.1381399,1.1572265625
21.1385459,1.15234375
21.1730804,1.1572265625
21.1939492,1.15234375
21.1982544,1.162109375
21.2341967,1.171875
21.2575922,1.1767578125
21.2597407,1.2060546875
21.2925607,1.2451171875
21.3138182,1.298828125
21.3224077,1.3427734375
21.366942,1.38671875
21.3678888,1.4208984375
21.3801729,1.4501953125
21.4269013,1.4697265625
21.4275087,1.474609375
21.4479982,1.4697265625
21.461475,1.455078125
21.4967589,1.4306640625
21.5030691,1.4013671875
21.5220555,1.376953125
21.5384247,1.34765625
21.5782198,1.3330078125
21.5810321,1.30859375
21.6293424,1.2939453125
21.6298039,1.2744140625
21.6409898,1.2548828125
21.676372,1.2353515625
21.6973386,1.220703125
21.7001543,1.201171875
21.7358225,1.201171875
21.7565955,1.19140625
21.7615102,1.1865234375
21.8027785,1.1767578125
21.8081403,1.171875
21.8220672,1.162109375
21.8575988,1.1572265625
21.8815123,1.15234375
21.8819327,1.142578125
21.9281763,1.142578125
21.9285139,1.142578125
21.9422322,1.142578125
21.9771949,1.142578125
21.9813631,1.1474609375
22.0147485,1.162109375
22.0355665,1.1962890625
22.0419687,1.240234375
22.0637401,1.2744140625
22.0792302,1.3037109375
22.1286311,1.357421875
22.1290238,1.3916015625
22.1420615,1.4208984375
22.1608062,1.435546875
22.1942704,1.435546875
22.2152107,1.42578125
22.2230946,1.40625
22.2681013,1.38671875
22.2685352,1.357421875
22.2791254,1.337890625
22.3125926,1.318359375
22.3330908,1.298828125
22.3430756,1.2744140625
22.3802082,1.259765625
22.380694,1.240234375
22.4215649,1.23046875
22.4218085,1.2109375
22.4420832,1.2060546875
22.4770325,1.19140625
22.4813563,1.19140625
22.5145725,1.181640625
22.5352961,1.171875
22.5426756,1.1669921875
22.5787509,1.1572265625
22.5828185,1.1572265625
22.6001608,1.1474609375
22.6357221,1.1474609375
22.6398,1.142578125
22.6759374,1.142578125
22.7012863,1.1376953125
22.7016969,1.142578125
22.7465214,1.142578125
22.7469152,1.1572265625
22.7669378,1.181640625
22.78056,1.2255859375
22.8159982,1.2841796875
22.8228888,1.328125
22.8580285,1.3720703125
22.8607141,1.4013671875
22.8978959,1.4208984375
22.9028269,1.4306640625
22.9237529,1.4306640625
22.9586886,1.416015625
22.9776101,1.396484375
22.9819838,1.3671875
23.0160682,1.34765625
23.0208855,1.3232421875
23.0553757,1.3037109375
23.0762801,1.2841796875
23.0837073,1.2646484375
23.1180464,1.2451171875
23.1227747,1.23046875
23.1685483,1.220703125
23.168925,1.2060546875
23.1974884,1.1962890625
23.2017036,1.1865234375
23.2364229,1.181640625
23.2588185,1.1767578125
23.2615106,1.1767578125
23.2984093,1.171875
23.3228725,1.1669921875
23.3232478,1.1572265625
23.3423159,1.162109375
23.3772715,1.1572265625
23.3822323,1.162109375
23.4196237,1.1572265625
23.4226144,1.15234375
23.4604239,1.1572265625
23.4805788,1.15234375
23.4834232,1.1669921875
23.5239663,1.1865234375
23.5242096,1.240234375
23.5422584,1.2890625
23.5629251,1.3427734375
23.6018719,1.38671875
23.6322941,1.42578125
23.6326882,1.4453125
23.6455749,1.46484375
23.6600036,1.4697265625
23.6961871,1.4697265625
23.7248217,1.42578125
23.7250917,1.4111328125
23.7720342,1.3916015625
23.7722781,1.3720703125
23.7831838,1.3525390625
23.8208155,1.3330078125
23.8254526,1.3134765625
23.8646721,1.2939453125
23.864966,1.2744140625
23.8815194,1.2548828125
23.9264721,1.240234375
23.9269465,1.23046875
23.9436658,1.220703125
23.9788003,1.2060546875
23.9852258,1.1962890625
24.03695,1.181640625
24.0374016,1.1767578125
24.0400794,1.1669921875
24.0839541,1.162109375
24.0843494,1.162109375
24.1065,1.1572265625
24.1229655,1.1572265625
24.1568704,1.1474609375
24.1784033,1.15234375
24.1860914,1.142578125
24.2205469,1.1474609375
24.2209153,1.15234375
24.2562524,1.1865234375
24.2778103,1.2353515625
24.2832622,1.298828125
24.3220431,1.3525390625
24.3222845,1.4111328125
24.364465,1.4453125
24.3648005,1.4697265625
24.3820844,1.4794921875
24.4023991,1.4892578125
24.4222589,1.484375
24.4578588,1.4599609375
24.4774903,1.435546875
24.4849047,1.40625
24.5225805,1.3720703125
24.5228787,1.3427734375
24.5580811,1.3134765625
24.5799514,1.2939453125
24.5867481,1.25
24.6022617,1.2353515625
24.6486295,1.2255859375
24.6489439,1.2158203125
24.6791618,1.2060546875
24.6860607,1.1962890625
24.7241096,1.1865234375
24.7244259,1.181640625
24.7578005,1.171875
24.7778942,1.162109375
24.7830109,1.15234375
24.8191082,1.1572265625
24.8237222,1.15234375
24.8587144,1.15234375
24.8795907,1.142578125
24.8845208,1.142578125
24.9188329,1.1376953125
24.9394838,1.1376953125
24.9420856,1.1328125
24.9791877,1.15234375
24.9816877,1.1767578125
25.0192252,1.220703125
25.0390667,1.26953125
25.0453113,1.3232421875
25.0828978,1.3671875
25.0874022,1.3916015625
25.1070551,1.416015625
25.1224963,1.42578125
25.1574702,1.435546875
25.1791627,1.42578125
25.1857552,1.4111328125
25.2229686,1.38671875
25.2234364,1.3623046875
25.2589863,1.3330078125
25.279783,1.30859375
25.2826152,1.2841796875
25.3184302,1.2744140625
25.322826,1.259765625
25.3578699,1.25
25.3782612,1.240234375
25.3861419,1.2255859375
25.4232031,1.2158203125
25.4240886,1.201171875
25.4619748,1.19140625
25.4681808,1.181640625
25.5030811,1.171875
25.5033908,1.1572265625
25.5482326,1.1572265625
25.5484757,1.15234375
25.5785458,1.15234375
25.5857054,1.1474609375
25.6207688,1.15234375
25.625557,1.1474609375
25.6649497,1.142578125
25.6651919,1.1376953125
25.7025568,1.15234375
25.7029692,1.171875
25.7410047,1.2060546875
25.7454861,1.2548828125
25.7813893,1.3037109375
25.8091745,1.357421875
25.8095654,1.396484375
25.8555129,1.4306640625
25.8559065,1.455078125
25.8629089,1.474609375
25.9031858,1.474609375
25.9230218,1.4697265625
25.9276908,1.4453125
25.9457596,1.4208984375
25.9812864,1.3916015625
26.0020757,1.3623046875
26.0078746,1.337890625
26.0238517,1.30859375
26.0598696,1.2939453125
26.0898508,1.2744140625
26.090244,1.259765625
26.1067097,1.2451171875
26.1516388,1.2255859375
26.1520909,1.2109375
26.1689479,1.201171875
26.189139,1.181640625
26.2084179,1.15234375
26.2255363,1.123046875
26.2613091,1.1328125
26.268039,1.1376953125
26.2861312,1.1376953125
26.3207837,1.1328125
26.3406423,1.142578125
26.3491762,1.1474609375
26.3692764,1.142578125
26.4045654,1.1474609375
26.4049577,1.1474609375
26.4454949,1.15234375
26.4462143,1.1669921875
26.4656655,1.2060546875
26.4993679,1.25
26.5197825,1.3134765625
26.5277919,1.3671875
26.5629448,1.4208984375
26.5633449,1.4599609375
26.584364,1.494140625
26.632148,1.5087890625
26.6324632,1.5185546875
26.6537209,1.5185546875
26.6652505,1.4990234375
26.701643,1.4697265625
26.7085932,1.4404296875
26.7452868,1.4111328125
26.7456834,1.376953125
26.7798425,1.357421875
26.8059442,1.3330078125
26.8062243,1.3134765625
26.841814,1.2890625
26.8459883,1.279296875
26.8823722,1.2548828125
26.9018266,1.240234375
26.9048865,1.220703125
26.938966,1.2109375
26.958432,1.1962890625
26.9670718,1.19140625
27.0016105,1.1767578125
27.0067633,1.1669921875
27.053471,1.162109375
27.0540428,1.15234375
27.0738238,1.142578125
27.0891072,1.1376953125
27.1230491,1.1328125
27.144164,1.1279296875
27.1460789,1.1279296875
27.181243,1.1279296875
27.1999372,1.1376953125
27.2086829,1.15234375
27.2445977,1.19140625
27.2486598,1.2353515625
27.286887,1.2890625
27.2872852,1.3427734375
27.3245353,1.376953125
27.3248528,1.416015625
27.3603683,1.4404296875
27.3802783,1.4599609375
27.3878501,1.455078125
27.4238121,1.4404296875
27.4282259,1.4208984375
27.4641828,1.3916015625
27.4867705,1.357421875
27.4872217,1.3330078125
27.5065947,1.3037109375
27.5416513,1.2841796875
27.5630173,1.2646484375
27.5676345,1.25
27.6113097,1.2353515625
27.6117023,1.220703125
27.6299823,1.2109375
27.6452217,1.1962890625
27.6812023,1.19140625
27.7033365,1.181640625
27.7076916,1.1767578125
27.7498741,1.162109375
27.7502796,1.1572265625
27.7873803,1.1474609375
27.7877838,1.142578125
27.8055602,1.1328125
27.8406573,1.1376953125
27.8593492,1.1328125
27.8663855,1.1376953125
27.9032821,1.1376953125
27.9242951,1.1376953125
27.9289838,1.1474609375
27.9809709,1.15234375
27.9812359,1.1865234375
27.9913166,1.2255859375
28.0102528,1.279296875
28.0274168,1.328125
28.0636083,1.3818359375
28.0685931,1.4208984375
28.1058103,1.4501953125
28.1062089,1.46484375
28.152749,1.4794921875
28.1531441,1.474609375
28.1718245,1.46484375
28.1850405,1.4404296875
28.2210189,1.4208984375
28.2414391,1.4013671875
28.2481897,1.38671875
28.2891947,1.3720703125
28.2894382,1.357421875
28.3261191,1.34765625
28.3288857,1.328125
28.3496773,1.3134765625
28.3676495,1.298828125
28.401805,1.3037109375
28.4231857,1.298828125
28.4298632,1.2939453125
28.4626276,1.2841796875
28.4685671,1.2744140625
28.4915271,1.2646484375
28.5277264,1.2646484375
28.5281532,1.2548828125
28.5593894,1.2548828125
28.5801042,1.259765625
28.5885132,1.25
28.6079207,1.2451171875
28.64308,1.240234375
28.6642035,1.2353515625
28.668962,1.2255859375
28.7084122,1.23046875
28.708871,1.2451171875
28.7323746,1.259765625
28.7481533,1.2841796875
28.7827935,1.34765625
28.8039808,1.3916015625
28.808782,1.4306640625
28.8481755,1.4501953125
28.8484874,1.46484375
28.8963199,1.46484375
28.8966171,1.4599609375
28.9265486,1.435546875
28.9269393,1.40625
28.9614972,1.376953125
28.9824553,1.34765625
28.9905577,1.3134765625
29.0340487,1.2841796875
29.0343631,1.2548828125
29.0519849,1.23046875
29.0958853,1.2060546875
29.096324,1.181640625
29.1072568,1.171875
29.1587918,1.1572265625
29.1592562,1.1474609375
29.1709379,1.1376953125
29.2229132,1.1279296875
29.2233837,1.123046875
29.2316765,1.1083984375
29.2535647,1.0986328125
29.2677503,1.09375
29.3039932,1.0986328125
29.3311612,1.0986328125
29.3316567,1.0986328125
29.3510288,1.09375
29.3696291,1.09375
29.4046876,1.0888671875
29.4256442,1.0986328125
29.4278197,1.103515625
29.4708949,1.1279296875
29.4716714,1.1572265625
29.4877969,1.2109375
29.5252598,1.259765625
29.5293964,1.318359375
29.566784,1.3623046875
29.5963348,1.3916015625
29.5967203,1.416015625
29.6125599,1.4208984375
29.6499512,1.4208984375
29.6504088,1.4013671875
29.6707664,1.38671875
29.6900647,1.357421875
29.7267273,1.3232421875
29.7321371,1.2939453125
29.7682307,1.2646484375
29.7709534,1.240234375
29.805616,1.220703125
29.8269642,1.201171875
29.8298991,1.19140625
29.8768281,1.181640625
29.8772879,1.171875
29.8902566,1.162109375
29.9093612,1.1474609375
29.9435737,1.142578125
29.9690799,1.1328125
29.9740069,1.1279296875
29.9884613,1.1181640625
30.0251636,1.1181640625
30.0310743,1.11328125
30.0504464,1.1181640625
30.087594,1.11328125
30.0915009,1.11328125
30.1280534,1.1083984375
30.132874,1.11328125
30.1485999,1.1083984375
30.182277,1.123046875
30.2036855,1.1279296875
30.2084656,1.142578125
30.2431628,1.1767578125
30.2632928,1.2158203125
30.2705358,1.2646484375
30.3075005,1.3037109375
30.343571,1.3427734375
30.3440257,1.3671875
30.3527939,1.38671875
30.370935,1.3671875
30.3885698,1.376953125
30.424168,1.3671875
30.4446785,1.357421875
30.4506174,1.337890625
30.4964701,1.3134765625
30.4973842,1.2939453125
30.511685,1.26953125
30.5452347,1.25
30.5660127,1.2353515625
30.5713096,1.23046875
30.6065756,1.2158203125
30.6115552,1.2109375
30.6468541,1.201171875
30.6809429,1.19140625
30.6812857,1.1767578125
30.6925857,1.171875
30.7118845,1.162109375
30.7456267,1.162109375
30.7508592,1.1572265625
30.7862521,1.1572265625
30.7919805,1.15234375
30.8359443,1.1572265625
30.8362467,1.1572265625
30.8537655,1.1474609375
30.8736423,1.15234375
30.890056,1.1474609375
30.9292465,1.15234375
30.9296945,1.1572265625
30.9634836,1.1767578125
30.9845455,1.1962890625
30.9914108,1.240234375
31.0388941,1.2841796875
31.0392313,1.328125
31.0490782,1.3623046875
31.0886495,1.396484375
31.0890038,1.416015625
31.1237196,1.42578125
31.1447939,1.4306640625
31.152421,1.4111328125
31.1943044,1.3916015625
31.1947574,1.3623046875
31.2155416,1.337890625
31.2341827,1.30859375
31.2685614,1.2890625
31.290191,1.26953125
31.2906492,1.2548828125
31.3358871,1.240234375
31.3362704,1.2353515625
31.3655251,1.220703125
31.3707827,1.2109375
31.4048041,1.1962890625
31.4244959,1.19140625
31.4300819,1.1767578125
31.4626599,1.181640625
31.4825445,1.181640625
31.4922151,1.1767578125
31.5279671,1.171875
31.5354529,1.1669921875
31.5538014,1.162109375
31.6012501,1.1572265625
31.6017304,1.1572265625
31.633805,1.1572265625
31.6341722,1.1572265625
31.6506844,1.1572265625
31.6857545,1.1572265625
31.7066585,1.162109375
31.7123002,1.181640625
31.7467762,1.2060546875
31.7682025,1.2548828125
31.7751643,1.3037109375
31.7905203,1.3427734375
31.8368451,1.3818359375
31.8372988,1.4111328125
31.8509947,1.435546875
31.9003069,1.4404296875
31.9006679,1.4404296875
31.9142586,1.42578125
31.963579,1.40625
31.9639238,1.376953125
31.9712141,1.3623046875
31.9911192,1.337890625
32.0294519,1.3232421875
32.0298961,1.3037109375
32.0705358,1.2890625
32.0922291,1.26953125
32.0954986,1.259765625
32.1142533,1.2451171875
32.1515577,1.23046875
32.1566121,1.2158203125
32.1712548,1.201171875
32.207257,1.1962890625
32.2124648,1.1865234375
32.2460925,1.1865234375
32.2667188,1.1767578125
32.2725142,1.1669921875
32.3193116,1.1572265625
32.3196493,1.1572265625
32.3407009,1.1474609375
32.3534996,1.15234375
32.3980897,1.15234375
32.3985349,1.15234375
32.4134195,1.1572265625
32.4488385,1.1572265625
32.4756622,1.171875
32.4759608,1.1962890625
32.5229493,1.2451171875
32.5234066,1.2890625
32.5314333,1.337890625
32.5681593,1.3720703125
32.572858,1.4013671875
32.6117599,1.416015625
32.6144047,1.42578125
32.649737,1.416015625
32.6559355,1.40625
32.6709043,1.376953125
32.7056907,1.357421875
32.7270517,1.328125
32.7321441,1.3134765625
32.7667888,1.2939453125
32.7873066,1.2744140625
32.7936372,1.2548828125
32.8283366,1.240234375
32.8484517,1.23046875
32.8551754,1.220703125
32.8748027,1.1865234375
32.891294,1.1572265625
32.9252195,1.162109375
32.9452003,1.162109375
32.9535466,1.1669921875
32.9895011,1.162109375
33.0089308,1.1669921875
33.0162479,1.1669921875
33.0664995,1.162109375
33.0668889,1.1669921875
33.0719882,1.162109375
33.1086446,1.162109375
33.128208,1.162109375
33.1327211,1.1669921875
33.1694402,1.1669921875
33.1749542,1.1767578125
33.2223047,1.19140625
33.2226133,1.2255859375
33.2427879,1.259765625
33.2531369,1.3134765625
33.2886398,1.34765625
33.2927601,1.3818359375
33.3335494,1.4013671875
33.3648849,1.416015625
33.3651813,1.416015625
33.3764984,1.4111328125
33.4260485,1.4013671875
33.426606,1.3720703125
33.4326295,1.3525390625
33.4734421,1.3330078125
33.4737676,1.3134765625
33.5086834,1.2939453125
33.5156587,1.2841796875
33.5514109,1.26953125
33.5564563,1.2548828125
33.5741481,1.240234375
33.613744,1.2353515625
33.6140505,1.2255859375
33.647333,1.220703125
33.6684783,1.2158203125
33.6738162,1.2060546875
33.7088182,1.201171875
33.7289827,1.1865234375
33.7368916,1.1767578125
33.7848998,1.171875
33.7852715,1.1669921875
33.7945587,1.162109375
33.8149579,1.162109375
33.8616344,1.162109375
33.8620322,1.162109375
33.87504,1.1572265625
33.9250228,1.162109375
33.9253893,1.171875
33.9376662,1.2060546875
33.9528673,1.25
33.9891671,1.3037109375
34.0175901,1.34765625
34.0180396,1.3916015625
34.0357068,1.42578125
34.0709685,1.4404296875
34.0910093,1.4501953125
34.0965063,1.4501953125
34.1321935,1.4404296875
34.1580698,1.416015625
34.1583322,1.396484375
34.174817,1.3720703125
34.2198273,1.34765625
34.2202177,1.3232421875
34.2379024,1.3037109375
34.2802936,1.279296875
34.2806859,1.2646484375
34.2957265,1.25
34.3144909,1.240234375
34.3344199,1.2353515625
34.369215,1.220703125
34.391543,1.2109375
34.3966998,1.1962890625
34.4179946,1.19140625
34.4383887,1.181640625
34.4581276,1.1767578125
34.4741023,1.171875
34.5145811,1.171875
34.5148579,1.1669921875
34.5360134,1.1767578125
34.5573093,1.1767578125
34.5757974,1.1767578125
34.6127205,1.171875
34.616954,1.171875
34.6523139,1.171875
34.6574957,1.1962890625
34.7022514,1.2353515625
34.7027335,1.2841796875
34.71566,1.34765625
34.750071,1.3916015625
34.7720915,1.435546875
34.7779552,1.46484375
34.7983319,1.484375
34.8177782,1.4892578125
34.8554997,1.484375
34.8557983,1.46484375
34.8915801,1.4404296875
34.8941052,1.4111328125
34.9285189,1.3818359375
34.9489851,1.357421875
34.9570644,1.328125
34.9944123,1.30859375
34.9995105,1.2841796875
35.0182379,1.26953125
35.0363661,1.25
35.0547724,1.240234375
35.1054201,1.2255859375
35.1057338,1.2158203125
35.1162613,1.201171875
35.1547434,1.19140625
35.1550543,1.1767578125
35.1990813,1.1767578125
35.1996177,1.1669921875
35.2193268,1.171875
35.2350677,1.162109375
35.2688297,1.162109375
35.290312,1.15234375
35.2982254,1.1572265625
35.3174766,1.1572265625
35.354748,1.1474609375
35.3598728,1.1474609375
35.3789657,1.1572265625
35.3994226,1.1669921875
35.4162627,1.19140625
35.4372906,1.2646484375
35.471745,1.318359375
35.4773044,1.3671875
35.4967409,1.396484375
35.5439851,1.4208984375
35.5442267,1.4306640625
35.5599108,1.435546875
35.573677,1.42578125
35.6091858,1.4111328125
35.6303945,1.3916015625
35.6385089,1.3623046875
35.6842559,1.337890625
35.6845914,1.3134765625
35.6996675,1.2939453125
35.7190981,1.2744140625
35.7604046,1.2548828125
35.7607469,1.240234375
35.7757032,1.23046875
35.8237144,1.2158203125
35.824185,1.2109375
35.8373368,1.1962890625
35.8853505,1.1865234375
35.8859687,1.1767578125
35.9000548,1.1669921875
35.9151617,1.1572265625
35.9631405,1.162109375
35.9635352,1.162109375
35.9772487,1.1572265625
35.9982932,1.15234375
36.0192863,1.1474609375
36.0399739,1.1474609375
36.0587667,1.142578125
36.1015374,1.15234375
36.1018007,1.1572265625
36.1152639,1.1865234375
36.1514423,1.23046875
36.179424,1.2841796875
36.1797628,1.3330078125
36.1976392,1.3818359375
36.243113,1.416015625
36.2435421,1.4404296875
36.2581107,1.455078125
36.2795135,1.455078125
36.3161199,1.4453125
36.3167176,1.42578125
36.3531093,1.40625
36.357565,1.3818359375
36.3769447,1.357421875
36.4300584,1.328125
36.430314,1.30859375
36.4472703,1.2841796875
36.4599146,1.26953125
36.4759412,1.25
36.5131906,1.2353515625
36.5151037,1.2255859375
36.5508153,1.2158203125
36.5711919,1.201171875
36.5780589,1.201171875
36.6155307,1.1962890625
36.6430752,1.1865234375
36.6434948,1.181640625
36.6559478,1.1767578125
36.6932384,1.1767578125
36.6988645,1.1767578125
36.720604,1.1767578125
36.7402433,1.171875
36.7592744,1.1669921875
36.7958368,1.162109375
36.7986813,1.1572265625
36.8314054,1.1669921875
36.8352506,1.201171875
36.8729115,1.2451171875
36.8926172,1.3037109375
36.8972331,1.3671875
36.9356094,1.40625
36.9383297,1.4501953125
36.9736905,1.474609375
37.0014974,1.494140625
37.0019099,1.494140625
37.0173691,1.4892578125
37.0651837,1.4697265625
37.0655167,1.4404296875
37.0779441,1.40625
37.1155672,1.3818359375
37.1180425,1.3525390625
37.157458,1.328125
37.1577633,1.3037109375
37.20445,1.2841796875
37.2047572,1.259765625
37.226111,1.2548828125
37.2382254,1.240234375
37.2752506,1.2255859375
37.2777896,1.2109375
37.3136409,1.1962890625
37.3339723,1.1865234375
37.3385982,1.171875
37.3908485,1.162109375
37.3913124,1.15234375
37.4098632,1.1474609375
37.4180584,1.1474609375
37.4540647,1.142578125
37.4600732,1.1328125
37.4804022,1.1376953125
37.5167505,1.1328125
37.5222061,1.1328125
37.5409964,1.1376953125
37.5585693,1.1474609375
37.5798258,1.1962890625
37.5990402,1.25
37.6362789,1.318359375
37.6393841,1.376953125
37.6837504,1.42578125
37.684166,1.455078125
37.729524,1.4794921875
37.7299326,1.4892578125
37.7513378,1.494140625
37.7596074,1.4794921875
37.7778721,1.455078125
37.8220973,1.42578125
37.8226023,1.3916015625
37.8689337,1.357421875
37.869342,1.3330078125
37.8805042,1.3037109375
37.9042189,1.2744140625
37.921659,1.23046875
37.9402104,1.2158203125
37.9777181,1.2060546875
37.9781252,1.19140625
38.0218106,1.1865234375
38.0221652,1.1767578125
38.0570053,1.1669921875
38.0596756,1.15234375
38.0965826,1.1474609375
38.0969916,1.1376953125
38.1192081,1.142578125
38.156197,1.1328125
38.1615579,1.1328125
38.1812329,1.1328125
38.2018342,1.1328125
38.2386857,1.1279296875
38.2410768,1.1279296875
38.2897427,1.1328125
38.2899967,1.142578125
38.2987228,1.181640625
38.3355234,1.23046875
38.3398433,1.298828125
38.376691,1.3525390625
38.3815348,1.40625
38.4176776,1.4404296875
38.4218064,1.4697265625
38.4385462,1.4794921875
38.4911521,1.484375
38.4914991,1.474609375
38.5004375,1.455078125
38.5389295,1.42578125
38.5392839,1.38671875
38.5842294,1.3525390625
38.5847793,1.318359375
38.6062916,1.2939453125
38.6183794,1.26953125
38.6633436,1.259765625
38.6636511,1.25
38.6812343,1.2353515625
38.7023286,1.220703125
38.7390027,1.2109375
38.7393588,1.1962890625
38.785974,1.1865234375
38.786316,1.1767578125
38.8169756,1.1669921875
38.8250412,1.1572265625
38.8398544,1.1474609375
38.859691,1.1474609375
38.909217,1.142578125
38.9094631,1.142578125
38.9306498,1.1376953125
38.9430255,1.1376953125
38.9645003,1.1328125
38.9826337,1.1328125
39.0005741,1.1279296875
39.0507336,1.1474609375
39.0511461,1.1767578125
39.0628668,1.2255859375
39.0803743,1.2744140625
39.1276497,1.328125
39.1279849,1.3671875
39.1479864,1.4111328125
39.1628617,1.435546875
39.1802427,1.4404296875
39.2229604,1.4453125
39.2233291,1.4306640625
39.2405783,1.4111328125
39.2770817,1.3818359375
39.2996986,1.3525390625
39.2999587,1.3232421875
39.3359746,1.2939453125
39.3560384,1.26953125
39.3582544,1.25
39.3907204,1.23046875
39.4114512,1.2158203125
39.4228279,1.2060546875
39.4667434,1.19140625
39.4671655,1.1865234375
39.4830438,1.171875
39.5042114,1.162109375
39.5236487,1.1474609375
39.546131,1.123046875
39.5623028,1.0986328125
39.5804306,1.1083984375
39.622234,1.11328125
39.6228496,1.123046875
39.6403342,1.123046875
39.675123,1.1279296875
39.6988794,1.1279296875
39.703992,1.1328125
39.7203914,1.1279296875
39.7413312,1.1474609375
39.761808,1.1669921875
39.8066593,1.220703125
39.8070847,1.2744140625
39.8209103,1.318359375
39.8702973,1.357421875
39.8705612,1.38671875
39.8895424,1.40625
39.8991256,1.416015625
39.9375979,1.4208984375
39.9418072,1.4111328125
39.9781403,1.3916015625
39.9810379,1.3623046875
40.0174864,1.3330078125
40.038396,1.298828125
40.0436892,1.2744140625
40.0606328,1.2548828125
40.0826499,1.240234375
40.1021777,1.23046875
40.1231965,1.2109375
40.1422112,1.201171875
40.1786524,1.1865234375
40.1829299,1.181640625
40.2195533,1.1767578125
40.2229953,1.1669921875
40.2382697,1.1572265625
40.2874978,1.1572265625
40.2877781,1.1572265625
40.3166781,1.1572265625
40.3216749,1.15234375
40.3623289,1.15234375
40.3627293,1.1474609375
40.3830868,1.142578125
40.404172,1.1376953125
40.4405582,1.123046875
40.4445567,1.1328125
40.4620635,1.142578125
40.4970953,1.1767578125
40.5027684,1.2158203125
40.5379465,1.259765625
40.542522,1.3037109375
40.5771114,1.34765625
40.5979089,1.376953125
40.6041334,1.396484375
40.6202568,1.4013671875
40.6542551,1.40625
40.6744876,1.396484375
40.6843184,1.3818359375
40.7190266,1.357421875
40.7239288,1.337890625
40.7701715,1.318359375
40.7705191,1.2939453125
40.785438,1.2744140625
40.7997264,1.2548828125
40.8472603,1.25
40.8476803,1.2353515625
40.8678597,1.2255859375
40.8843416,1.2158203125
40.9244058,1.2109375
40.9247996,1.1962890625
40.9705686,1.1865234375
40.9709511,1.1767578125
40.9895777,1.181640625
41.0017392,1.1767578125
41.0375448,1.171875
41.0669222,1.1669921875
41.0672289,1.1669921875
41.0833155,1.1669921875
41.1288176,1.1572265625
41.1292109,1.1572265625
41.1488153,1.1572265625
41.1627435,1.1572265625
41.1965833,1.1669921875
41.2013983,1.1865234375
41.2400431,1.220703125
41.2446892,1.26953125
41.283092,1.318359375
41.2834956,1.3623046875
41.3164789,1.4013671875
41.3364149,1.42578125
41.3407826,1.4404296875
41.3767823,1.4501953125
41.4077706,1.4501953125
41.4080184,1.4306640625
41.4252939,1.40625
41.4599148,1.376953125
41.4643067,1.3525390625
41.5007748,1.3232421875
41.5321828,1.298828125
41.5324252,1.2744140625
41.5407521,1.2646484375
41.5748344,1.25
41.5955092,1.240234375
41.6041761,1.220703125
41.6399749,1.2109375
41.660185,1.1962890625
41.6652102,1.1865234375
41.6810821,1.171875
41.7143774,1.1767578125
41.7374804,1.1767578125
41.7444068,1.171875
41.7961192,1.162109375
41.7965138,1.162109375
41.8054337,1.1572265625
41.8401316,1.15234375
41.8455181,1.1474609375
41.8609305,1.142578125
41.897001,1.1474609375
41.9013691,1.1474609375
41.9373576,1.15234375
41.9668686,1.1669921875
41.9671079,1.1962890625
41.9861747,1.2353515625
42.0223212,1.2841796875
42.0271419,1.337890625
42.0466551,1.3671875
42.0677593,1.376953125
42.0831565,1.3818359375
42.1175208,1.4111328125
42.1395633,1.416015625
42.1443629,1.4111328125
42.1801938,1.3916015625
42.1858339,1.3720703125
42.2224379,1.34765625
42.2254306,1.328125
42.2427058,1.3037109375
42.2772685,1.2890625
42.2967795,1.26953125
42.3058781,1.259765625
42.3411789,1.240234375
42.3456569,1.2353515625
42.3801524,1.220703125
42.400968,1.2060546875
42.40589,1.19140625
42.4242262,1.181640625
42.4636108,1.1767578125
42.4639608,1.1669921875
42.5004319,1.162109375
42.5050881,1.1572265625
42.5394137,1.1572265625
42.5599667,1.1474609375
42.566288,1.142578125
42.5818167,1.142578125
42.6188568,1.1474609375
42.623176,1.1474609375
42.6578096,1.15234375
42.6786585,1.1572265625
42.6844898,1.1669921875
42.7054887,1.19140625
42.7405786,1.2353515625
42.7614593,1.2939453125
42.7634395,1.3330078125
42.8003363,1.3818359375
42.8037552,1.40625
42.8405399,1.42578125
42.8447951,1.4306640625
42.8805634,1.42578125
42.8848337,1.4111328125
42.9300941,1.3916015625
42.9304898,1.3623046875
42.9505742,1.3330078125
42.9646409,1.3037109375
43.0009163,1.2890625
43.0034641,1.2744140625
43.0388296,1.2548828125
43.0598127,1.240234375
43.0659287,1.2255859375
43.1147194,1.2109375
43.1150901,1.201171875
43.1264202,1.1962890625
43.142827,1.181640625
43.1791891,1.181640625
43.2007771,1.171875
43.2048569,1.1669921875
43.2413521,1.162109375
43.2711259,1.162109375
43.2715091,1.1572265625
43.2875891,1.15234375
43.3227661,1.15234375
43.3498111,1.1474609375
43.3502657,1.15234375
43.3661272,1.15234375
43.4118299,1.1572265625
43.412298,1.1572265625
43.4274134,1.162109375
43.4738304,1.1669921875
43.4741242,1.1962890625
43.4844364,1.23046875
43.5196977,1.279296875
43.5244201,1.318359375
43.5600216,1.3525390625
43.5800383,1.3671875
43.5867802,1.3818359375
43.6312055,1.3818359375
43.6316587,1.3818359375
43.6482804,1.3671875
43.6639722,1.337890625
43.6981102,1.3232421875
43.7187519,1.3037109375
43.7271455,1.279296875
43.7691817,1.2646484375
43.7695166,1.2548828125
43.8158024,1.2451171875
43.8165216,1.2353515625
43.8274171,1.2255859375
43.8785924,1.2158203125
43.8789067,1.2060546875
43.9090026,1.2060546875
43.9094555,1.1962890625
43.9246609,1.19140625
43.9618432,1.19140625
43.9663269,1.181640625
44.0019467,1.1767578125
44.0329934,1.171875
44.0333666,1.171875
44.0451367,1.1669921875
44.0824454,1.1669921875
44.0877257,1.1669921875
44.125034,1.1669921875
44.1253316,1.1669921875
44.1629944,1.1669921875
44.1687749,1.1669921875
44.2034033,1.1767578125
44.2038858,1.19140625
44.2413672,1.23046875
44.2458162,1.2646484375
44.2824398,1.3134765625
44.3118867,1.34765625
44.3122619,1.3720703125
44.328164,1.38671875
44.3496538,1.3916015625
44.3687853,1.38671875
44.3853619,1.376953125
44.4361243,1.3623046875
44.4364843,1.34765625
44.4465439,1.328125
44.4813279,1.30859375
44.5018717,1.2890625
44.5073196,1.26953125
44.5445556,1.259765625
44.5491423,1.2451171875
44.569898,1.2158203125
44.6063146,1.1962890625
44.6066089,1.19140625
44.6290561,1.1962890625
44.6483815,1.1962890625
44.6847134,1.201171875
44.6869514,1.19140625
44.7301315,1.19140625
44.7308316,1.181640625
44.7513771,1.181640625
44.7650264,1.181640625
44.7999487,1.19140625
44.8236223,1.19140625
44.8289446,1.201171875
44.8710892,1.201171875
44.8714904,1.201171875
44.8889132,1.1962890625
44.9330303,1.201171875
44.9334824,1.2060546875
44.9641209,1.2109375
44.9645244,1.240234375
44.9997545,1.279296875
45.0195446,1.3232421875
45.0278041,1.357421875
45.0624544,1.38671875
45.0829062,1.40625
45.0900319,1.4208984375
45.1061601,1.4208984375
45.1263174,1.4208984375
45.1642537,1.4111328125
45.1853686,1.396484375
45.1858701,1.3720703125
45.2218255,1.34765625
45.2430871,1.3330078125
45.2501109,1.30859375
45.2854945,1.2890625
45.2859507,1.2744140625
45.3218515,1.26953125
45.3407116,1.259765625
45.3478484,1.25
45.3962257,1.240234375
45.3965654,1.2353515625
45.4110908,1.220703125
45.4298954,1.2158203125
45.4509632,1.2060546875
45.4857849,1.201171875
45.4860848,1.19140625
45.5209957,1.19140625
45.541292,1.1865234375
45.5470381,1.1865234375
45.5847238,1.1865234375
45.5893668,1.1767578125
45.6288394,1.1767578125
45.6292785,1.1767578125
45.662522,1.171875
45.6832381,1.171875
45.6879892,1.1767578125
45.7236502,1.19140625
45.7531565,1.220703125
45.7541617,1.2548828125
45.7700727,1.2939453125
45.8077995,1.328125
45.8101057,1.3623046875
45.8254417,1.3818359375
45.8598354,1.396484375
45.8810677,1.4111328125
45.8890732,1.4013671875
45.9232069,1.38671875
45.9275457,1.3671875
45.9609882,1.3427734375
45.9814306,1.318359375
45.9905346,1.3037109375
46.0063182,1.279296875
46.0404677,1.26953125
46.0621259,1.2548828125
46.0688082,1.25
46.1097871,1.2353515625
46.110089,1.2255859375
46.1304203,1.2158203125
46.1652765,1.2109375
46.1657193,1.201171875
46.1992016,1.201171875
46.220923,1.201171875
46.2279113,1.1669921875
46.2782225,1.171875
46.2785336,1.171875
46.2970076,1.171875
46.3113725,1.171875
46.3461142,1.171875
46.3503535,1.171875
46.3888391,1.171875
46.3893073,1.171875
46.4075502,1.171875
46.4499944,1.1767578125
46.4504435,1.19140625
46.4701983,1.2060546875
46.5070593,1.240234375
46.5116653,1.2841796875
46.5319865,1.318359375
46.5664925,1.34765625
46.5669335,1.3623046875
46.5906842,1.3818359375
46.6101263,1.38671875
46.6476877,1.3818359375
46.6499658,1.3720703125
46.6955519,1.3525390625
46.6959604,1.328125
46.7165566,1.30859375
46.7273777,1.2841796875
46.771098,1.2744140625
46.7721066,1.2646484375
46.7927744,1.2548828125
46.810239,1.240234375
46.8457277,1.2451171875
46.8520192,1.240234375
46.8966879,1.23046875
46.8971248,1.2255859375
46.9069793,1.220703125
46.9435696,1.2158203125
46.9495961,1.2158203125
46.9851265,1.2109375
46.989424,1.2109375
47.0236353,1.2060546875
47.0448064,1.201171875
47.0529052,1.1962890625
47.0710899,1.19140625
47.1154107,1.1669921875
47.1157069,1.171875
47.1289865,1.1767578125
47.1645769,1.1865234375
47.1698746,1.19140625
47.2217793,1.2060546875
47.2220908,1.2353515625
47.2313956,1.279296875
47.2660965,1.318359375
47.2865337,1.3623046875
47.289882,1.38671875
47.3295942,1.416015625
47.3300498,1.4306640625
47.3488403,1.4453125
47.3848506,1.435546875
47.4065944,1.42578125
47.4120734,1.4013671875
47.4481803,1.376953125
47.448603,1.34765625
47.4716055,1.3330078125
47.4909138,1.318359375
47.5255627,1.298828125
47.5306567,1.2890625
47.5786886,1.2744140625
47.5789837,1.259765625
47.6099756,1.2451171875
47.6104318,1.2353515625
47.6284555,1.220703125
47.6707314,1.2158203125
47.6711896,1.2109375
47.6906483,1.201171875
47.7324096,1.19140625
47.7328519,1.19140625
47.7529401,1.181640625
47.7886615,1.1767578125
47.7938857,1.1767578125
47.8098276,1.1669921875
47.844202,1.171875
47.8642623,1.171875
47.868666,1.1767578125
47.9026503,1.1767578125
47.9219633,1.181640625
47.930039,1.201171875
47.966346,1.240234375
47.9872168,1.279296875
47.9929233,1.328125
48.0111168,1.3671875
48.0461277,1.4013671875
48.0506436,1.42578125
48.0853485,1.4404296875
48.105982,1.4404296875
48.1110665,1.4404296875
48.1542112,1.4208984375
48.1546253,1.396484375
48.1743548,1.3671875
48.1921343,1.337890625
48.2267665,1.3232421875
48.232459,1.298828125
48.2802348,1.2841796875
48.2804815,1.26953125
48.2936147,1.2548828125
48.3291365,1.240234375
48.3343698,1.2255859375
48.3506027,1.2158203125
48.3852715,1.2109375
48.3900137,1.201171875
48.4247786,1.1962890625
48.4455681,1.19140625
48.4531699,1.181640625
48.4738484,1.1767578125
48.5085152,1.1669921875
48.5139852,1.1669921875
48.5310353,1.162109375
48.5729901,1.162109375
48.5734405,1.162109375
48.6059457,1.1669921875
48.6123737,1.162109375
48.6516016,1.162109375
48.6520038,1.1669921875
48.6902029,1.19140625
48.6906044,1.2255859375
48.7287009,1.2744140625
48.7307196,1.2890625
48.7661258,1.337890625
48.7853589,1.3671875
48.7921594,1.38671875
48.811926,1.396484375
48.8537979,1.396484375
48.8541188,1.38671875
48.8741715,1.3671875
48.9089408,1.34765625
48.9117592,1.328125
48.932513,1.3134765625
48.9801852,1.298828125
48.9805935,1.2841796875
48.9920337,1.26953125
49.0274097,1.259765625
49.0475998,1.2451171875
49.0534265,1.2353515625
49.0902822,1.23046875
49.0905245,1.220703125
49.1365061,1.2158203125
49.1368505,1.2109375
49.1548805,1.2060546875
49.1727947,1.1962890625
49.2143862,1.19140625
49.2147056,1.181640625
49.2484819,1.181640625
49.2680627,1.1767578125
49.2725535,1.181640625
49.30715,1.1767578125
49.3124409,1.181640625
49.3485834,1.1767578125
49.3537103,1.181640625
49.400301,1.1865234375
49.4005691,1.2158203125
49.4158632,1.2548828125
49.431734,1.2939453125
49.4532584,1.337890625
49.4880118,1.376953125
49.4924768,1.40625
49.5262478,1.416015625
49.5474206,1.42578125
49.5540204,1.4208984375
49.5909644,1.40625
49.5961824,1.3916015625
49.6154191,1.3427734375
49.6317394,1.328125
49.6524692,1.3134765625
49.6950686,1.298828125
49.6954606,1.2841796875
49.7144983,1.279296875
49.7482178,1.259765625
49.7679732,1.25
49.7760164,1.2353515625
49.8125579,1.2255859375
49.8133169,1.2060546875
49.8324771,1.2060546875
49.867341,1.1962890625
49.8893936,1.1962890625
49.8946894,1.1865234375
49.9164803,1.1865234375
49.9507324,1.181640625
49.9547309,1.181640625
49.9712447,1.171875
50.00586,1.1767578125
50.0279915,1.171875
50.0341253,1.1767578125
50.0695751,1.1767578125
50.0734751,1.1767578125
50.1067161,1.1865234375
50.1284095,1.2109375
50.1361399,1.2548828125
50.152219,1.298828125
50.173724,1.357421875
50.1938899,1.396484375
50.2403455,1.4306640625
50.2406726,1.455078125
50.2555645,1.46484375
50.2997411,1.4697265625
50.3001088,1.46484375
50.3124057,1.4404296875
50.3480072,1.4208984375
50.3520855,1.40625
50.3857483,1.376953125
50.410442,1.357421875
50.4159185,1.3330078125
50.4351408,1.318359375
50.4723741,1.298828125
50.4727119,1.2841796875
50.5189037,1.2646484375
50.5192345,1.25
50.5406602,1.23046875
50.5537001,1.2255859375
50.5876547,1.2109375
50.6097284,1.2060546875
50.6146863,1.1962890625
50.6349403,1.1865234375
50.672276,1.1767578125
50.6741953,1.1767578125
50.7072329,1.171875
50.7287606,1.1572265625
50.7342685,1.1572265625
50.7826162,1.1572265625
50.7832091,1.1572265625
50.7942415,1.1572265625
50.8292765,1.1767578125
50.8489318,1.2060546875
50.8548087,1.2548828125
50.8914613,1.3037109375
50.8932326,1.3671875
50.9284148,1.4111328125
50.9537344,1.4599609375
50.953979,1.484375
50.9996877,1.4990234375
50.9999536,1.50390625
51.0214904,1.494140625
51.0372972,1.4697265625
51.0528697,1.4404296875
51.0934588,1.416015625
51.0937007,1.38671875
51.1224699,1.3623046875
51.1373643,1.337890625
51.157342,1.3134765625
51.1935668,1.2890625
51.1939755,1.2744140625
51.2292307,1.25
51.2354898,1.2158203125
51.270868,1.181640625
51.275661,1.181640625
51.3249033,1.171875
51.3251454,1.1767578125
51.3354506,1.171875
51.3704425,1.1572265625
51.3905502,1.15234375
51.398499,1.1474609375
51.4343285,1.142578125
51.4347269,1.1376953125
51.470581,1.142578125
51.4748289,1.1376953125
51.5095146,1.142578125
51.532141,1.142578125
51.5370114,1.15234375
51.5749507,1.171875
51.5752645,1.2158203125
51.6204321,1.2646484375
51.6207102,1.3134765625
51.6348193,1.3671875
51.6705093,1.396484375
51.6912164,1.4208984375
51.6953836,1.4306640625
51.7302613,1.435546875
51.7519318,1.4208984375
51.7577163,1.40625
51.7740152,1.376953125
51.8214851,1.357421875
51.8219026,1.328125
51.8356387,1.3134765625
51.8830312,1.2890625
51.8834263,1.26953125
51.8974639,1.25
51.9442335,1.2353515625
51.9446259,1.2158203125
51.9550126,1.2158203125
51.9904282,1.2060546875
51.9950142,1.1962890625
52.0378863,1.1865234375
52.0382851,1.181640625
52.0595375,1.171875
52.0781884,1.1669921875
52.1171721,1.162109375
52.1175901,1.1572265625
52.1510651,1.15234375
52.1714157,1.1474609375
52.1739397,1.1474609375
52.2097509,1.142578125
52.2300912,1.1474609375
52.2349378,1.15234375
52.2679181,1.1669921875
52.2901092,1.201171875
52.299495,1.240234375
52.3354017,1.2890625
52.3357541,1.3330078125
52.3815169,1.376953125
52.3818604,1.40625
52.3969217,1.4306640625
52.4319326,1.435546875
52.4523534,1.4404296875
52.4566308,1.42578125
52.4904427,1.4111328125
52.512075,1.3818359375
52.5166573,1.3623046875
52.5547496,1.337890625
52.5551396,1.318359375
52.5911996,1.2939453125
52.6149531,1.2841796875
52.6175824,1.2646484375
52.6604537,1.2451171875
52.6607003,1.23046875
52.6825187,1.2158203125
52.6965589,1.2109375
52.7168236,1.201171875
52.751694,1.19140625
52.7565237,1.181640625
52.8020269,1.171875
52.8024219,1.1669921875
52.8169573,1.162109375
52.8347096,1.15234375
52.8799242,1.1572265625
52.8805015,1.15234375
52.8954348,1.1474609375
52.9317261,1.15234375
52.9370208,1.15234375
52.9742966,1.162109375
52.9784491,1.19140625
53.013525,1.240234375
53.0186913,1.2939453125
53.0549813,1.3525390625
53.0807417,1.3916015625
53.0813817,1.4453125
53.0965215,1.4697265625
53.1321394,1.4892578125
53.1593017,1.4892578125
53.1596829,1.484375
53.1780279,1.4599609375
53.2128148,1.4306640625
53.2339213,1.4013671875
53.2370736,1.376953125
53.2732206,1.3525390625
53.2754235,1.328125
53.3102924,1.30859375
53.3301381,1.2890625
53.3373397,1.26953125
53.3746521,1.25
53.3792169,1.2353515625
53.3950624,1.220703125
53.4314951,1.2109375
53.4355822,1.1962890625
53.473022,1.181640625
53.4780045,1.171875
53.512677,1.1669921875
53.5173026,1.162109375
53.5532968,1.15234375
53.5731977,1.15234375
53.5759211,1.1474609375
53.5959208,1.142578125
53.6306479,1.142578125
53.651232,1.142578125
53.6567452,1.142578125
53.693074,1.15234375
53.7250602,1.1767578125
53.7254581,1.2255859375
53.7412926,1.2744140625
53.7609329,1.318359375
53.7759573,1.34765625
53.8170527,1.4111328125
53.847482,1.4501953125
53.8477968,1.4794921875
53.8594213,1.484375
53.8799323,1.4892578125
53.8978949,1.4697265625
53.9330064,1.4404296875
53.9530164,1.40625
53.9552008,1.376953125
53.9906536,1.34765625
54.0119516,1.3232421875
54.0191719,1.3037109375
54.055882,1.2841796875
54.061119,1.2646484375
54.0960253,1.2451171875
54.1008317,1.2255859375
54.1151203,1.2109375
54.1566595,1.1962890625
54.1864755,1.1865234375
54.1869401,1.171875
54.1993439,1.1669921875
54.2479309,1.15234375
54.2483639,1.142578125
54.2586383,1.1328125
54.2941329,1.1328125
54.3264028,1.123046875
54.3267042,1.123046875
54.3379848,1.123046875
54.3864571,1.1279296875
54.3868207,1.123046875
54.4004702,1.1279296875
54.4192955,1.1328125
54.4640443,1.162109375
54.4642948,1.201171875
54.477795,1.259765625
54.5137593,1.3037109375
54.5184753,1.357421875
54.5594505,1.3916015625
54.5598438,1.416015625
54.6078222,1.42578125
54.6081691,1.4306640625
54.6218939,1.4208984375
54.6415517,1.396484375
54.6844627,1.3720703125
54.6848697,1.3427734375
54.697153,1.318359375
54.734964,1.2939453125
54.7629923,1.2744140625
54.7633911,1.2548828125
54.7807169,1.240234375
54.8151807,1.220703125
54.8201943,1.2060546875
54.8551248,1.201171875
54.8753518,1.181640625
54.8776537,1.1767578125
54.9123051,1.1669921875
54.9325945,1.162109375
54.9393595,1.15234375
54.9743938,1.1474609375
54.9948947,1.1376953125
55.0014379,1.1376953125
55.0167725,1.1328125
55.0521147,1.142578125
55.071601,1.142578125
55.0778398,1.1474609375
55.1207799,1.142578125
55.1211578,1.142578125
55.1517209,1.142578125
55.1612341,1.162109375
55.1960793,1.1865234375
55.2165456,1.2255859375
55.219185,1.279296875
55.2581319,1.328125
55.2584811,1.3720703125
55.3046084,1.4013671875
55.3049075,1.42578125
55.325993,1.4404296875
55.3412879,1.4404296875
55.357234,1.42578125
55.393874,1.4111328125
55.3983976,1.3623046875
55.444051,1.34765625
55.4445258,1.328125
55.4584467,1.30859375
55.50528,1.2939453125
55.5055752,1.2744140625
55.5264733,1.259765625
55.5403287,1.240234375
55.5764493,1.23046875
55.5975423,1.2158203125
55.6007308,1.2109375
55.6352625,1.201171875
55.6398995,1.1962890625
55.6762902,1.1865234375
55.6792466,1.1767578125
55.7236637,1.171875
55.7241129,1.1669921875
55.7544371,1.1572265625
55.7590673,1.1572265625
55.795705,1.15234375
55.8005019,1.1572265625
55.8350974,1.1572265625
55.8394588,1.1474609375
55.8741632,1.15234375
55.8958843,1.1474609375
55.9009721,1.1474609375
55.93517,1.1572265625
55.9425598,1.1962890625
55.9592157,1.240234375
55.9951274,1.2939453125
56.0001377,1.337890625
56.0489773,1.3818359375
56.0494309,1.40625
56.06335,1.435546875
56.0800502,1.4453125
56.1256678,1.455078125
56.1259781,1.4453125
56.1399617,1.42578125
56.1772821,1.4013671875
56.1791621,1.3720703125
56.2157425,1.34765625
56.2356735,1.318359375
56.2446423,1.2939453125
56.2633483,1.2744140625
56.299604,1.2548828125
56.3000638,1.2353515625
56.3264792,1.2255859375
56.3396166,1.2158203125
56.3736684,1.2060546875
56.3932274,1.19140625
56.4018113,1.181640625
56.4511917,1.171875
56.451596,1.1669921875
56.4628598,1.1572265625
56.4793891,1.15234375
56.5153593,1.15234375
56.5429005,1.15234375
56.5432917,1.15234375
56.5918,1.1474609375
56.592123,1.15234375
56.6036637,1.15234375
56.6370614,1.1474609375
56.6414902,1.1474609375
56.6603771,1.1572265625
56.7004796,1.1669921875
56.70094,1.1962890625
56.7479148,1.2353515625
56.7482824,1.2841796875
56.7640414,1.328125
56.8092632,1.3623046875
56.8095602,1.3916015625
56.819705,1.40625
56.8717517,1.416015625
56.8720878,1.416015625
56.8823517,1.4013671875
56.9036845,1.3818359375
56.9493716,1.3525390625
56.9502337,1.3232421875
56.9649073,1.298828125
56.9796012,1.2744140625
57.0218137,1.259765625
57.0221077,1.2451171875
57.0410117,1.2353515625
57.0789303,1.220703125
57.081947,1.220703125
57.1324191,1.2109375
57.1328843,1.201171875
57.1425309,1.1962890625
57.1775726,1.19140625
57.1975264,1.181640625
57.2010934,1.171875
57.2375463,1.171875
57.2420804,1.1669921875
57.2766631,1.1669921875
57.2971772,1.162109375
57.3027805,1.162109375
57.3354271,1.162109375
57.3561326,1.1572265625
57.3616906,1.15234375
57.3805305,1.162109375
57.4155672,1.1669921875
57.4370627,1.162109375
57.4421779,1.1767578125
57.4628295,1.201171875
57.4998559,1.2353515625
57.5022817,1.2744140625
57.5524328,1.3134765625
57.55287,1.34765625
57.5621651,1.376953125
57.5813305,1.3916015625
57.6165569,1.4013671875
57.6384726,1.396484375
57.6425801,1.38671875
57.6774193,1.3623046875
57.6823257,1.3427734375
57.700799,1.318359375
57.73613,1.3037109375
57.756392,1.2890625
57.760796,1.2744140625
57.7951656,1.2646484375
57.8155276,1.25
57.8221711,1.2353515625
57.8576858,1.220703125
57.8792044,1.2158203125
57.8795975,1.201171875
57.9154316,1.201171875
57.9362274,1.1669921875
57.9416346,1.171875
57.9780998,1.171875
57.9837199,1.171875
58.018813,1.171875
58.0240304,1.171875
58.0597696,1.1669921875
58.0808907,1.162109375
58.0843123,1.162109375
58.1033888,1.162109375
58.138551,1.1669921875
58.1439623,1.1669921875
58.1798898,1.171875
58.1821024,1.1767578125
58.2195169,1.1962890625
58.2250543,1.2255859375
58.2588083,1.26953125
58.2792932,1.30859375
58.2819431,1.3525390625
58.3237716,1.3818359375
58.3240295,1.40625
58.3578815,1.4208984375
58.3786765,1.42578125
58.3843829,1.4208984375
58.4213855,1.396484375
58.4396004,1.376953125
58.440041,1.34765625
58.4764139,1.328125
58.4982818,1.30859375
58.5027385,1.298828125
58.5414045,1.279296875
58.541847,1.2646484375
58.5869938,1.25
58.5872908,1.240234375
58.6083821,1.2255859375
58.622854,1.220703125
58.663963,1.2109375
58.6642586,1.2060546875
58.6978858,1.201171875
58.7020712,1.1865234375
58.738648,1.181640625
58.7597568,1.171875
58.7667607,1.171875
58.7855057,1.162109375
58.8206706,1.162109375
58.8400167,1.15234375
58.8423833,1.1572265625
58.8801508,1.1572265625
58.8825171,1.1572265625
58.9185022,1.1572265625
58.9440066,1.15234375
58.9444897,1.1572265625
58.9784364,1.171875
58.9988725,1.201171875
59.0013335,1.2548828125
59.0352615,1.3037109375
59.0559949,1.3427734375
59.0640094,1.376953125
59.098467,1.396484375
59.1186514,1.416015625
59.1265706,1.416015625
59.1474108,1.4208984375
59.1631779,1.40625
59.1974524,1.38671875
59.2177559,1.3671875
59.2222942,1.34765625
59.2568634,1.3232421875
59.2855669,1.30859375
59.2858664,1.2841796875
59.3346585,1.2744140625
59.3349715,1.259765625
59.3642913,1.240234375
59.3645842,1.23046875
59.3990181,1.220703125
59.4047548,1.2158203125
59.441711,1.201171875
59.4461985,1.1962890625
59.4662113,1.1865234375
59.4857992,1.181640625
59.5030011,1.171875
59.5506775,1.171875
59.5510643,1.1669921875
59.5722725,1.1669921875
59.5854451,1.162109375
59.6203231,1.162109375
59.6256158,1.1572265625
59.6628523,1.162109375
59.6659566,1.1572265625
59.7005278,1.1572265625
59.7219724,1.162109375
59.7224248,1.171875
59.74418,1.201171875
59.779722,1.2353515625
59.80003,1.2841796875
59.8049008,1.318359375
59.8478383,1.34765625
59.8482122,1.3671875
59.8681197,1.376953125
59.8819584,1.3818359375
59.9173249,1.3818359375
59.9380377,1.3671875
59.9446671,1.34765625
59.9895845,1.3330078125
59.9904909,1.30859375
60.0093626,1.2890625
60.0274843,1.26953125
60.062266,1.259765625
60.0627076,1.240234375
60.0985525,1.2353515625
60.1194464,1.2255859375
60.1252256,1.220703125
60.1627613,1.2109375
60.1677932,1.2060546875
60.1861581,1.1962890625
60.2370618,1.19140625
60.2375101,1.1865234375
60.2444777,1.1865234375
60.2822018,1.181640625
60.2827114,1.181640625
60.3319881,1.181640625
60.3323061,1.1767578125
60.3507228,1.171875
60.366321,1.171875
60.4008793,1.171875
60.4209695,1.1669921875
60.4268676,1.1474609375
60.4449063,1.1279296875
60.489552,1.1474609375
60.4900032,1.162109375
60.5057223,1.1865234375
60.5396587,1.2255859375
60.5602819,1.2744140625
60.5666247,1.3134765625
60.6027521,1.3525390625
60.6300013,1.3818359375
60.6303725,1.396484375
60.646515,1.4111328125
60.6922337,1.4111328125
60.6925277,1.40625
60.7057153,1.38671875
60.7409103,1.3671875
60.7616196,1.3427734375
60.7693315,1.318359375
60.7858221,1.298828125
60.8305525,1.2890625
60.8309832,1.2744140625
60.8466505,1.2646484375
60.8948952,1.25
60.8952216,1.240234375
60.9079945,1.23046875
60.9283215,1.2158203125
60.9631289,1.2109375
60.9636232,1.201171875
61.0015071,1.201171875
61.0221788,1.19140625
61.0239761,1.19140625
61.0586362,1.181640625
61.0793976,1.181640625
61.0878884,1.171875
61.1212762,1.162109375
61.1422378,1.162109375
61.1455977,1.1669921875
61.182222,1.1669921875
61.1842895,1.181640625
61.23441,1.181640625
61.2348873,1.1865234375
61.2470693,1.19140625
61.2823278,1.201171875
61.3019052,1.23046875
61.3068118,1.259765625
61.3582914,1.30859375
61.3589032,1.3427734375
61.3871825,1.38671875
61.3876229,1.40625
61.4343119,1.42578125
61.4348043,1.4306640625
61.4475453,1.435546875
61.4958369,1.4208984375
61.4962029,1.40625
61.5059473,1.3818359375
61.5416506,1.3623046875
61.5462123,1.337890625
61.5903733,1.3232421875
61.5906849,1.30859375
61.6081985,1.2890625
61.6511509,1.2744140625
61.6515811,1.259765625
61.6684853,1.25
61.6860014,1.23046875
61.731575,1.23046875
61.7320163,1.2255859375
61.7483222,1.2158203125
61.7681111,1.2060546875
61.789118,1.1962890625
61.8246718,1.1865234375
61.8294812,1.181640625
61.8456409,1.171875
61.8864543,1.171875
61.8869138,1.171875
61.9246493,1.1669921875
61.9268917,1.162109375
61.9718676,1.162109375
61.9723327,1.1669921875
61.9888911,1.162109375
62.0234627,1.1669921875
62.0445099,1.1669921875
62.0448059,1.1865234375
62.0805107,1.2109375
62.1037911,1.25
62.1083931,1.2841796875
62.1447963,1.3232421875
62.1473141,1.34765625
62.1820205,1.3720703125
62.2034761,1.376953125
62.2110541,1.3916015625
62.2477677,1.3916015625
62.2482227,1.376953125
62.2667065,1.3623046875
62.3038964,1.3427734375
62.3079232,1.318359375
62.3458041,1.3037109375
62.3505599,1.2841796875
62.3701009,1.26953125
62.4044952,1.2548828125
62.4076818,1.240234375
62.4265109,1.23046875
62.4752946,1.220703125
62.4755922,1.220703125
62.5062825,1.2109375
62.50667,1.2060546875
62.5435013,1.201171875
62.5643718,1.19140625
62.5692901,1.181640625
62.613609,1.171875
62.6140562,1.1767578125
62.6276011,1.1767578125
62.6638711,1.1767578125
62.6679546,1.1767578125
62.7073809,1.1767578125
62.7275491,1.171875
62.729516,1.171875
62.7465543,1.1669921875
62.7810245,1.171875
62.7856627,1.1767578125
62.8199309,1.1865234375
62.8402685,1.2060546875
62.8508247,1.2451171875
62.8694998,1.2890625
62.9075058,1.318359375
62.9079902,1.3525390625
62.9438726,1.3720703125
62.951449,1.376953125
62.96731,1.38671875
63.0036118,1.4013671875
63.0250047,1.396484375
63.029512,1.3818359375
63.0644104,1.3623046875
63.070253,1.337890625
63.1051457,1.318359375
63.1090985,1.298828125
63.1440878,1.279296875
63.1463907,1.26953125
63.1917598,1.259765625
63.1921611,1.25
63.221778,1.240234375
63.2286018,1.23046875
63.2699736,1.23046875
63.3004271,1.2255859375
63.3007235,1.220703125
63.3079729,1.2109375
63.3449544,1.2060546875
63.3479466,1.201171875
63.3936886,1.2060546875
63.3941203,1.201171875
63.4134036,1.1962890625
63.4474523,1.19140625
63.4499482,1.1865234375
63.4664427,1.1767578125
63.5021217,1.1865234375
63.5234833,1.19140625
63.5288749,1.1865234375
63.5645096,1.1865234375
63.5843248,1.1865234375
63.5892636,1.201171875
63.6419526,1.2255859375
63.6421942,1.2646484375
63.6473786,1.3037109375
63.683846,1.3525390625
63.6898673,1.3818359375
63.724623,1.4111328125
63.7301977,1.4208984375
63.7688096,1.435546875
63.7691281,1.4306640625
63.8137508,1.416015625
63.8141903,1.4013671875
63.8433671,1.376953125
63.8516832,1.34765625
63.8679547,1.3232421875
63.9028874,1.30859375
63.923125,1.2939453125
63.9281273,1.279296875
63.9660122,1.2646484375
63.9846583,1.25
63.9932652,1.2353515625
64.0112137,1.2255859375
64.0290043,1.2158203125
64.07628,1.2109375
64.076549,1.201171875
64.0910451,1.1962890625
64.1383516,1.1865234375
64.1385955,1.1865234375
64.1512961,1.181640625
64.2005914,1.171875
64.2008967,1.1669921875
64.2072575,1.162109375
64.2482193,1.162109375
64.2783943,1.1669921875
64.2787499,1.1669921875
64.2907247,1.1669921875
64.325304,1.1669921875
64.3305254,1.1669921875
64.3673713,1.171875
64.3677423,1.1865234375
64.4048764,1.23046875
64.4333107,1.2744140625
64.4336809,1.3232421875
64.4679097,1.3671875
64.4708538,1.396484375
64.5048242,1.4208984375
64.5250851,1.4306640625
64.53188,1.4404296875
64.5482226,1.4306640625
64.5833208,1.42578125
64.6037871,1.376953125
64.6078816,1.3623046875
64.6441379,1.337890625
64.6658921,1.3232421875
64.6732398,1.298828125
64.6919265,1.279296875
64.7417016,1.259765625
64.742111,1.2451171875
64.7486045,1.2255859375
64.7861246,1.2255859375
64.7879479,1.220703125
64.8241508,1.2060546875
64.8454919,1.201171875
64.8503474,1.19140625
64.8964168,1.1865234375
64.8968172,1.1767578125
64.9172053,1.171875
64.9314568,1.162109375
64.95085,1.162109375
64.9907695,1.162109375
64.991071,1.162109375
65.0385987,1.1572265625
65.0396108,1.162109375
65.0571997,1.1572265625
65.0711343,1.1572265625
65.104496,1.162109375
65.1252334,1.1572265625
65.1305917,1.171875
65.166709,1.1962890625
65.1714722,1.2353515625
65.210177,1.2744140625
65.2118351,1.318359375
65.2484446,1.34765625
65.2537561,1.376953125
65.2687203,1.396484375
65.3189432,1.416015625
65.3192833,1.4208984375
65.3298482,1.416015625
65.366004,1.4013671875
65.3865674,1.376953125
65.3916077,1.3525390625
65.4304276,1.3330078125
65.4306749,1.318359375
65.4696235,1.2939453125
65.4750447,1.279296875
65.4905414,1.259765625
65.5400399,1.25
65.5403941,1.240234375
65.553228,1.2353515625
65.6010416,1.2255859375
65.6012931,1.2158203125
65.6142185,1.2060546875
65.6338968,1.201171875
65.6505556,1.1865234375
65.6711673,1.19140625
65.6904693,1.181640625
65.7392655,1.1767578125
65.7398513,1.181640625
65.7521028,1.1767578125
65.8036299,1.171875
65.8038827,1.1669921875
65.8163852,1.171875
65.8301546,1.171875
65.8794039,1.171875
65.8797598,1.1767578125
65.891864,1.1865234375
65.9279243,1.2060546875
65.9330808,1.25
65.9691488,1.2890625
65.9718027,1.3330078125
65.9894607,1.3671875
66.0253306,1.4013671875
66.0498584,1.4208984375
66.0506218,1.4404296875
66.0835164,1.4501953125
66.1043166,1.435546875
66.1140366,1.4208984375
66.1568089,1.396484375
66.1571282,1.3671875
66.1713319,1.3427734375
66.2199829,1.3232421875
66.2203033,1.3037109375
66.2301836,1.2890625
66.2644348,1.26953125
66.2848855,1.2548828125
66.2919525,1.240234375
66.3262408,1.2353515625
66.3474859,1.2255859375
66.3552082,1.2158203125
66.3890893,1.2060546875
66.4093017,1.19140625
66.4125733,1.1865234375
66.4324879,1.181640625
66.4684183,1.181640625
66.4986845,1.171875
66.4990769,1.171875
66.516115,1.162109375
66.5517793,1.1572265625
66.5521745,1.15234375
66.5886054,1.162109375
66.5909573,1.1572265625
66.6405057,1.162109375
66.6409002,1.1572265625
66.6593884,1.162109375
66.6755373,1.171875
66.7113527,1.2158203125
66.7155463,1.2646484375
66.7320772,1.30859375
66.7787809,1.357421875
66.7791738,1.396484375
66.7987229,1.4306640625
66.8130524,1.455078125
66.8585761,1.4697265625
66.8589682,1.4697265625
66.8761379,1.46484375
66.8914388,1.4404296875
66.9268387,1.416015625
66.9313561,1.3916015625
66.9661959,1.3720703125
66.9871904,1.34765625
66.9927139,1.328125
67.0285361,1.30859375
67.0494419,1.2890625
67.0547257,1.26953125
67.0744814,1.2548828125
67.0962855,1.220703125
67.1120491,1.19140625
67.1473389,1.1962890625
67.1531519,1.1962890625
67.1745942,1.19140625
67.2167937,1.181640625
67.2171967,1.181640625
67.235688,1.171875
67.278135,1.171875
67.2785416,1.162109375
67.2931129,1.162109375
67.3283834,1.162109375
67.3481542,1.171875
67.3527089,1.171875
67.3884277,1.11328125
67.4108408,1.0986328125
67.414754,1.0888671875
67.4645015,1.0888671875
67.4648032,1.0986328125
67.4726665,1.142578125
67.5116717,1.19140625
67.5137983,1.2451171875
67.5497255,1.2841796875
67.5543086,1.328125
67.5906458,1.357421875
67.595548,1.38671875
67.6129169,1.396484375
67.653289,1.4013671875
67.6538633,1.3916015625
67.6872525,1.3720703125
67.7081033,1.34765625
67.7148541,1.3232421875
67.7499864,1.30859375
67.7798074,1.279296875
67.7802817,1.259765625
67.7917367,1.240234375
67.8333484,1.23046875
67.8513957,1.2158203125
67.8517176,1.2109375
67.8999631,1.1962890625
67.9004019,1.1865234375
67.9222368,1.1767578125
67.9354067,1.171875
67.9583356,1.1572265625
67.977786,1.1376953125
68.0237829,1.1376953125
68.0240866,1.1328125
68.0344943,1.1328125
68.0525453,1.1328125
68.0885734,1.1328125
68.1095197,1.1328125
68.1148106,1.1328125
68.1505935,1.1328125
68.1807565,1.1376953125
68.1811108,1.1328125
68.193119,1.1376953125
68.2436885,1.1474609375
68.2440608,1.171875
68.272832,1.1962890625
68.2773087,1.2353515625
68.3123679,1.2841796875
68.3155171,1.3232421875
68.3666566,1.3525390625
68.3669776,1.3720703125
68.3743017,1.4013671875
68.3937261,1.4111328125
68.4300665,1.40625
68.4342515,1.396484375
68.4742381,1.376953125
68.4748351,1.3525390625
68.510502,1.328125
68.538492,1.3037109375
68.5388648,1.2841796875
68.552094,1.26953125
68.5994966,1.2548828125
68.5998051,1.240234375
68.6290342,1.2353515625
68.6346654,1.2255859375
68.6771263,1.2109375
68.6774221,1.201171875
68.6970412,1.19140625
68.7151811,1.1865234375
68.755187,1.181640625
68.7554804,1.181640625
68.7916967,1.1767578125
68.7941199,1.1767578125
68.8305043,1.171875
68.8638351,1.1669921875
68.8642894,1.162109375
68.8779097,1.162109375
68.8943412,1.1572265625
68.931233,1.1572265625
68.934457,1.162109375
68.9555395,1.162109375
68.9911211,1.1669921875
69.0163686,1.171875
69.016906,1.19140625
69.0636129,1.220703125
69.0640664,1.26953125
69.0935859,1.30859375
69.0943082,1.357421875
69.1407383,1.3916015625
69.1411187,1.42578125
69.1558259,1.4404296875
69.1778278,1.455078125
69.2132756,1.4501953125
69.2175517,1.4404296875
69.2343399,1.416015625
69.2682348,1.396484375
69.2894594,1.3720703125
69.2961152,1.3525390625
69.3308384,1.328125
69.3510802,1.30859375
69.3552906,1.2890625
69.39251,1.279296875
69.4128903,1.26953125
69.4134504,1.259765625
69.4620748,1.2548828125
69.462461,1.2451171875
69.4761473,1.2353515625
69.4963475,1.2255859375
69.5386984,1.2158203125
69.539013,1.2060546875
69.559076,1.1962890625
69.5788619,1.19140625
69.5981406,1.181640625
69.6182444,1.15234375
69.6357332,1.1328125
69.6537576,1.15234375
69.6940434,1.1572265625
69.7250707,1.1669921875
69.7253609,1.162109375
69.7400736,1.1669921875
69.7883651,1.162109375
69.7887693,1.171875
69.7955752,1.1767578125
69.8321201,1.2109375
69.8360753,1.2548828125
69.8780745,1.3037109375
69.8783802,1.3525390625
69.9134517,1.40625
69.9174945,1.4501953125
69.9559417,1.4697265625
69.9852003,1.484375
69.9856012,1.4892578125
69.9951079,1.484375
70.0324163,1.46484375
70.0371833,1.4453125
70.0728184,1.416015625
70.0771053,1.38671875
70.114222,1.357421875
70.1216129,1.3330078125
70.1348503,1.30859375
70.1692289,1.298828125
70.1901303,1.279296875
70.1982369,1.2646484375
70.2348875,1.25
70.2352427,1.23046875
70.2704769,1.2158203125
70.2903541,1.201171875
70.2986714,1.19140625
70.3151154,1.1767578125
70.351852,1.1767578125
70.3545067,1.1669921875
70.4035201,1.1572265625
70.4039716,1.15234375
70.42309,1.1474609375
70.4388273,1.1474609375
70.4809958,1.142578125
70.4813646,1.1376953125
70.5161161,1.1376953125
70.5165731,1.1328125
70.5518015,1.1376953125
70.558003,1.142578125
70.5784305,1.1474609375
70.6218447,1.162109375
70.6221545,1.1865234375
70.6394106,1.23046875
70.6810032,1.2744140625
70.6813001,1.3232421875
70.6969122,1.3623046875
70.7321353,1.396484375
70.7364863,1.416015625
70.7767401,1.4306640625
70.8054037,1.42578125
70.8060344,1.42578125
70.8199437,1.40625
70.8548004,1.3818359375
70.8594139,1.357421875
70.8757956,1.328125
70.9107068,1.3134765625
70.9329288,1.2939453125
70.9373781,1.2744140625
70.9728952,1.2548828125
70.9941128,1.240234375
70.9986203,1.2255859375
71.0390849,1.2109375
71.0394364,1.1962890625
71.0552482,1.19140625
71.0924289,1.181640625
71.1135958,1.1767578125
71.1184956,1.1669921875
71.138638,1.162109375
71.1805407,1.15234375
71.1809186,1.15234375
71.200497,1.15234375
71.217427,1.142578125
71.2586909,1.1474609375
71.2590753,1.1474609375
71.2789079,1.1474609375
71.3196434,1.142578125
71.3200853,1.1474609375
71.3543373,1.1474609375
71.3592378,1.15234375
71.3949859,1.162109375
71.4006053,1.19140625
71.4170376,1.2353515625
71.4519916,1.2939453125
71.4715329,1.337890625
71.4777518,1.376953125
71.521469,1.4111328125
71.5217149,1.42578125
71.5523263,1.435546875
71.5587324,1.4306640625
71.5929776,1.4208984375
71.6134158,1.396484375
71.6177491,1.376953125
71.6621,1.3525390625
71.6624193,1.3330078125
71.6795797,1.30859375
71.7145238,1.2939453125
71.719912,1.2744140625
71.7556162,1.2646484375
71.7560093,1.2451171875
71.77653,1.2353515625
71.8173436,1.2255859375
71.8482793,1.220703125
71.8487275,1.2158203125
71.8575766,1.201171875
71.8925877,1.1962890625
71.9243018,1.1865234375
71.924754,1.1767578125
71.9374463,1.171875
71.9734201,1.171875
71.9794702,1.171875
71.9987827,1.171875
72.0334223,1.1669921875
72.0533717,1.1669921875
72.0599018,1.162109375
72.1110116,1.1572265625
72.1115049,1.15234375
72.1218827,1.1328125
72.1585774,1.1279296875
72.1588755,1.15234375
72.1945162,1.2060546875
72.1983507,1.259765625
72.2343648,1.318359375
72.2394142,1.3623046875
72.2753992,1.4111328125
72.2974109,1.435546875
72.2996324,1.4599609375
72.3349692,1.46484375
72.3372198,1.4697265625
72.3769289,1.455078125
72.3773828,1.435546875
72.4138852,1.40625
72.4342696,1.376953125
72.4408627,1.3525390625
72.4864455,1.3330078125
72.4867083,1.318359375
72.5073177,1.298828125
72.5204707,1.2890625
72.5570554,1.2744140625
72.5573854,1.259765625
72.5958095,1.2451171875
72.6265849,1.2353515625
72.6268246,1.220703125
72.6419038,1.2060546875
72.6584421,1.19140625
72.7042638,1.1865234375
72.7047191,1.1767578125
72.7183447,1.1767578125
72.7508778,1.1669921875
72.7718748,1.1669921875
72.779828,1.162109375
72.8144781,1.15234375
72.8367446,1.15234375
72.8371362,1.1474609375
72.8716618,1.1474609375
72.8940707,1.1474609375
72.9009692,1.1474609375
72.9517769,1.15234375
72.9522348,1.1767578125
72.9591186,1.2158203125
72.9926264,1.2744140625
73.0139838,1.3232421875
73.0224841,1.3720703125
73.0375163,1.40625
73.0751459,1.4404296875
73.1071276,1.4599609375
73.1075679,1.4697265625
73.1206528,1.4697265625
73.1541181,1.4501953125
73.1745912,1.42578125
73.1841222,1.3916015625
73.2196536,1.3623046875
73.2200728,1.3330078125
73.2566766,1.3134765625
73.2608485,1.2939453125
73.3078517,1.2744140625
73.3081525,1.2548828125
73.3219446,1.2353515625
73.3699231,1.2158203125
73.37025,1.2060546875
73.399869,1.1865234375
73.4003166,1.181640625
73.4203557,1.171875
73.45526,1.162109375
73.4604032,1.1572265625
73.5096901,1.15234375
73.5101439,1.15234375
73.5400224,1.1474609375
73.5443816,1.1474609375
73.5604182,1.142578125
73.5973059,1.1474609375
73.5977705,1.1474609375
73.6330791,1.1474609375
73.6541119,1.142578125
73.6622683,1.142578125
73.6980387,1.1376953125
73.7024969,1.142578125
73.7184045,1.1474609375
73.7541064,1.19140625
73.7750376,1.240234375
73.7801498,1.2646484375
73.8154223,1.318359375
73.8203814,1.3623046875
73.8682171,1.396484375
73.8686712,1.4208984375
73.898831,1.435546875
73.9035575,1.4404296875
73.946317,1.4306640625
73.9467851,1.40625
73.9610688,1.38671875
73.9809781,1.3623046875
74.0263019,1.3427734375
74.0266031,1.3232421875
74.0425042,1.3037109375
74.0867478,1.2890625
74.0870507,1.2646484375
74.1031479,1.25
74.1210357,1.2353515625
74.1582756,1.23046875
74.1642011,1.2158203125
74.1813831,1.2060546875
74.2157239,1.1962890625
74.2373005,1.19140625
74.2427282,1.181640625
74.2796938,1.1767578125
74.2800703,1.162109375
74.3223649,1.1669921875
74.3226099,1.162109375
74.3595562,1.162109375
74.3598964,1.1572265625
74.4008142,1.1572265625
74.4208947,1.1572265625
74.4231039,1.15234375
74.4595581,1.15234375
74.4599654,1.1474609375
74.4955675,1.15234375
74.5271979,1.1669921875
74.5275885,1.1962890625
74.5443159,1.2353515625
74.5798599,1.2841796875
74.5838687,1.3330078125
74.6191897,1.376953125
74.6234654,1.416015625
74.6646152,1.42578125
74.6650133,1.4501953125
74.6947916,1.46484375
74.7020272,1.474609375
74.7360292,1.4599609375
74.755983,1.4404296875
74.7617104,1.416015625
74.804559,1.38671875
74.8048804,1.3623046875
74.825784,1.3330078125
74.8409918,1.30859375
74.8833646,1.2939453125
74.8837665,1.2744140625
74.9136283,1.259765625
74.9237985,1.240234375
74.9593335,1.2255859375
74.9629961,1.2109375
74.9995922,1.1962890625
74.9999903,1.1767578125
75.0219905,1.1767578125
75.0584579,1.171875
75.0632633,1.1669921875
75.1140232,1.162109375
75.1143889,1.15234375
75.1227684,1.1474609375
75.1592739,1.142578125
75.1909317,1.142578125
75.1913235,1.1376953125
75.2023788,1.142578125
75.2368855,1.1376953125
75.2411872,1.1376953125
75.2775334,1.1328125
75.2987683,1.142578125
75.3036077,1.1572265625
75.3399756,1.1962890625
75.3432561,1.25
75.3788658,1.3037109375
75.3792571,1.3623046875
75.4147591,1.40625
75.4357333,1.4501953125
75.4440881,1.474609375
75.4778023,1.494140625
75.4828716,1.494140625
75.5202619,1.484375
75.5458075,1.4697265625
75.5461993,1.4501953125
75.5629573,1.4208984375
75.6072807,1.396484375
75.6075358,1.3720703125
75.6247524,1.3427734375
75.6681929,1.318359375
75.6684451,1.298828125
75.6836982,1.2744140625
75.7321826,1.25
75.7325993,1.23046875
75.74361,1.2109375
75.7796438,1.1962890625
75.7825702,1.1865234375
75.8201188,1.1767578125
75.8251871,1.162109375
75.8613462,1.15234375
75.8666204,1.142578125
75.901649,1.1376953125
75.9018903,1.1279296875
75.9372109,1.1279296875
75.9429608,1.123046875
75.9930612,1.123046875
75.9934645,1.123046875
76.003955,1.123046875
76.0408622,1.1181640625
76.0462103,1.1181640625
76.0864239,1.1279296875
76.086682,1.1376953125
76.1033,1.171875
76.1378994,1.2158203125
76.1574253,1.26953125
76.1639098,1.3134765625
76.1845994,1.3623046875
76.2221429,1.3916015625
76.2244468,1.4208984375
76.2581624,1.4306640625
76.2655133,1.416015625
76.2825543,1.38671875
76.3345353,1.3916015625
76.334824,1.376953125
76.342584,1.357421875
76.3790649,1.3330078125
76.3840065,1.3134765625
76.4179849,1.2890625
76.4382014,1.26953125
76.4467431,1.2548828125
76.4623882,1.2353515625
76.4996199,1.2255859375
76.5040337,1.2109375
76.5393937,1.201171875
76.5689011,1.1865234375
76.5691433,1.181640625
76.5865819,1.171875
76.6070574,1.1669921875
76.6419977,1.1669921875
76.6423458,1.15234375
76.6781885,1.15234375
76.6988671,1.1474609375
76.7059989,1.1474609375
76.7255839,1.142578125
76.772535,1.1474609375
76.7727961,1.142578125
76.7934394,1.142578125
76.8027346,1.1376953125
76.8399893,1.1474609375
76.8442524,1.15234375
76.8831106,1.162109375
76.8835359,1.181640625
76.9198926,1.220703125
76.9394336,1.259765625
76.9463688,1.3134765625
76.9811817,1.357421875
76.9814448,1.3916015625
77.0020571,1.42578125
77.0378365,1.4453125
77.0684543,1.455078125
77.0689409,1.4501953125
77.0850239,1.435546875
77.1200585,1.4111328125
77.1400244,1.3818359375
77.1453674,1.3525390625
77.1787355,1.328125
77.200838,1.298828125
77.2052758,1.2841796875
77.2532635,1.26953125
77.2536499,1.259765625
77.2650613,1.2451171875
77.3008827,1.2255859375
77.3217066,1.2158203125
77.3266994,1.201171875
77.3614671,1.19140625
77.3640928,1.181640625
77.398541,1.1767578125
77.4187587,1.171875
77.4244367,1.162109375
77.4597835,1.1572265625
77.4810951,1.15234375
77.4883438,1.1474609375
77.5341173,1.142578125
77.5345161,1.1376953125
77.5453401,1.1376953125
77.5646336,1.1376953125
77.6114404,1.15234375
77.6118513,1.1572265625
77.6315026,1.162109375
77.6452834,1.171875
77.6895103,1.19140625
77.6897513,1.2353515625
77.7108363,1.2841796875
77.7255756,1.3427734375
77.7606442,1.38671875
77.7653434,1.4306640625
77.8005101,1.4599609375
77.8060435,1.4794921875
77.8418493,1.484375
77.8472973,1.484375
77.8632134,1.46484375
77.899187,1.4453125
77.9197179,1.4208984375
77.9246228,1.3916015625
77.9456184,1.3623046875
77.9817945,1.3330078125
78.0013454,1.3134765625
78.0090734,1.2890625
78.0454701,1.26953125
78.0458737,1.25
78.07922,1.2353515625
78.1014252,1.220703125
78.1057173,1.2158203125
78.1431658,1.2060546875
78.1478734,1.1962890625
78.1827124,1.1865234375
78.1903645,1.1767578125
78.2081538,1.1669921875
78.2464044,1.162109375
78.2466422,1.15234375
78.2642276,1.142578125
78.2999373,1.142578125
78.3247557,1.142578125
78.3251745,1.142578125
78.3606826,1.1376953125
78.3812805,1.142578125
78.3882907,1.1376953125
78.42572,1.1376953125
78.4261144,1.1376953125
78.4455234,1.162109375
78.495697,1.1962890625
78.4959677,1.25
78.5077101,1.298828125
78.5580264,1.3525390625
78.5584135,1.40625
78.5675613,1.435546875
78.6041786,1.455078125
78.6229479,1.46484375
78.6258358,1.4794921875
78.6650139,1.4697265625
78.6675519,1.4501953125
78.6865461,1.42578125
78.7088659,1.3916015625
78.7275095,1.357421875
78.763791,1.3330078125
78.7688102,1.3037109375
78.7880853,1.259765625
78.8042344,1.2255859375
78.8510785,1.2255859375
78.8514733,1.2158203125
78.8706013,1.2109375
78.8880427,1.2060546875
78.9228874,1.19140625
78.9280772,1.181640625
78.9748568,1.171875
78.9751055,1.1669921875
78.9850202,1.1572265625
79.0196657,1.15234375
79.0407352,1.1474609375
79.0467309,1.142578125
79.0839629,1.1376953125
79.0905156,1.1328125
79.1309011,1.1328125
79.1313132,1.1328125
79.1454922,1.1279296875
79.1817586,1.1328125
79.1857845,1.1376953125
79.2233989,1.142578125
79.2256651,1.1474609375
79.2701458,1.162109375
79.2705543,1.201171875
79.2918825,1.240234375
79.3093155,1.2890625
79.3260638,1.328125
79.3604559,1.3671875
79.3807665,1.396484375
79.3858365,1.4208984375
79.4216221,1.4306640625
79.4422754,1.4306640625
79.4495179,1.416015625
79.4835386,1.396484375
79.4839331,1.3671875
79.5336447,1.34765625
79.5340394,1.328125
79.5551443,1.30859375
79.5671488,1.2890625
79.603441,1.26953125
79.6267438,1.2548828125
79.6289984,1.240234375
79.6725391,1.23046875
79.6727815,1.220703125
79.6927438,1.2109375
79.7068829,1.201171875
79.7407104,1.1962890625
79.7619406,1.1865234375
79.767819,1.181640625
79.8018339,1.171875
79.8230083,1.1669921875
79.8289506,1.1669921875
79.8652276,1.162109375
79.8698377,1.1572265625
79.8876179,1.15234375
79.9224135,1.1572265625
79.9279289,1.1572265625
79.9694567,1.1572265625
79.9699279,1.1572265625
80.0048841,1.162109375
80.0107485,1.162109375
80.0458005,1.19140625
80.046196,1.2255859375
80.0810693,1.279296875
80.1014309,1.3330078125
80.1077228,1.3818359375
80.154826,1.4208984375
80.1552902,1.4599609375
80.1705296,1.484375
80.2063284,1.4892578125
80.2125056,1.4892578125
80.2272248,1.4697265625
80.2610072,1.4501953125
80.2815201,1.4208984375
80.2880584,1.3916015625
80.3231542,1.3623046875
80.3433572,1.337890625
80.3503564,1.3134765625
80.4007982,1.2890625
80.4010391,1.26953125
80.4061215,1.259765625
80.4482349,1.2451171875
80.448622,1.23046875
80.4684733,1.2255859375
80.5046317,1.2109375
80.5101892,1.1962890625
80.545282,1.1865234375
80.5513225,1.1767578125
80.5873529,1.1669921875
80.5928332,1.1572265625
80.6080029,1.1474609375
80.6439594,1.15234375
80.6479984,1.1474609375
80.6838931,1.15234375
80.7139551,1.15234375
80.7144173,1.15234375
80.7302277,1.1474609375
80.7629667,1.1474609375
80.7840298,1.142578125
80.7893916,1.162109375
80.8398457,1.19140625
80.8401557,1.2353515625
80.8504958,1.298828125
80.9002282,1.357421875
80.9006884,1.4208984375
80.9113317,1.4599609375
80.9458672,1.4990234375
80.946322,1.513671875
80.9674388,1.533203125
81.0092937,1.533203125
81.009677,1.5234375
81.045101,1.4990234375
81.0642073,1.4697265625
81.0699011,1.4306640625
81.1086351,1.396484375
81.1133306,1.3671875
81.1289598,1.3330078125
81.1632966,1.3134765625
81.1683857,1.2939453125
81.2125351,1.2744140625
81.2132147,1.2548828125
81.2314306,1.240234375
81.2679029,1.220703125
81.2709921,1.2060546875
81.2925241,1.1865234375
81.3266034,1.15234375
81.3477588,1.142578125
81.3483679,1.142578125
81.3843127,1.142578125
81.4139559,1.1376953125
81.4144193,1.1328125
81.4320285,1.1376953125
81.4522048,1.1328125
81.4901326,1.1279296875
81.4949425,1.123046875
81.5107163,1.1181640625
81.5449737,1.123046875
81.5485222,1.123046875
81.5998032,1.1328125
81.6002704,1.1474609375
81.6108793,1.1865234375
81.6624998,1.2353515625
81.662876,1.2890625
81.6914386,1.3427734375
81.6917288,1.40625
81.7110519,1.4453125
81.7455869,1.474609375
81.7505311,1.494140625
81.8009614,1.494140625
81.8012724,1.484375
81.811258,1.455078125
81.86295,1.4306640625
81.8634105,1.3916015625
81.871216,1.3671875
81.9062464,1.337890625
81.9091344,1.3134765625
81.9447023,1.2890625
81.9653319,1.2744140625
81.9697772,1.25
82.0177494,1.240234375
82.0180386,1.220703125
82.0373595,1.2109375
82.0498945,1.1962890625
82.0704027,1.19140625
82.1097079,1.1767578125
82.1100123,1.1669921875
82.1575739,1.1572265625
82.157963,1.15234375
82.1781643,1.1474609375
82.1932914,1.142578125
82.2326722,1.1376953125
82.2334435,1.1328125
82.2514606,1.1376953125
82.2857891,1.1376953125
82.2913999,1.1328125
82.3412631,1.1328125
82.3415598,1.1376953125
82.3525965,1.1376953125
82.3873233,1.15234375
82.4078129,1.1865234375
82.4103896,1.23046875
82.4453688,1.2841796875
82.4504256,1.3330078125
82.4971502,1.3818359375
82.4975946,1.4111328125
82.5126631,1.435546875
82.5498446,1.4453125
82.5539129,1.4501953125
82.5694639,1.435546875
82.6039765,1.4208984375
82.6248338,1.396484375
82.6289984,1.3720703125
82.6680495,1.34765625
82.6978111,1.328125
82.6981272,1.3037109375
82.7121454,1.2890625
82.7601184,1.26953125
82.7605773,1.25
82.7707156,1.240234375
82.8064106,1.23046875
82.8110734,1.220703125
82.8556176,1.2060546875
82.8560813,1.1962890625
82.8724849,1.1865234375
82.907141,1.1767578125
82.9283313,1.171875
82.934681,1.1669921875
82.9501987,1.1376953125
82.9847988,1.1474609375
83.0046994,1.1474609375
83.0111733,1.1474609375
83.0551497,1.15234375
83.0556022,1.1474609375
83.1040681,1.1474609375
83.1043683,1.1474609375
83.1146741,1.1474609375
83.1305425,1.15234375
83.1812229,1.181640625
83.1816873,1.23046875
83.1932429,1.2890625
83.228718,1.3525390625
83.2331302,1.4111328125
83.2660702,1.455078125
83.3880526,1.4892578125
83.3884521,1.5087890625
83.3887676,1.5283203125
83.3890688,1.5283203125
83.3893644,1.5185546875
83.3896588,1.4990234375
83.4036859,1.46484375
83.4132096,1.4306640625
83.4514386,1.396484375
83.4724859,1.3671875
83.4729931,1.3330078125
83.4927995,1.318359375
83.5314473,1.298828125
83.5317494,1.279296875
83.5785785,1.259765625
83.5791473,1.240234375
83.5942985,1.2158203125
83.6298681,1.201171875
83.6302637,1.1865234375
83.6702547,1.171875
83.6907364,1.1669921875
83.6910783,1.1572265625
83.7270754,1.1474609375
83.7473262,1.142578125
83.7522824,1.1474609375
83.7934682,1.142578125
83.7938663,1.142578125
83.8145432,1.1376953125
83.8478839,1.1376953125
83.8684623,1.1328125
83.8709391,1.1376953125
83.9197658,1.1376953125
83.920286,1.1474609375
83.9399934,1.171875
83.9550875,1.2255859375
83.9905765,1.279296875
83.9948299,1.3525390625
84.0451552,1.416015625
84.0455829,1.4599609375
84.074832,1.50390625
84.0751338,1.533203125
84.0930557,1.5478515625
84.137227,1.552734375
84.1376894,1.54296875
84.1585399,1.5234375
84.1740595,1.4892578125
84.1923454,1.455078125
84.2275955,1.42578125
84.2334256,1.396484375
84.2523323,1.3720703125
84.2923393,1.3427734375
84.2927474,1.3134765625
84.3140106,1.2939453125
84.3543744,1.2646484375
84.3547718,1.240234375
84.3739906,1.2109375
84.4075733,1.1962890625
84.4301682,1.1767578125
84.4318381,1.1669921875
84.4649284,1.15234375
84.4851956,1.142578125
84.4950239,1.1279296875
84.5404842,1.123046875
84.5407256,1.11328125
84.5517258,1.11328125
84.5874876,1.11328125
84.5920804,1.11328125
84.6326593,1.1083984375
84.6331006,1.1083984375
84.6803215,1.11328125
84.680792,1.1083984375
84.7101691,1.1083984375
84.7155405,1.1181640625
84.7574256,1.1474609375
84.7578043,1.1962890625
84.7735016,1.2646484375
84.8087518,1.328125
84.8291415,1.3818359375
84.8335093,1.42578125
84.8688662,1.455078125
84.8881454,1.4697265625
84.8945934,1.4794921875
84.929644,1.4697265625
84.9336731,1.455078125
84.9698647,1.4306640625
84.9741557,1.4013671875
85.0205263,1.3720703125
85.0209259,1.3427734375
85.0349889,1.318359375
85.0837193,1.2890625
85.0841844,1.2646484375
85.1027275,1.2451171875
85.1132724,1.23046875
85.1513767,1.2109375
85.1518484,1.201171875
85.1867531,1.181640625
85.2077851,1.171875
85.2154181,1.1572265625
85.249807,1.1474609375
85.2722786,1.1328125
85.2727391,1.1328125
85.3092939,1.1328125
85.3329347,1.123046875
85.3332462,1.123046875
85.3796391,1.1181640625
85.3800232,1.1181640625
85.3962931,1.11328125
85.4166413,1.11328125
85.4382152,1.1083984375
85.4568946,1.0888671875
85.4744843,1.07421875
85.5091757,1.1083984375
85.5140215,1.1474609375
85.5350348,1.2109375
85.5685905,1.26953125
85.589014,1.337890625
85.5950693,1.396484375
85.6310318,1.435546875
85.6623608,1.46484375
85.662665,1.474609375
85.6734738,1.4892578125
85.7092045,1.4794921875
85.7302022,1.4599609375
85.7368136,1.4306640625
85.7556446,1.4013671875
85.7921407,1.3720703125
85.819849,1.3525390625
85.8204613,1.3232421875
85.8345779,1.30859375
85.8696292,1.2939453125
85.8743317,1.279296875
85.9087366,1.259765625
85.9303053,1.2451171875
85.9346235,1.23046875
85.9685711,1.2060546875
85.990107,1.19140625
85.9942363,1.1767578125
86.0344158,1.171875
86.034709,1.1669921875
86.0554129,1.162109375
86.0909095,1.1572265625
86.0964589,1.15234375
86.1308192,1.1474609375
86.151134,1.142578125
86.1538927,1.1376953125
86.1881436,1.142578125
86.1939562,1.1376953125
86.2380354,1.1376953125
86.2384888,1.142578125
86.2548544,1.142578125
86.2748289,1.1669921875
86.3113376,1.2060546875
86.3292794,1.26953125
86.3391409,1.328125
86.3768605,1.3916015625
86.3771737,1.435546875
86.4235144,1.484375
86.4238139,1.5087890625
86.4361075,1.533203125
86.4862146,1.5283203125
86.4865854,1.5234375
86.4973425,1.494140625
86.5178508,1.46484375
86.5341286,1.4306640625
86.5712721,1.4111328125
86.5735472,1.3818359375
86.6087585,1.3525390625
86.6297183,1.3232421875
86.6369087,1.298828125
86.6854019,1.279296875
86.6858725,1.2548828125
86.6976434,1.23046875
86.7151177,1.2109375
86.7553391,1.1962890625
86.7598863,1.181640625
86.7742117,1.1669921875
86.8097583,1.1572265625
86.83081,1.1474609375
86.8359453,1.1376953125
86.8813044,1.1328125
86.8817569,1.1279296875
86.9113845,1.1181640625
86.9171474,1.123046875
86.9525327,1.1181640625
86.9549078,1.1181640625
86.9907978,1.1181640625
87.0187831,1.1181640625
87.0192446,1.11328125
87.0661252,1.1181640625
87.0665854,1.123046875
87.0750916,1.162109375
87.1099894,1.2158203125
87.1309325,1.2890625
87.136206,1.357421875
87.1889831,1.4208984375
87.1892871,1.46484375
87.1980267,1.50390625
87.2349194,1.533203125
87.2375285,1.54296875
87.2734413,1.54296875
87.300966,1.5234375
87.3014054,1.50390625
87.3160975,1.4697265625
87.3629565,1.435546875
87.3634239,1.4013671875
87.3780997,1.3671875
87.413248,1.3330078125
87.4344187,1.3037109375
87.4348749,1.2744140625
87.4710321,1.25
87.5016162,1.23046875
87.5019099,1.2109375
87.5167019,1.19140625
87.5639483,1.171875
87.5643123,1.1572265625
87.5835086,1.142578125
87.5999311,1.1328125
87.615472,1.123046875
87.6548955,1.1181640625
87.6553429,1.11328125
87.6756652,1.11328125
87.7098642,1.103515625
87.7307596,1.103515625
87.7379575,1.0986328125
87.7721318,1.0986328125
87.793719,1.09375
87.7963318,1.0986328125
87.8421904,1.0986328125
87.8426378,1.11328125
87.8581045,1.1328125
87.8762462,1.162109375
87.9212806,1.2109375
87.9215788,1.2646484375
87.9420741,1.3232421875
87.9607711,1.3720703125
87.9800446,1.3916015625
87.9970535,1.4013671875
88.032181,1.4306640625
88.0393729,1.4453125
88.0578288,1.4404296875
88.0933135,1.4208984375
88.1137871,1.396484375
88.1176917,1.3671875
88.1538474,1.337890625
88.1850722,1.3134765625
88.1853795,1.2841796875
88.1982427,1.2646484375
88.2467826,1.2451171875
88.247076,1.23046875
88.2592311,1.2109375
88.279661,1.1962890625
88.2999195,1.181640625
88.3199825,1.1669921875
88.3384231,1.1572265625
88.3569564,1.15234375
88.4025092,1.15234375
88.4028556,1.1474609375
88.4335684,1.1376953125
88.4385214,1.1376953125
88.4788373,1.1279296875
88.4792716,1.1279296875
88.5251276,1.1279296875
88.525566,1.1181640625
88.5463551,1.123046875
88.5576512,1.123046875
88.6024088,1.123046875
88.6027652,1.123046875
88.6237627,1.1279296875
88.6397882,1.1328125
88.6745384,1.162109375
88.6942284,1.2060546875
88.6961691,1.2646484375
88.7437326,1.318359375
88.7441958,1.376953125
88.763172,1.416015625
88.7788183,1.4501953125
88.8130293,1.474609375
88.8336671,1.4697265625
88.8387684,1.46484375
88.8835746,1.4453125
88.8838891,1.4208984375
88.898533,1.3916015625
88.9329173,1.3623046875
88.9387576,1.3330078125
88.976347,1.3134765625
88.9812273,1.2890625
88.9998826,1.26953125
89.0352962,1.25
89.0553761,1.23046875
89.0556732,1.2158203125
89.1020365,1.2060546875
89.1024861,1.19140625
89.1326535,1.1865234375
89.1400472,1.1767578125
89.1803311,1.162109375
89.1806387,1.15234375
89.2268893,1.142578125
89.2273511,1.1328125
89.237785,1.1279296875
89.2735945,1.1328125
89.2786846,1.1328125
89.3149342,1.1328125
89.3353066,1.1328125
89.339513,1.1279296875
89.384947,1.123046875
89.3854013,1.1279296875
89.3988643,1.1279296875
89.4340696,1.142578125
89.4384644,1.171875
89.4731319,1.2109375
89.4787501,1.26953125
89.514345,1.328125
89.5203469,1.38671875
89.555911,1.42578125
89.560088,1.46484375
89.5793972,1.4794921875
89.6137278,1.4990234375
89.6181994,1.4697265625
89.654145,1.4697265625
89.6583253,1.4501953125
89.6958665,1.4208984375
89.7019909,1.3916015625
89.7388947,1.3623046875
89.7393472,1.328125
89.7904112,1.30859375
89.7907195,1.279296875
89.8114408,1.259765625
89.8188355,1.240234375
89.8565077,1.2255859375
89.8605253,1.2109375
89.8962676,1.1962890625
89.9175277,1.19140625
89.9227902,1.181640625
89.9417854,1.1767578125
89.958943,1.1669921875
90.0063168,1.162109375
90.0066363,1.1572265625
90.036746,1.15234375
90.0404844,1.142578125
90.0847899,1.142578125
90.0851834,1.142578125
90.1019164,1.1328125
90.1216212,1.1328125
90.1394394,1.1279296875
90.178503,1.1376953125
90.1788198,1.1328125
90.2012536,1.1376953125
90.2383998,1.1474609375
90.2387938,1.1767578125
90.2757752,1.2158203125
90.2966309,1.2744140625
90.299558,1.328125
90.3500381,1.3818359375
90.3508944,1.4208984375
90.3595847,1.455078125
90.3955735,1.4697265625
90.4008105,1.4794921875
90.4442273,1.4697265625
90.4447071,1.4501953125
90.4629174,1.416015625
90.4827578,1.3818359375
90.5220861,1.328125
90.5223803,1.298828125
90.5442494,1.2841796875
90.5612891,1.2646484375
90.5960518,1.25
90.6007794,1.2353515625
90.6477931,1.220703125
90.6482489,1.201171875
90.6680765,1.19140625
90.6806044,1.1767578125
90.7165326,1.171875
90.7211406,1.1669921875
90.7700119,1.15234375
90.7703223,1.1474609375
90.7790662,1.1376953125
90.8171893,1.1328125
90.8371646,1.123046875
90.8417372,1.123046875
90.8574238,1.1181640625
90.8904736,1.123046875
90.912171,1.123046875
90.9206083,1.1279296875
90.9719389,1.1279296875
90.9722651,1.1328125
90.990086,1.1328125
91.0023599,1.1376953125
91.0200069,1.15234375
91.0654383,1.1962890625
91.0656826,1.25
91.0858474,1.2939453125
91.1034981,1.34765625
91.1207274,1.38671875
91.1563319,1.416015625
91.1614338,1.435546875
91.1958706,1.4453125
91.2165151,1.4453125
91.2196364,1.435546875
91.2528932,1.416015625
91.2723933,1.3916015625
91.2798984,1.3623046875
91.314388,1.3330078125
91.3345298,1.30859375
91.3426577,1.2841796875
91.3906031,1.2646484375
91.391176,1.240234375
91.409894,1.2255859375
91.4209109,1.2060546875
91.4552041,1.201171875
91.4836688,1.1865234375
91.4842461,1.1767578125
91.5022439,1.171875
91.5476134,1.162109375
91.5480085,1.15234375
91.5772135,1.1474609375
91.5797811,1.1376953125
91.6160702,1.142578125
91.6227101,1.1376953125
91.6713332,1.142578125
91.6717769,1.1376953125
91.6809951,1.1376953125
91.716024,1.1376953125
91.7359073,1.1376953125
91.7434369,1.1328125
91.7605557,1.1328125
91.7949275,1.142578125
91.8018675,1.15234375
91.841015,1.1865234375
91.8414557,1.23046875
91.8728742,1.2890625
91.9044096,1.337890625
91.904649,1.3916015625
91.9200543,1.42578125
91.9556095,1.46484375
91.9824087,1.4892578125
91.9828074,1.494140625
92.0180317,1.4892578125
92.0222915,1.46484375
92.0586672,1.4404296875
92.0643278,1.4013671875
92.0850557,1.376953125
92.1001311,1.34765625
92.1365568,1.3232421875
92.1409871,1.26953125
92.1743173,1.259765625
92.1948243,1.240234375
92.2023375,1.23046875
92.2450318,1.220703125
92.2454269,1.2109375
92.2634737,1.1962890625
92.2992574,1.1865234375
92.2995316,1.171875
92.3329671,1.171875
92.3533842,1.1669921875
92.3613871,1.162109375
92.3994012,1.1572265625
92.4198033,1.15234375
92.4239071,1.1474609375
92.4621334,1.142578125
92.4933839,1.1474609375
92.4936356,1.142578125
92.501917,1.1474609375
92.5399807,1.142578125
92.560307,1.142578125
92.5606436,1.142578125
92.5965374,1.1376953125
92.6174756,1.142578125
92.6239418,1.1669921875
92.6634349,1.2158203125
92.6637483,1.259765625
92.6810476,1.328125
92.7276504,1.3818359375
92.7279745,1.435546875
92.757563,1.4599609375
92.7647109,1.484375
92.8033133,1.4892578125
92.8037181,1.4892578125
92.8218353,1.46484375
92.8437379,1.455078125
92.8623155,1.4208984375
92.8970795,1.3916015625
92.9024657,1.357421875
92.9388567,1.3330078125
92.9598018,1.298828125
92.9637439,1.2841796875
93.0003069,1.2646484375
93.0285041,1.240234375
93.0288268,1.220703125
93.0438133,1.2060546875
93.0781745,1.1962890625
93.0828262,1.181640625
93.1162309,1.171875
93.1369192,1.162109375
93.1436517,1.15234375
93.1807862,1.1376953125
93.2000927,1.1328125
93.202272,1.123046875
93.2378519,1.1279296875
93.2588041,1.123046875
93.2633439,1.1279296875
93.2986497,1.1328125
93.3029711,1.1279296875
93.3406709,1.1279296875
93.37072,1.1279296875
93.3709891,1.1279296875
93.3834584,1.123046875
93.4319522,1.1328125
93.4325168,1.15234375
93.4458756,1.19140625
93.4923773,1.2353515625
93.492621,1.2890625
93.5061112,1.328125
93.5264102,1.3671875
93.5419823,1.3916015625
93.5844401,1.416015625
93.5846914,1.42578125
93.6030879,1.42578125
93.6448068,1.4111328125
93.6450626,1.3818359375
93.6826592,1.357421875
93.6830135,1.328125
93.7223835,1.3037109375
93.7227164,1.279296875
93.7412858,1.26953125
93.7765686,1.2548828125
93.7972253,1.240234375
93.8054951,1.2255859375
93.8423061,1.2109375
93.8468541,1.1962890625
93.8668363,1.1865234375
93.9076114,1.1767578125
93.9080659,1.1669921875
93.9556725,1.162109375
93.9559481,1.15234375
93.9647843,1.1474609375
94.0000456,1.15234375
94.005067,1.162109375
94.0403524,1.162109375
94.0460934,1.162109375
94.0820593,1.162109375
94.1089438,1.162109375
94.1092752,1.1572265625
94.1256653,1.162109375
94.1697664,1.162109375
94.1700137,1.162109375
94.1854603,1.1669921875
94.231296,1.1767578125
94.2316181,1.201171875
94.2512919,1.25
94.2679873,1.298828125
94.2845704,1.337890625
94.3204287,1.38671875
94.3225586,1.4208984375
94.3581545,1.4404296875
94.384448,1.4453125
94.3846967,1.4501953125
94.4318478,1.435546875
94.4321837,1.416015625
94.4529931,1.3916015625
94.464516,1.3671875
94.5097153,1.3427734375
94.5099632,1.328125
94.5254647,1.30859375
94.5722781,1.2841796875
94.5725216,1.2744140625
94.5869082,1.259765625
94.6247967,1.2451171875
94.6250452,1.2255859375
94.6653255,1.1962890625
94.6656457,1.1669921875
94.6994724,1.1767578125
94.7284557,1.1767578125
94.7288501,1.181640625
94.7614344,1.1767578125
94.7670725,1.1767578125
94.8080153,1.171875
94.8084189,1.1669921875
94.8242584,1.162109375
94.8574096,1.162109375
94.8797489,1.1572265625
94.8861052,1.162109375
94.9210519,1.162109375
94.9408507,1.1572265625
94.9481,1.1572265625
94.9946516,1.15234375
94.995052,1.162109375
95.0063014,1.181640625
95.0567962,1.2353515625
95.0571883,1.2890625
95.0653287,1.3427734375
95.0999025,1.3916015625
95.1206301,1.4306640625
95.1271387,1.4599609375
95.1651894,1.4794921875
95.1655076,1.4794921875
95.1875599,1.484375
95.2058497,1.4697265625
95.2259892,1.4404296875
95.2606962,1.4111328125
95.2661479,1.376953125
95.3006646,1.3525390625
95.3219294,1.328125
95.3259839,1.3037109375
95.3613009,1.279296875
95.364019,1.2646484375
95.4017332,1.25
95.4061526,1.240234375
95.4415328,1.2255859375
95.4469185,1.2109375
95.4925891,1.201171875
95.4928338,1.1865234375
95.5091081,1.171875
95.5441076,1.1669921875
95.548192,1.162109375
95.5659653,1.15234375
95.6008712,1.1474609375
95.6215114,1.142578125
95.6262464,1.142578125
95.6645313,1.1376953125
95.6675444,1.1376953125
95.7031591,1.1328125
95.7092312,1.1376953125
95.7276544,1.1328125
95.7629737,1.142578125
95.7660977,1.142578125
95.8055308,1.1572265625
95.8113141,1.1767578125
95.8315323,1.2255859375
95.8486631,1.279296875
95.8906768,1.3330078125
95.8910119,1.38671875
95.9067691,1.42578125
95.9541125,1.46484375
95.954521,1.4892578125
95.9679017,1.50390625
96.0094609,1.4990234375
96.0098808,1.494140625
96.0284555,1.4697265625
96.0704356,1.4453125
96.0709884,1.4111328125
96.0866822,1.38671875
96.1075382,1.357421875
96.1434315,1.3330078125
96.1456281,1.3037109375
96.1803627,1.2890625
96.2020978,1.2646484375
96.2098243,1.240234375
96.2543562,1.220703125
96.254753,1.201171875
96.2663087,1.1865234375
96.3016981,1.171875
96.3064357,1.162109375
96.3437922,1.15234375
96.3484074,1.142578125
96.3839859,1.1376953125
96.3869422,1.1279296875
96.4245808,1.123046875
96.4287226,1.123046875
96.4473488,1.1181640625
96.4671503,1.1181640625
96.5034036,1.123046875
96.5307212,1.123046875
96.5310428,1.123046875
96.547802,1.1181640625
96.5836286,1.1279296875
96.590902,1.1279296875
96.609482,1.1474609375
96.6267109,1.181640625
96.6471844,1.2353515625
96.6886944,1.279296875
96.6889384,1.3330078125
96.7235094,1.3671875
96.729918,1.4013671875
96.7660166,1.4208984375
96.7705544,1.4306640625
96.7867523,1.4208984375
96.8242774,1.4208984375
96.8246607,1.4013671875
96.8691342,1.376953125
96.8695348,1.3525390625
96.890071,1.3232421875
96.9247499,1.298828125
96.9293884,1.279296875
96.9637394,1.259765625
96.9833223,1.240234375
96.9860025,1.23046875
97.0197645,1.220703125
97.0399509,1.2109375
97.0478033,1.1962890625
97.0815147,1.19140625
97.1028732,1.181640625
97.1104297,1.171875
97.1459252,1.1669921875
97.1508167,1.1572265625
97.1701398,1.1328125
97.1885515,1.1083984375
97.2263563,1.1279296875
97.2284082,1.1279296875
97.2732876,1.1376953125
97.2735293,1.1376953125
97.2930518,1.142578125
97.3252263,1.142578125
97.3302776,1.142578125
97.3476842,1.1376953125
97.3819013,1.1474609375
97.3859718,1.162109375
97.4211906,1.19140625
97.4426139,1.23046875
97.4497385,1.2890625
97.4895984,1.3427734375
97.4899911,1.3818359375
97.5227193,1.4111328125
97.5422509,1.4306640625
97.5462388,1.4501953125
97.5906118,1.455078125
97.5908549,1.4501953125
97.6362032,1.4306640625
97.6366713,1.40625
97.6502999,1.376953125
97.6854929,1.34765625
97.6858695,1.318359375
97.730342,1.3037109375
97.7305854,1.2841796875
97.7565126,1.2744140625
97.7701295,1.259765625
97.7924423,1.2451171875
97.811483,1.23046875
97.8544936,1.2158203125
97.8548335,1.2060546875
97.8678862,1.19140625
97.9167773,1.19140625
97.917021,1.181640625
97.9270309,1.1767578125
97.9602006,1.1669921875
97.9820722,1.162109375
97.9908857,1.1572265625
98.0267565,1.1572265625
98.0296168,1.1474609375
98.0729343,1.1474609375
98.0731759,1.1376953125
98.0950427,1.15234375
98.108378,1.1572265625
98.1440117,1.162109375
98.1669039,1.162109375
98.1719034,1.1669921875
98.1906849,1.19140625
98.2252983,1.220703125
98.2480147,1.279296875
98.248407,1.328125
98.2864736,1.3818359375
98.2881997,1.42578125
98.3210706,1.4599609375
98.3424459,1.4794921875
98.3490589,1.4990234375
98.3833719,1.4892578125
98.4079076,1.4794921875
98.4125603,1.4599609375
98.4292424,1.4208984375
98.4639755,1.396484375
98.4698067,1.3671875
98.4901239,1.3427734375
98.5259849,1.318359375
98.5300747,1.2939453125
98.5652051,1.2744140625
98.5843798,1.2548828125
98.586694,1.240234375
98.6227752,1.23046875
98.6411742,1.2109375
98.6503791,1.201171875
98.690246,1.19140625
98.6906059,1.181640625
98.7184979,1.171875
98.7306667,1.171875
98.7592907,1.1669921875
98.7719693,1.1572265625
98.7882959,1.1572265625
98.8100581,1.1572265625
98.8342617,1.15234375
98.8578015,1.1474609375
98.8722106,1.15234375
98.9120211,1.1474609375
98.9126564,1.1474609375
98.9349248,1.142578125
98.9502669,1.142578125
98.9685359,1.142578125
99.0047837,1.1669921875
99.0396226,1.2060546875
99.0403714,1.2548828125
99.0498514,1.3134765625
99.0826038,1.3720703125
99.1040543,1.416015625
99.1129903,1.4501953125
99.1617037,1.4794921875
99.1620737,1.4892578125
99.1687859,1.4990234375
99.2038584,1.4892578125
99.224984,1.4697265625
99.2329196,1.4404296875
99.2517365,1.4111328125
99.2866006,1.3720703125
99.2915502,1.3427734375
99.3088091,1.30859375
99.3463105,1.2890625
99.3484019,1.2646484375
99.3832168,1.25
99.4055173,1.2255859375
99.4109268,1.2109375
99.4534697,1.19140625
99.453827,1.1767578125
99.4736136,1.162109375
99.4888382,1.1474609375
99.5247962,1.142578125
99.543795,1.1328125
99.5515752,1.1279296875
99.5884014,1.123046875
99.5909798,1.11328125
99.6382269,1.11328125
99.6386191,1.1083984375
99.658949,1.1083984375
99.6735103,1.083984375
99.6943953,1.0693359375
99.7102158,1.0791015625
99.7475284,1.09375
99.7499781,1.103515625
99.7925634,1.1181640625
99.7929878,1.123046875
99.823434,1.1474609375
99.832923,1.1767578125
99.8683057,1.2255859375
99.8688455,1.26953125
99.8882234,1.3232421875
99.9217518,1.357421875
99.9447177,1.3916015625
99.952274,1.4111328125
99.9928309,1.4208984375
99.9931282,1.416015625
100.0129968,1.40625
100.0513113,1.38671875
100.0517071,1.357421875
100.1019723,1.337890625
100.1023177,1.3134765625
100.1108747,1.2939453125
100.1482745,1.279296875
100.1770628,1.2646484375
100.1773916,1.2548828125
100.1935148,1.2353515625
100.2090148,1.2158203125
100.2552408,1.2060546875
100.2555865,1.1962890625
100.2844283,1.19140625
100.2912038,1.181640625
100.330551,1.171875
100.3526016,1.171875
100.3531981,1.1572265625
100.3864691,1.15234375
100.4059632,1.142578125
100.4113691,1.15234375
100.4536457,1.1474609375
100.4542772,1.1474609375
100.4729649,1.1474609375
100.4927422,1.1474609375
100.5300476,1.1474609375
100.5347615,1.15234375
100.558116,1.15234375
100.5767002,1.15234375
100.5915863,1.1572265625
100.6113652,1.1767578125
100.6329986,1.2060546875
100.6530249,1.259765625
100.7030414,1.3134765625
100.7034264,1.3525390625
100.7159134,1.396484375
100.7341409,1.4208984375
100.7790957,1.4404296875
100.7793763,1.4453125
100.7919161,1.455078125
100.8125347,1.4453125
100.8490448,1.4306640625
100.8511801,1.40625
100.8735677,1.376953125
100.8953532,1.3525390625
100.9156339,1.328125
100.9309045,1.3037109375
100.9671486,1.2890625
100.972068,1.2744140625
101.0096149,1.259765625
101.0100391,1.2451171875
101.0514712,1.2255859375
101.0709846,1.2158203125
101.0733331,1.201171875
101.1138248,1.19140625
101.114145,1.1767578125
101.1439048,1.1767578125
101.1517238,1.171875
101.1888217,1.171875
101.1933669,1.1669921875
