fs,t,y
50.293201070780974,239.1645323,1.5087890625
,239.1704486,1.5087890625
,239.2065623,1.50390625
,239.2096726,1.50390625
,239.2287409,1.4990234375
,239.2746155,1.494140625
,239.2752285,1.494140625
,239.2895129,1.494140625
,239.3095138,1.4892578125
,239.3525334,1.484375
,239.3532441,1.484375
,239.3703469,1.484375
,239.4073578,1.4794921875
,239.4109775,1.4794921875
,239.4481164,1.4794921875
,239.4485578,1.484375
,239.4826179,1.494140625
,239.5032569,1.50390625
,239.5085306,1.513671875
,239.5553689,1.5185546875
,239.5560401,1.5283203125
,239.5704689,1.5380859375
,239.6176212,1.54296875
,239.6183073,1.5478515625
,239.629932,1.5478515625
,239.6795335,1.552734375
,239.6800038,1.552734375
,239.6886058,1.552734375
,239.7248563,1.5478515625
,239.7304504,1.54296875
,239.7650409,1.5380859375
,239.7879292,1.5380859375
,239.7885339,1.5380859375
,239.8226586,1.533203125
,239.8428245,1.5283203125
,239.848552,1.5234375
,239.8828373,1.5234375
,239.9036469,1.5185546875
,239.9116163,1.513671875
,239.9318355,1.5087890625
,239.9473886,1.50390625
,239.9932689,1.50390625
,239.9939322,1.4990234375
,240.0096125,1.494140625
,240.0542667,1.4892578125
,240.0550044,1.4892578125
,240.0872396,1.4892578125
,240.0924409,1.484375
,240.1121484,1.484375
,240.1474646,1.4794921875
,240.1523489,1.4794921875
,240.1859985,1.474609375
,240.1891623,1.474609375
,240.224682,1.474609375
,240.2289361,1.4697265625
,240.2647449,1.4697265625
,240.2857997,1.474609375
,240.293761,1.4794921875
,240.3124036,1.484375
,240.3496179,1.494140625
,240.3501181,1.50390625
,240.3862492,1.513671875
,240.3895522,1.5234375
,240.4242498,1.5283203125
,240.4449882,1.533203125
,240.4531385,1.5380859375
,240.4726121,1.54296875
,240.5094744,1.54296875
,240.5100237,1.54296875
,240.528741,1.5380859375
,240.5661488,1.5380859375
,240.5690998,1.5380859375
,240.6024409,1.533203125
,240.6234669,1.5283203125
,240.6319327,1.5283203125
,240.668117,1.5234375
,240.6722603,1.5234375
,240.6887873,1.5185546875
,240.7275672,1.513671875
,240.7304411,1.5087890625
,240.7662926,1.5087890625
,240.771046,1.50390625
,240.8071915,1.50390625
,240.8104658,1.4990234375
,240.845876,1.494140625
,240.8659702,1.494140625
,240.8740587,1.4892578125
,240.8899801,1.4892578125
,240.9259236,1.484375
,240.9312969,1.4794921875
,240.9670301,1.4794921875
,240.988218,1.4794921875
,240.9916568,1.4794921875
,241.0264838,1.474609375
,241.0478059,1.4697265625
,241.0534999,1.4697265625
,241.0700067,1.4697265625
,241.0914152,1.4697265625
,241.1434545,1.46484375
,241.1441025,1.4697265625
,241.1517324,1.474609375
,241.1731823,1.484375
,241.2228192,1.494140625
,241.2233847,1.4990234375
,241.2525897,1.5087890625
,241.2530715,1.5185546875
,241.2724858,1.5283203125
,241.2908047,1.533203125
,241.3260912,1.533203125
,241.3487605,1.5380859375
,241.3520741,1.54296875
,241.3887545,1.54296875
,241.3942459,1.5380859375
,241.4134312,1.533203125
,241.446842,1.533203125
,241.4498914,1.533203125
,241.4883435,1.533203125
,241.5096528,1.5283203125
,241.5103137,1.5234375
,241.5468839,1.5234375
,241.5675481,1.5185546875
,241.5754492,1.5185546875
,241.6096918,1.513671875
,241.613659,1.5087890625
,241.6309758,1.5087890625
,241.6670522,1.50390625
,241.6724817,1.50390625
,241.7083368,1.4990234375
,241.7130798,1.494140625
,241.7494936,1.494140625
,241.755204,1.494140625
,241.7753126,1.4892578125
,241.7901845,1.4892578125
,241.83012,1.484375
,241.8601722,1.484375
,241.8606693,1.484375
,241.8711906,1.484375
,241.8939128,1.4794921875
,241.9396994,1.4794921875
,241.9403865,1.4794921875
,241.9546234,1.484375
,241.9712044,1.4892578125
,242.0080594,1.494140625
,242.011122,1.50390625
,242.0470929,1.513671875
,242.0806701,1.5185546875
,242.0812829,1.5283203125
,242.0937259,1.533203125
,242.1295428,1.533203125
,242.1344337,1.5380859375
,242.1554331,1.54296875
,242.1726097,1.54296875
,242.2080046,1.5380859375
,242.212969,1.533203125
,242.2524018,1.533203125
,242.2730633,1.533203125
,242.2737486,1.533203125
,242.3148606,1.5283203125
,242.3155443,1.5234375
,242.3504666,1.5234375
,242.3509226,1.5185546875
,242.3938035,1.5185546875
,242.3944661,1.513671875
,242.4124736,1.5087890625
,242.454466,1.5087890625
,242.4549445,1.5087890625
,242.4754965,1.50390625
,242.5131953,1.4990234375
,242.5138714,1.494140625
,242.5326587,1.494140625
,242.5542206,1.494140625
,242.5752968,1.4892578125
,242.6102668,1.484375
,242.6151604,1.484375
,242.6351712,1.484375
,242.6753065,1.484375
,242.6759824,1.4794921875
,242.6926025,1.4794921875
,242.7376551,1.474609375
,242.7382537,1.4794921875
,242.7551684,1.484375
,242.7742727,1.4892578125
,242.7940832,1.494140625
,242.8274765,1.50390625
,242.8491056,1.513671875
,242.8570443,1.5185546875
,242.8774634,1.5234375
,242.9257494,1.5283203125
,242.9264774,1.533203125
,242.9325145,1.5380859375
,242.9722521,1.5380859375
,242.9727865,1.5380859375
,243.0112364,1.5380859375
,243.0147239,1.533203125
,243.0501982,1.533203125
,243.0710433,1.533203125
,243.0743882,1.5283203125
,243.0940253,1.5234375
,243.1293262,1.5234375
,243.1576439,1.5234375
,243.1583033,1.5185546875
,243.1741268,1.5185546875
,243.2112314,1.513671875
,243.2161987,1.5087890625
,243.2534957,1.5087890625
,243.25422,1.50390625
,243.2914927,1.50390625
,243.2945284,1.4990234375
,243.3298861,1.494140625
,243.3341996,1.494140625
,243.3681152,1.494140625
,243.388305,1.4892578125
,243.3965337,1.4892578125
,243.412814,1.484375
,243.4507334,1.484375
,243.4718806,1.484375
,243.472548,1.4794921875
,243.5132915,1.4794921875
,243.5138433,1.4794921875
,243.5360275,1.4794921875
,243.5728463,1.484375
,243.5783039,1.484375
,243.5970056,1.4892578125
,243.6457183,1.4990234375
,243.6465172,1.5087890625
,243.6770796,1.513671875
,243.6777641,1.5185546875
,243.6955576,1.5234375
,243.7304265,1.5283203125
,243.7521735,1.533203125
,243.7583831,1.533203125
,243.7938456,1.533203125
,243.7942946,1.533203125
,243.8317604,1.5283203125
,243.86317,1.5283203125
,243.8638273,1.5283203125
,243.874488,1.5234375
,243.9115641,1.5234375
,243.9315798,1.5185546875
,243.9374757,1.5185546875
,243.9718738,1.5185546875
,243.9945498,1.513671875
,243.995212,1.5087890625
,244.0375405,1.5087890625
,244.0381908,1.5087890625
,244.067866,1.50390625
,244.0774154,1.4990234375
,244.1144789,1.4990234375
,244.1173658,1.494140625
,244.134239,1.494140625
,244.178484,1.494140625
,244.1790443,1.4892578125
,244.1944047,1.484375
,244.2154589,1.484375
,244.2571708,1.484375
,244.2576147,1.484375
,244.2935473,1.4794921875
,244.2965237,1.4794921875
,244.3348063,1.4794921875
,244.3558106,1.4794921875
,244.3564346,1.474609375
,244.3769093,1.474609375
,244.3955609,1.4794921875
,244.4295204,1.484375
,244.4505209,1.494140625
,244.4578443,1.4990234375
,244.4941015,1.5087890625
,244.4974072,1.513671875
,244.5378761,1.5234375
,244.538528,1.5283203125
,244.5676805,1.533203125
,244.5749409,1.5380859375
,244.6141529,1.5380859375
,244.634106,1.5380859375
,244.6376009,1.54296875
,244.6801801,1.5380859375
,244.681098,1.5380859375
,244.6959312,1.533203125
,244.7153124,1.533203125
,244.757214,1.533203125
,244.7578715,1.5283203125
,244.7783758,1.5234375
,244.8214527,1.5234375
,244.8219041,1.5185546875
,244.8381818,1.5185546875
,244.8744402,1.513671875
,244.8751673,1.5087890625
,244.9142022,1.5087890625
,244.9365146,1.50390625
,244.9373021,1.50390625
,244.9570019,1.4990234375
,244.9947606,1.494140625
,244.9993885,1.494140625
,245.0187635,1.494140625
,245.0555143,1.4892578125
,245.0611815,1.4892578125
,245.0754009,1.484375
,245.114393,1.484375
,245.1149335,1.484375
,245.1648326,1.4794921875
,245.1652789,1.4794921875
,245.1945632,1.474609375
,245.1970845,1.474609375
,245.2421759,1.474609375
,245.24261,1.474609375
,245.2641432,1.474609375
,245.2762081,1.474609375
,245.3135297,1.4794921875
,245.3164924,1.4892578125
,245.3519554,1.4990234375
,245.3724453,1.50390625
,245.3801298,1.513671875
,245.4153503,1.5185546875
,245.4157972,1.5234375
,245.4497336,1.5283203125
,245.4698895,1.533203125
,245.4780966,1.533203125
,245.527371,1.533203125
,245.5278385,1.533203125
,245.5400121,1.533203125
,245.5599147,1.533203125
,245.59457,1.5283203125
,245.614741,1.5283203125
,245.6151923,1.5283203125
,245.6536187,1.5283203125
,245.6577386,1.5234375
,245.6942834,1.5185546875
,245.6998789,1.5185546875
,245.7201979,1.513671875
,245.7543358,1.513671875
,245.7600933,1.5087890625
,245.7951816,1.50390625
,245.800944,1.50390625
,245.817637,1.50390625
,245.8389606,1.4990234375
,245.8739142,1.4990234375
,245.8768947,1.494140625
,245.9132163,1.494140625
,245.934431,1.494140625
,245.9399773,1.4892578125
,245.9603614,1.4892578125
,245.9778529,1.484375
,246.0144866,1.484375
,246.0189179,1.484375
,246.0398055,1.484375
,246.058645,1.4794921875
,246.0941158,1.4794921875
,246.1199375,1.4794921875
,246.1203985,1.484375
,246.1575506,1.494140625
,246.15831,1.4990234375
,246.1956191,1.50390625
,246.1982941,1.513671875
,246.2358339,1.5185546875
,246.2363482,1.5234375
,246.2751501,1.5283203125
,246.2948031,1.533203125
,246.3005492,1.533203125
,246.3156214,1.533203125
,246.351839,1.533203125
,246.357469,1.533203125
,246.3768321,1.5283203125
,246.4168243,1.5283203125
,246.417499,1.5283203125
,246.4521994,1.5283203125
,246.4734359,1.5234375
,246.4813139,1.5185546875
,246.5175566,1.5185546875
,246.520539,1.5185546875
,246.5372765,1.513671875
,246.5889309,1.513671875
,246.5895792,1.5087890625
,246.5980574,1.5087890625
,246.6343967,1.50390625
,246.6551052,1.50390625
,246.6608039,1.4990234375
,246.6972783,1.494140625
,246.6982876,1.494140625
,246.7178476,1.494140625
,246.7528007,1.4892578125
,246.7754919,1.4892578125
,246.7809076,1.484375
,246.8004642,1.484375
,246.8355898,1.484375
,246.8401261,1.484375
,246.8743525,1.4794921875
,246.8942723,1.4794921875
,246.8993026,1.4794921875
,246.9191971,1.4794921875
,246.9390949,1.484375
,246.9758108,1.4892578125
,246.9796321,1.494140625
,247.0161886,1.50390625
,247.0206344,1.513671875
,247.0578941,1.5234375
,247.0585027,1.5283203125
,247.0944728,1.533203125
,247.0996558,1.5380859375
,247.1224907,1.54296875
,247.1405247,1.5478515625
,247.174061,1.54296875
,247.1948355,1.54296875
,247.1998538,1.54296875
,247.2221085,1.54296875
,247.2606979,1.5380859375
,247.2611745,1.5380859375
,247.2966291,1.533203125
,247.2994248,1.533203125
,247.3379842,1.533203125
,247.3384427,1.5283203125
,247.3729794,1.5234375
,247.3937474,1.5185546875
,247.4032178,1.5185546875
,247.4397789,1.5185546875
,247.4404303,1.513671875
,247.4750874,1.5087890625
,247.4803715,1.50390625
,247.5012178,1.50390625
,247.552384,1.50390625
,247.5528364,1.4990234375
,247.5609015,1.494140625
,247.5975566,1.494140625
,247.5980555,1.494140625
,247.6351172,1.494140625
,247.6399274,1.4892578125
,247.660866,1.4892578125
,247.6823048,1.484375
,247.7189349,1.484375
,247.7245777,1.484375
,247.7601018,1.484375
,247.7607773,1.4794921875
,247.7951813,1.4794921875
,247.8025205,1.484375
,247.8203784,1.4892578125
,247.8646324,1.4990234375
,247.8651681,1.50390625
,247.8799798,1.513671875
,247.9151526,1.5234375
,247.9358464,1.533203125
,247.9432151,1.5380859375
,247.962717,1.54296875
,247.9803276,1.54296875
,248.0157356,1.5478515625
,248.0215164,1.552734375
,248.0417182,1.5478515625
,248.060979,1.5478515625
,248.0978222,1.54296875
,248.1030027,1.54296875
,248.139234,1.54296875
,248.1421431,1.5380859375
,248.1605402,1.533203125
,248.1957435,1.533203125
,248.2005124,1.5283203125
,248.2351254,1.5283203125
,248.255874,1.5234375
,248.2632695,1.5185546875
,248.3006794,1.5185546875
,248.3013374,1.513671875
,248.338802,1.513671875
,248.3392672,1.5087890625
,248.3756392,1.50390625
,248.3818413,1.50390625
,248.4026211,1.50390625
,248.4381524,1.4990234375
,248.4427676,1.494140625
,248.4796676,1.4892578125
,248.4852183,1.4892578125
,248.4993154,1.4892578125
,248.5336341,1.4892578125
,248.5548037,1.484375
,248.5627035,1.484375
,248.5833093,1.4794921875
,248.6008244,1.4794921875
,248.6392094,1.4794921875
,248.6424901,1.4794921875
,248.6788747,1.4794921875
,248.7067628,1.484375
,248.7072125,1.494140625
,248.7200176,1.4990234375
,248.7721691,1.5087890625
,248.7727736,1.513671875
,248.7829424,1.5234375
,248.8348863,1.533203125
,248.8353372,1.5380859375
,248.8433027,1.5380859375
,248.8785655,1.54296875
,248.8992042,1.54296875
,248.9026425,1.54296875
,248.9209391,1.54296875
,248.9736638,1.5380859375
,248.9742491,1.5380859375
,248.9820861,1.533203125
,249.0212368,1.533203125
,249.0241945,1.533203125
,249.0659004,1.5283203125
,249.0664237,1.5234375
,249.0814764,1.5234375
,249.1168318,1.5234375
,249.13854,1.5185546875
,249.1415669,1.513671875
,249.1917676,1.513671875
,249.1924231,1.5087890625
,249.2219063,1.5087890625
,249.2224054,1.50390625
,249.2580198,1.50390625
,249.2610572,1.4990234375
,249.29863,1.4990234375
,249.301457,1.4990234375
,249.3392864,1.494140625
,249.3433904,1.4892578125
,249.3807916,1.4892578125
,249.3837443,1.4892578125
,249.420055,1.4892578125
,249.4250027,1.484375
,249.4413201,1.484375
,249.4792362,1.4794921875
,249.480123,1.484375
,249.5150975,1.4892578125
,249.5357238,1.494140625
,249.543487,1.4990234375
,249.5832839,1.5087890625
,249.5839398,1.5185546875
,249.6275565,1.5283203125
,249.627994,1.533203125
,249.6413042,1.5380859375
,249.6778625,1.54296875
,249.6838581,1.5478515625
,249.7238225,1.5478515625
,249.7530177,1.5478515625
,249.7536906,1.5478515625
,249.7662943,1.54296875
,249.7813667,1.54296875
,249.8157377,1.54296875
,249.8365267,1.5380859375
,249.843257,1.533203125
,249.8801142,1.533203125
,249.8843195,1.533203125
,249.9215117,1.5283203125
,249.924733,1.5283203125
,249.9694443,1.5234375
,249.9700603,1.5185546875
,249.9909861,1.5185546875
,250.0031798,1.513671875
,250.0410803,1.5087890625
,250.044136,1.5087890625
,250.064999,1.50390625
,250.1025206,1.50390625
,250.1054195,1.50390625
,250.1411753,1.4990234375
,250.14662,1.494140625
,250.1627842,1.494140625
,250.1992855,1.494140625
,250.2034506,1.494140625
,250.2414696,1.4892578125
,250.242087,1.4892578125
,250.2823259,1.484375
,250.311828,1.484375
,250.3122634,1.484375
,250.326244,1.484375
,250.3435524,1.484375
,250.3636588,1.4892578125
,250.4002629,1.4990234375
,250.403377,1.5087890625
,250.4410438,1.5185546875
,250.4440546,1.5234375
,250.4839496,1.533203125
,250.4847036,1.5380859375
,250.5012015,1.5478515625
,250.5389259,1.5478515625
,250.5591621,1.552734375
,250.5622618,1.552734375
,250.5997145,1.552734375
,250.6297753,1.552734375
,250.6303492,1.5478515625
,250.6458047,1.54296875
,250.6812518,1.54296875
,250.686537,1.54296875
,250.7251734,1.5380859375
,250.726011,1.533203125
,250.7555845,1.533203125
,250.7660381,1.5283203125
,250.7867111,1.5283203125
,250.8206181,1.5234375
,250.8269811,1.5185546875
,250.8471069,1.5185546875
,250.8820259,1.513671875
,250.8868288,1.513671875
,250.9026218,1.5087890625
,250.942462,1.50390625
,250.9645358,1.4990234375
,250.9650621,1.4990234375
,250.9875099,1.4990234375
,251.0053755,1.494140625
,251.053356,1.494140625
,251.054074,1.4892578125
,251.0651923,1.4892578125
,251.0857813,1.4892578125
,251.1223474,1.4892578125
,251.123079,1.484375
,251.146745,1.484375
,251.1666936,1.4794921875
,251.2025827,1.484375
,251.2076363,1.484375
,251.2455052,1.4892578125
,251.2462861,1.494140625
,251.2648329,1.50390625
,251.3015334,1.513671875
,251.3314397,1.5234375
,251.3319156,1.5283203125
,251.3453856,1.533203125
,251.3813632,1.5380859375
,251.4027742,1.5478515625
,251.4087398,1.5478515625
,251.4434375,1.5478515625
,251.4441032,1.5478515625
,251.4878766,1.5478515625
,251.4883172,1.5478515625
,251.5094484,1.54296875
,251.5276714,1.5380859375
,251.5485747,1.5380859375
,251.5821312,1.533203125
,251.5893538,1.533203125
,251.6247203,1.5283203125
,251.6251799,1.5234375
,251.663813,1.5234375
,251.6644748,1.5185546875
,251.7018472,1.5185546875
,251.7075537,1.513671875
,251.7273237,1.5087890625
,251.7642844,1.5087890625
,251.7667856,1.50390625
,251.7849675,1.50390625
,251.8205441,1.4990234375
,251.8257635,1.4990234375
,251.8640464,1.494140625
,251.8647562,1.494140625
,251.9005554,1.494140625
,251.9214898,1.4892578125
,251.9285053,1.4892578125
,251.9649214,1.484375
,251.9655718,1.484375
,251.9994281,1.484375
,252.0227968,1.484375
,252.025933,1.4794921875
,252.0456795,1.484375
,252.0810825,1.4892578125
,252.1022968,1.4990234375
,252.1074069,1.5087890625
,252.1426177,1.513671875
,252.1635447,1.5234375
,252.1696646,1.5283203125
,252.1845912,1.5380859375
,252.2200871,1.5380859375
,252.2416768,1.54296875
,252.248484,1.54296875
,252.2696886,1.54296875
,252.3038507,1.54296875
,252.3089471,1.54296875
,252.3447572,1.5380859375
,252.3452692,1.533203125
,252.3953516,1.533203125
,252.395867,1.533203125
,252.4058268,1.5283203125
,252.4418047,1.5234375
,252.4721815,1.5234375
,252.4726664,1.5185546875
,252.4891256,1.5185546875
,252.5325901,1.513671875
,252.5331723,1.5087890625
,252.5465362,1.5087890625
,252.5833946,1.50390625
,252.5854711,1.50390625
,252.6232624,1.4990234375
,252.6277761,1.494140625
,252.6622693,1.494140625
,252.6833934,1.494140625
,252.6839717,1.4892578125
,252.7200304,1.4892578125
,252.7409556,1.484375
,252.7455964,1.484375
,252.7831569,1.484375
,252.7876519,1.484375
,252.8213435,1.4794921875
,252.8428473,1.4794921875
,252.8511464,1.474609375
,252.8703995,1.4794921875
,252.9065465,1.484375
,252.9072354,1.4892578125
,252.9550932,1.494140625
,252.9557488,1.50390625
,252.9676508,1.513671875
,253.0019512,1.5234375
,253.0229177,1.533203125
,253.0305227,1.5380859375
,253.077393,1.54296875
,253.0780146,1.5478515625
,253.0875165,1.552734375
,253.1086366,1.552734375
,253.1448282,1.552734375
,253.1479138,1.5478515625
,253.1855262,1.5478515625
,253.1911264,1.5478515625
,253.2112408,1.54296875
,253.246986,1.5380859375
,253.2474403,1.5380859375
,253.2831153,1.5380859375
,253.2889866,1.533203125
,253.3247416,1.5283203125
,253.3279684,1.5234375
,253.3509975,1.5234375
,253.3695701,1.5185546875
,253.4046915,1.5185546875
,253.4078257,1.513671875
,253.4269095,1.5087890625
,253.4717303,1.5087890625
,253.4721816,1.50390625
,253.4922966,1.50390625
,253.509651,1.4990234375
,253.5449141,1.494140625
,253.550492,1.494140625
,253.5889874,1.494140625
,253.5896446,1.4892578125
,253.6235427,1.484375
,253.643677,1.484375
,253.6499336,1.484375
,253.6690225,1.484375
,253.7035262,1.4794921875
,253.7249377,1.4794921875
,253.7308917,1.474609375
,253.7663788,1.474609375
,253.7713765,1.484375
,253.8094445,1.4892578125
,253.8101206,1.494140625
,253.8435231,1.50390625
,253.8491339,1.513671875
,253.8916809,1.5234375
,253.8923684,1.533203125
,253.9101552,1.5380859375
,253.9466651,1.54296875
,253.9496724,1.5478515625
,253.9843261,1.552734375
,253.9867949,1.552734375
,254.0218117,1.552734375
,254.04294299999998,1.5478515625
,254.0499719,1.5478515625
,254.09382829999998,1.54296875
,254.094471,1.54296875
,254.11201160000002,1.5380859375
,254.1584077,1.533203125
,254.159059,1.533203125
,254.1670529,1.533203125
,254.20157870000003,1.5283203125
,254.22293610000003,1.5234375
,254.23008420000002,1.5185546875
,254.28267979999998,1.5185546875
,254.28312419999997,1.513671875
,254.2899365,1.513671875
,254.3292765,1.5087890625
,254.3322488,1.50390625
,254.34945720000002,1.50390625
,254.3704037,1.50390625
,254.40484579999998,1.4990234375
,254.4107419,1.494140625
,254.458324,1.494140625
,254.458848,1.4892578125
,254.4731347,1.4892578125
,254.51805869999998,1.4892578125
,254.5187001,1.484375
,254.5288135,1.4794921875
,254.56518620000003,1.4794921875
,254.56914210000002,1.4794921875
,254.6140797,1.4794921875
,254.61452730000002,1.4794921875
,254.6450893,1.484375
,254.65175369999997,1.4892578125
,254.67268,1.4990234375
,254.6905044,1.5087890625
,254.7102885,1.5185546875
,254.74563510000002,1.5234375
,254.7481037,1.533203125
,254.78455810000003,1.5380859375
,254.78960469999998,1.54296875
,254.8271689,1.54296875
,254.8477964,1.54296875
,254.85231320000003,1.5478515625
,254.87106,1.5478515625
,254.8893696,1.54296875
,254.92742500000003,1.5380859375
,254.9279007,1.5380859375
,254.97494239999997,1.533203125
,254.97541139999998,1.533203125
,254.9967353,1.5283203125
,255.01085160000002,1.5283203125
,255.04777539999998,1.5234375
,255.0679435,1.5234375
,255.07391990000002,1.5185546875
,255.09082410000002,1.513671875
,255.1320106,1.5087890625
,255.1327025,1.5087890625
,255.1501707,1.5087890625
,255.1857551,1.50390625
,255.2082003,1.4990234375
,255.2122033,1.494140625
,255.25823459999998,1.494140625
,255.2586779,1.494140625
,255.2898667,1.4892578125
,255.2903915,1.4892578125
,255.3253269,1.484375
,255.34543559999997,1.484375
,255.3513504,1.484375
,255.3869312,1.484375
,255.39200169999998,1.4794921875
,255.4284766,1.4794921875
,255.4615625,1.474609375
,255.4622256,1.474609375
,255.4700681,1.474609375
,255.50745849999998,1.474609375
,255.5272751,1.4794921875
,255.53154890000002,1.484375
,255.57098969999998,1.494140625
,255.57397179999998,1.50390625
,255.5913637,1.513671875
,255.6107068,1.5234375
,255.645869,1.5283203125
,255.6667913,1.5380859375
,255.6717473,1.5478515625
,255.7085255,1.5478515625
,255.71109130000002,1.552734375
,255.74755090000002,1.552734375
,255.76810369999998,1.552734375
,255.7739282,1.552734375
,255.79385689999998,1.5478515625
,255.811124,1.54296875
,255.85042549999997,1.54296875
,255.8511128,1.54296875
,255.89477090000003,1.5380859375
,255.89543120000002,1.533203125
,255.91548419999998,1.5283203125
,255.9329136,1.5283203125
,255.97332640000002,1.5283203125
,255.97404310000002,1.5234375
,255.991764,1.5185546875
,256.0269411,1.513671875
,256.0314992,1.513671875
,256.067635,1.5087890625
,256.0726362,1.5087890625
,256.1099425,1.50390625
,256.1125961,1.4990234375
,256.1476548,1.4990234375
,256.1685479,1.494140625
,256.1690779,1.494140625
,256.2045352,1.4892578125
,256.2254004,1.484375
,256.233093,1.484375
,256.2849671,1.484375
,256.2856277,1.484375
,256.2924555,1.4794921875
,256.31062,1.474609375
,256.3473968,1.474609375
,256.3553516,1.474609375
,256.3716899,1.474609375
,256.4077579,1.4697265625
,256.4128365,1.474609375
,256.4479176,1.4794921875
,256.4690997,1.4892578125
,256.4742997,1.4990234375
,256.5110411,1.5087890625
,256.5149471,1.513671875
,256.5340904,1.5234375
,256.5695995,1.533203125
,256.5702754,1.54296875
,256.6067475,1.54296875
,256.6270384,1.5478515625
,256.6326194,1.552734375
,256.6698823,1.552734375
,256.675814,1.552734375
,256.6959382,1.5478515625
,256.7144598,1.54296875
,256.7318512,1.54296875
,256.7669824,1.54296875
,256.7872609,1.5380859375
,256.7955247,1.533203125
,256.8149278,1.5283203125
,256.8508537,1.5283203125
,256.8537964,1.5283203125
,256.8710133,1.5234375
,256.9076249,1.5185546875
,256.9135121,1.513671875
,256.9338145,1.513671875
,256.9707831,1.5087890625
,256.973776,1.5087890625
,257.0168288,1.50390625
,257.0174838,1.4990234375
,257.0467365,1.4990234375
,257.0538682,1.494140625
,257.0776308,1.494140625
,257.0948205,1.4892578125
,257.130794,1.484375
,257.1315199,1.484375
,257.1717376,1.484375
,257.2028352,1.484375
,257.2032998,1.4794921875
,257.2165082,1.4794921875
,257.2515053,1.4794921875
,257.252286,1.4794921875
,257.2888762,1.474609375
,257.291892,1.474609375
,257.3276624,1.474609375
,257.3485156,1.484375
,257.3570272,1.4892578125
,257.3765009,1.4990234375
,257.3947191,1.5087890625
,257.4308823,1.513671875
,257.4520724,1.5234375
,257.4526612,1.533203125
,257.5004581,1.5380859375
,257.5008926,1.5380859375
,257.5213184,1.54296875
,257.536606,1.54296875
,257.5565445,1.54296875
,257.5767571,1.54296875
,257.5930701,1.5380859375
,257.6281072,1.5380859375
,257.6330698,1.5380859375
,257.6692393,1.533203125
,257.6738744,1.533203125
,257.7196364,1.5283203125
,257.7203177,1.5234375
,257.7351813,1.5234375
,257.7810694,1.5234375
,257.7817518,1.5185546875
,257.7963221,1.513671875
,257.8133903,1.5087890625
,257.8498935,1.5087890625
,257.8524366,1.50390625
,257.8870442,1.50390625
,257.9074775,1.4990234375
,257.9170642,1.494140625
,257.9520963,1.494140625
,257.9577027,1.494140625
,257.9945061,1.4892578125
,257.9951612,1.484375
,258.0154674,1.484375
,258.0496453,1.484375
,258.0555285,1.484375
,258.0896135,1.4794921875
,258.1097886,1.474609375
,258.1154494,1.474609375
,258.138241,1.474609375
,258.1532409,1.474609375
,258.1890038,1.474609375
,258.1943199,1.4697265625
,258.2329269,1.4697265625
,258.2333857,1.474609375
,258.2712676,1.484375
,258.274183,1.494140625
,258.3092702,1.4990234375
,258.3289657,1.5087890625
,258.3337565,1.5185546875
,258.3681026,1.5283203125
,258.3885905,1.533203125
,258.3973532,1.5380859375
,258.4162064,1.54296875
,258.4508748,1.5478515625
,258.4718063,1.552734375
,258.4775556,1.5478515625
,258.4970903,1.5478515625
,258.53549,1.54296875
,258.5359392,1.54296875
,258.5714248,1.54296875
,258.5743734,1.5380859375
,258.595758,1.533203125
,258.6315696,1.533203125
,258.6370427,1.533203125
,258.688705,1.5283203125
,258.6891701,1.5234375
,258.6982179,1.5185546875
,258.7141357,1.5185546875
,258.7522941,1.513671875
,258.7552647,1.513671875
,258.7923642,1.5087890625
,258.8127181,1.50390625
,258.8184796,1.50390625
,258.8592447,1.4990234375
,258.8599805,1.4990234375
,258.8748273,1.494140625
,258.9085052,1.4892578125
,258.9307202,1.4892578125
,258.9374476,1.4892578125
,258.9838938,1.484375
,258.9843245,1.484375
,258.9972172,1.4794921875
,259.0187534,1.4794921875
,259.0627705,1.4794921875
,259.0634222,1.4794921875
,259.0745719,1.474609375
,259.1245334,1.474609375
,259.1249809,1.474609375
,259.1367693,1.474609375
,259.1726973,1.474609375
,259.177365,1.4794921875
,259.2133752,1.484375
,259.219162,1.4990234375
,259.2382458,1.5087890625
,259.2797224,1.5185546875
,259.2803781,1.5234375
,259.3010387,1.5283203125
,259.3182818,1.5380859375
,259.3676324,1.54296875
,259.3682895,1.5478515625
,259.3782997,1.5478515625
,259.4142723,1.5478515625
,259.4191587,1.5478515625
,259.4354787,1.5478515625
,259.455274,1.54296875
,259.4932085,1.5380859375
,259.5239398,1.5380859375
,259.5244843,1.533203125
,259.5366398,1.533203125
,259.5733966,1.533203125
,259.5782223,1.5283203125
,259.6004399,1.5234375
,259.613743,1.5234375
,259.6489916,1.5185546875
,259.6695363,1.5185546875
,259.6771666,1.513671875
,259.7127062,1.5087890625
,259.7328954,1.5087890625
,259.7377756,1.50390625
,259.7728267,1.50390625
,259.8024497,1.4990234375
,259.802898,1.494140625
,259.8157496,1.494140625
,259.8538711,1.494140625
,259.856941,1.4892578125
,259.8918651,1.4892578125
,259.9132477,1.484375
,259.9184079,1.484375
,259.9535298,1.484375
,259.9742485,1.484375
,259.9805746,1.4794921875
,259.9959738,1.4794921875
,260.0371594,1.4794921875
,260.0378401,1.4794921875
,260.0725012,1.484375
,260.0937264,1.484375
,260.0986942,1.494140625
,260.1353666,1.50390625
,260.1394477,1.513671875
,260.1569248,1.5185546875
,260.1930753,1.5283203125
,260.1964918,1.533203125
,260.2341002,1.5380859375
,260.2370572,1.54296875
,260.2736726,1.54296875
,260.2794571,1.54296875
,260.3155608,1.54296875
,260.3189169,1.54296875
,260.3351814,1.5380859375
,260.3815961,1.5380859375
,260.3821225,1.533203125
,260.4115733,1.533203125
,260.4199507,1.5283203125
,260.439609,1.5283203125
,260.4774627,1.5283203125
,260.4781945,1.5234375
,260.5147848,1.5185546875
,260.5176782,1.5185546875
,260.5535773,1.513671875
,260.5835796,1.513671875
,260.5842443,1.5087890625
,260.598505,1.50390625
,260.634834,1.50390625
,260.6405933,1.50390625
,260.6774295,1.4990234375
,260.6821028,1.494140625
,260.7186462,1.494140625
,260.7190984,1.4892578125
,260.7389933,1.4892578125
,260.7583399,1.4892578125
,260.8036106,1.484375
,260.8041238,1.484375
,260.8357598,1.484375
,260.8426685,1.484375
,260.8789722,1.4794921875
,260.8797236,1.4794921875
,260.8991558,1.474609375
,260.9198606,1.474609375
,260.9546039,1.4794921875
,260.96089,1.4794921875
,260.9799607,1.484375
,261.0166539,1.494140625
,261.0196903,1.50390625
,261.0565008,1.513671875
,261.0569521,1.5234375
,261.0889466,1.5283203125
,261.1005993,1.533203125
,261.1209253,1.54296875
,261.1376745,1.5478515625
,261.1710729,1.5478515625
,261.1920759,1.5478515625
,261.2016531,1.5478515625
,261.2390634,1.5478515625
,261.2397376,1.5478515625
,261.2589792,1.54296875
,261.2790159,1.5380859375
,261.3144507,1.5380859375
,261.319738,1.5380859375
,261.3679718,1.533203125
,261.3686576,1.5283203125
,261.3821635,1.5283203125
,261.4019527,1.5234375
,261.4369819,1.5234375
,261.4374597,1.5185546875
,261.4720758,1.513671875
,261.4925057,1.5087890625
,261.4998167,1.5087890625
,261.5366539,1.5087890625
,261.5388324,1.50390625
,261.5743628,1.4990234375
,261.5954243,1.494140625
,261.603176,1.494140625
,261.6197072,1.494140625
,261.640265,1.4892578125
,261.6600802,1.4892578125
,261.6794512,1.484375
,261.7138921,1.484375
,261.7342663,1.484375
,261.7422523,1.484375
,261.777498,1.4794921875
,261.7825522,1.4794921875
,261.7984703,1.474609375
,261.8498673,1.4794921875
,261.8506392,1.4794921875
,261.8598933,1.4794921875
,261.8959032,1.484375
,261.9156112,1.494140625
,261.921472,1.50390625
,261.9584232,1.513671875
,261.9588664,1.5185546875
,261.9940951,1.5283203125
,261.9992686,1.533203125
,262.0344929,1.54296875
,262.0402876,1.5478515625
,262.0810473,1.5478515625
,262.0814908,1.5478515625
,262.1152324,1.5478515625
,262.1361414,1.5478515625
,262.1419523,1.5478515625
,262.1798375,1.54296875
,262.1804412,1.5380859375
,262.2165646,1.5380859375
,262.2216806,1.5380859375
,262.2421264,1.533203125
,262.2608652,1.5283203125
,262.2980617,1.5283203125
,262.3026741,1.5234375
,262.349241,1.5234375
,262.3498273,1.5185546875
,262.3608013,1.513671875
,262.4103934,1.513671875
,262.411084,1.513671875
,262.4210975,1.5087890625
,262.4555797,1.5087890625
,262.4760483,1.50390625
,262.4833464,1.4990234375
,262.5203843,1.4990234375
,262.5210435,1.4990234375
,262.54192,1.494140625
,262.5607767,1.494140625
,262.5824096,1.4892578125
,262.6179736,1.4892578125
,262.6211097,1.4892578125
,262.6599095,1.484375
,262.6632485,1.484375
,262.6791408,1.4794921875
,262.7232626,1.484375
,262.723763,1.484375
,262.7526337,1.4892578125
,262.7610334,1.4990234375
,262.7811265,1.50390625
,262.8197003,1.513671875
,262.8204592,1.5234375
,262.8570845,1.5283203125
,262.8789876,1.533203125
,262.8825946,1.5380859375
,262.899572,1.54296875
,262.9447099,1.5478515625
,262.9451896,1.5478515625
,262.9649894,1.54296875
,262.9822053,1.54296875
,263.0233133,1.54296875
,263.0239679,1.5380859375
,263.0440042,1.5380859375
,263.0842518,1.533203125
,263.0847737,1.533203125
,263.1324346,1.5283203125
,263.1330972,1.5283203125
,263.1421454,1.5234375
,263.1800667,1.5185546875
,263.1831088,1.5185546875
,263.2189812,1.513671875
,263.2240235,1.513671875
,263.2409349,1.5087890625
,263.2607974,1.50390625
,263.2815299,1.50390625
,263.3155092,1.50390625
,263.3358276,1.4990234375
,263.3412725,1.494140625
,263.375942,1.494140625
,263.3978445,1.4892578125
,263.4053406,1.4892578125
,263.4198888,1.4892578125
,263.4562204,1.484375
,263.4617473,1.4794921875
,263.4950272,1.4794921875
,263.5161954,1.4794921875
,263.5217492,1.4794921875
,263.5587034,1.4794921875
,263.5818003,1.474609375
,263.5856351,1.474609375
,263.606623,1.4794921875
,263.6221883,1.4892578125
,263.6563884,1.494140625
,263.6770375,1.50390625
,263.6827152,1.513671875
,263.7221782,1.5234375
,263.7226516,1.533203125
,263.7584578,1.5380859375
,263.7787249,1.54296875
,263.7858714,1.5478515625
,263.8027753,1.552734375
,263.8225313,1.552734375
,263.8571181,1.552734375
,263.8617536,1.5478515625
,263.9098124,1.5478515625
,263.9102475,1.5478515625
,263.9312384,1.54296875
,263.9461051,1.5380859375
,263.9629709,1.5380859375
,263.9823593,1.533203125
,264.018127,1.533203125
,264.0238211,1.5283203125
,264.0435085,1.5234375
,264.0780757,1.5234375
,264.1010424,1.5185546875
,264.1059053,1.5185546875
,264.1239991,1.513671875
,264.1411768,1.5087890625
,264.1659359,1.50390625
,264.1838103,1.50390625
,264.2187383,1.50390625
,264.2234245,1.4990234375
,264.2584366,1.494140625
,264.2796212,1.494140625
,264.2854289,1.4892578125
,264.3044027,1.4892578125
,264.3478529,1.4892578125
,264.3482937,1.484375
,264.3634211,1.4794921875
,264.3845032,1.4794921875
,264.4041921,1.4794921875
,264.4396335,1.4794921875
,264.4451453,1.474609375
,264.4901633,1.474609375
,264.4908221,1.4794921875
,264.5047366,1.484375
,264.5521127,1.4892578125
,264.5528859,1.4990234375
,264.5645904,1.5087890625
,264.6143409,1.5185546875
,264.6147943,1.5283203125
,264.6245206,1.533203125
,264.6602282,1.5380859375
,264.6812544,1.54296875
,264.6867192,1.5478515625
,264.7033314,1.5478515625
,264.7386079,1.5478515625
,264.7444382,1.54296875
,264.7642703,1.54296875
,264.7991758,1.54296875
,264.8041944,1.5380859375
,264.8272308,1.5380859375
,264.8652418,1.533203125
,264.8661194,1.5283203125
,264.8894773,1.5283203125
,264.9051855,1.5234375
,264.9236285,1.5234375
,264.962286,1.5185546875
,264.9630201,1.513671875
,265.0024723,1.513671875
,265.0238646,1.513671875
,265.0270661,1.5087890625
,265.0667697,1.50390625
,265.0672533,1.50390625
,265.082532,1.4990234375
,265.1201721,1.4990234375
,265.1231223,1.494140625
,265.1568818,1.494140625
,265.1780866,1.4892578125
,265.1856551,1.4892578125
,265.2237468,1.4892578125
,265.2245264,1.484375
,265.2593936,1.484375
,265.2625905,1.484375
,265.3022695,1.484375
,265.3303566,1.484375
,265.3308854,1.4794921875
,265.3469193,1.4794921875
,265.3814225,1.484375
,265.3864085,1.494140625
,265.4221968,1.50390625
,265.4228438,1.513671875
,265.4700697,1.5185546875
,265.470701,1.5283203125
,265.4915549,1.533203125
,265.506732,1.54296875
,265.5275147,1.54296875
,265.5477832,1.54296875
,265.5842257,1.5478515625
,265.5850248,1.5478515625
,265.6216049,1.54296875
,265.6273352,1.5380859375
,265.6442258,1.5380859375
,265.6891064,1.533203125
,265.6897924,1.533203125
,265.7047323,1.533203125
,265.741196,1.5283203125
,265.7676433,1.5234375
,265.7682789,1.5234375
,265.8057828,1.5234375
,265.8063845,1.5185546875
,265.8257522,1.513671875
,265.8462702,1.5087890625
,265.865715,1.5087890625
,265.886044,1.50390625
,265.9217711,1.50390625
,265.9421347,1.4990234375
,265.9487306,1.494140625
,265.9685395,1.494140625
,265.9853531,1.494140625
,266.0310596,1.4892578125
,266.0317211,1.4892578125
,266.0462978,1.484375
,266.083295,1.484375
,266.0855696,1.484375
,266.1215425,1.484375
,266.155423,1.4794921875
,266.1558569,1.474609375
,266.1657678,1.474609375
,266.1860256,1.474609375
,266.221704,1.474609375
,266.2258875,1.474609375
,266.2625314,1.4794921875
,266.268443,1.4892578125
,266.2901802,1.4990234375
,266.3075887,1.5087890625
,266.342598,1.5185546875
,266.3727942,1.5234375
,266.3734318,1.533203125
,266.3854769,1.54296875
,266.4210404,1.54296875
,266.4416975,1.5478515625
,266.4473432,1.5478515625
,266.4838606,1.5478515625
,266.4885375,1.5478515625
,266.5318283,1.5478515625
,266.5325026,1.54296875
,266.5449402,1.5380859375
,266.5835468,1.5380859375
,266.5842567,1.5380859375
,266.6237264,1.533203125
,266.6426246,1.5283203125
,266.6480181,1.5234375
,266.6852531,1.5234375
,266.6882359,1.5234375
,266.704174,1.5185546875
,266.7490377,1.513671875
,266.7495077,1.5087890625
,266.7690113,1.5087890625
,266.7884585,1.50390625
,266.8258343,1.50390625
,266.8264196,1.4990234375
,266.8636475,1.494140625
,266.8640933,1.494140625
,266.8996822,1.494140625
,266.9202586,1.4892578125
,266.9261288,1.484375
,266.948856,1.484375
,266.9687087,1.484375
,267.0024511,1.484375
,267.008039,1.4794921875
,267.0288987,1.474609375
,267.0796319,1.474609375
,267.0801068,1.474609375
,267.0858796,1.474609375
,267.124911,1.474609375
,267.1277563,1.474609375
,267.1722334,1.4794921875
,267.1726942,1.4892578125
,267.1875709,1.4990234375
,267.2212757,1.5087890625
,267.2427538,1.513671875
,267.2496559,1.5234375
,267.2669191,1.533203125
,267.3032662,1.5380859375
,267.3053915,1.54296875
,267.3404205,1.54296875
,267.3610316,1.54296875
,267.368966,1.5478515625
,267.4037028,1.5478515625
,267.4091887,1.54296875
,267.4259672,1.5380859375
,267.4684059,1.5380859375
,267.4689037,1.5380859375
,267.4881872,1.533203125
,267.509857,1.533203125
,267.5291688,1.5283203125
,267.5793548,1.5234375
,267.5800495,1.5234375
,267.5893317,1.5185546875
,267.6063078,1.5185546875
,267.6432007,1.513671875
,267.6478271,1.5087890625
,267.6830028,1.5087890625
,267.6905631,1.5087890625
,267.7088004,1.50390625
,267.7455717,1.4990234375
,267.7490164,1.4990234375
,267.7871973,1.494140625
,267.7907506,1.494140625
,267.8073599,1.4892578125
,267.842396,1.4892578125
,267.8490919,1.484375
,267.8953425,1.484375
,267.8960095,1.484375
,267.909514,1.4794921875
,267.9303786,1.4794921875
,267.9513482,1.4794921875
,267.9883445,1.4794921875
,267.988843,1.4794921875
,268.0083375,1.4794921875
,268.0282344,1.484375
,268.0640052,1.494140625
,268.0695342,1.50390625
,268.0899899,1.513671875
,268.1248982,1.5234375
,268.1596753,1.5283203125
,268.1601553,1.533203125
,268.1683855,1.54296875
,268.2198621,1.54296875
,268.2203348,1.5478515625
,268.2276069,1.5478515625
,268.2621403,1.5478515625
,268.2822368,1.5478515625
,268.2902184,1.54296875
,268.3314687,1.5380859375
,268.332132,1.533203125
,268.3461378,1.533203125
,268.3836838,1.533203125
,268.3891749,1.5283203125
,268.4242401,1.5234375
,268.4298539,1.5234375
,268.4667144,1.5185546875
,268.4704515,1.5185546875
,268.5062232,1.513671875
,268.5106339,1.5087890625
,268.5492176,1.50390625
,268.5496585,1.50390625
,268.5703472,1.50390625
,268.607695,1.4990234375
,268.6081786,1.494140625
,268.6441152,1.494140625
,268.6649745,1.494140625
,268.6721014,1.4892578125
,268.7078597,1.4892578125
,268.7083216,1.484375
,268.7433219,1.484375
,268.7638542,1.484375
,268.7697655,1.484375
,268.8044531,1.4794921875
,268.8251168,1.4794921875
,268.8328104,1.474609375
,268.8687215,1.474609375
,268.8712448,1.474609375
,268.889862,1.4794921875
,268.9100027,1.4794921875
,268.9475431,1.4892578125
,268.9482042,1.4990234375
,268.9896293,1.5087890625
,268.9900659,1.5185546875
,269.0112895,1.5234375
,269.0484334,1.533203125
,269.0490925,1.5380859375
,269.0991797,1.5478515625
,269.0997094,1.5478515625
,269.1099452,1.5478515625
,269.1456946,1.5478515625
,269.1505506,1.5478515625
,269.1866611,1.5478515625
,269.1929095,1.54296875
,269.2116891,1.5380859375
,269.2474711,1.5380859375
,269.2530846,1.5380859375
,269.2699176,1.533203125
,269.3046255,1.5283203125
,269.3096632,1.5283203125
,269.3465351,1.5234375
,269.3517723,1.5234375
,269.3865154,1.5185546875
,269.3924584,1.513671875
,269.4286955,1.5087890625
,269.4291343,1.5087890625
,269.4669481,1.50390625
,269.4698932,1.50390625
,269.5058918,1.4990234375
,269.5110223,1.494140625
,269.5492973,1.494140625
,269.5499363,1.494140625
,269.58446,1.4892578125
,269.6059036,1.4892578125
,269.6116805,1.484375
,269.6302122,1.484375
,269.6677008,1.484375
,269.6707853,1.484375
,269.6915582,1.4794921875
,269.7282264,1.474609375
,269.7348514,1.474609375
,269.7541677,1.474609375
,269.7684374,1.474609375
,269.802995,1.474609375
,269.8244015,1.4794921875
,269.8302676,1.484375
,269.8690023,1.4990234375
,269.869475,1.5087890625
,269.9049145,1.513671875
,269.926639,1.5234375
,269.9327426,1.5283203125
,269.9700365,1.5380859375
,269.9758545,1.54296875
,269.9901131,1.54296875
,270.0368812,1.54296875
,270.037497,1.54296875
,270.0494821,1.54296875
,270.0865624,1.54296875
,270.091793,1.5380859375
,270.1276463,1.533203125
,270.1341684,1.533203125
,270.1755343,1.533203125
,270.17602,1.5283203125
,270.189867,1.5283203125
,270.2287503,1.5234375
,270.229454,1.5234375
,270.2663245,1.5185546875
,270.2863285,1.5185546875
,270.2919182,1.513671875
,270.3308793,1.5087890625
,270.3315493,1.5087890625
,270.3680449,1.50390625
,270.3685341,1.50390625
,270.4055103,1.4990234375
,270.4252315,1.494140625
,270.431732,1.494140625
,270.4715161,1.494140625
,270.4719746,1.4892578125
,270.5200187,1.4892578125
,270.5207122,1.484375
,270.5318961,1.484375
,270.5663589,1.484375
,270.5725308,1.4794921875
,270.5923443,1.4794921875
,270.6286632,1.474609375
,270.633508,1.474609375
,270.6755274,1.4794921875
,270.6760087,1.484375
,270.7122062,1.4892578125
,270.7127992,1.4990234375
,270.7335221,1.5087890625
,270.7531701,1.5185546875
,270.7722672,1.5234375
,270.807817,1.5283203125
,270.827601,1.533203125
,270.8339533,1.5380859375
,270.8730788,1.54296875
,270.8737636,1.54296875
,270.9090203,1.5380859375
,270.9129137,1.5380859375
,270.9322713,1.5380859375
,270.9689653,1.533203125
,270.9733969,1.533203125
,271.010916,1.5283203125
,271.0143446,1.5234375
,271.0350929,1.5234375
,271.0542559,1.5234375
,271.0719905,1.5185546875
,271.10948,1.513671875
,271.1124612,1.513671875
,271.1494629,1.5087890625
,271.1524022,1.5087890625
,271.1904664,1.50390625
,271.196175,1.4990234375
,271.2173225,1.4990234375
,271.2309309,1.4990234375
,271.2564889,1.494140625
,271.2712523,1.4892578125
,271.3076912,1.4892578125
,271.3138595,1.484375
,271.3610189,1.484375
,271.3614554,1.484375
,271.3755812,1.4794921875
,271.3956317,1.4794921875
,271.4321273,1.4794921875
,271.4350289,1.4794921875
,271.4510768,1.474609375
,271.4895608,1.474609375
,271.4925528,1.4697265625
,271.5305889,1.474609375
,271.5336149,1.4794921875
,271.5550535,1.4892578125
,271.5957636,1.4990234375
,271.5962082,1.5087890625
,271.6140538,1.5185546875
,271.6315786,1.5283203125
,271.6664711,1.533203125
,271.6867448,1.5380859375
,271.6939313,1.54296875
,271.7299634,1.5478515625
,271.7507968,1.552734375
,271.7563193,1.552734375
,271.7916946,1.5478515625
,271.7924806,1.5478515625
,271.8279241,1.54296875
,271.8326038,1.54296875
,271.8685367,1.5380859375
,271.8743283,1.533203125
,271.9127001,1.533203125
,271.9133728,1.5283203125
,271.9505903,1.5283203125
,271.9701269,1.5234375
,271.978269,1.5185546875
,271.9933759,1.513671875
,272.0291287,1.513671875
,272.0349331,1.513671875
,272.0555557,1.5087890625
,272.073508,1.50390625
,272.1079013,1.4990234375
,272.1293319,1.4990234375
,272.1370634,1.4990234375
,272.1569548,1.494140625
,272.173639,1.4892578125
,272.1943062,1.4892578125
,272.2146669,1.4892578125
,272.2519398,1.4892578125
,272.2550164,1.484375
,272.2897806,1.4794921875
,272.3099222,1.4794921875
,272.3176969,1.4794921875
,272.333335,1.4794921875
,272.3685914,1.474609375
,272.374358,1.474609375
,272.4208589,1.474609375
,272.4213497,1.4794921875
,272.4363476,1.484375
,272.4813748,1.494140625
,272.4818249,1.50390625
,272.4976527,1.513671875
,272.5144544,1.5234375
,272.5599645,1.533203125
,272.5606476,1.5380859375
,272.5757967,1.54296875
,272.6223321,1.5478515625
,272.6229008,1.552734375
,272.6374363,1.552734375
,272.6724681,1.552734375
,272.6754776,1.5478515625
,272.6980343,1.54296875
,272.7181842,1.54296875
,272.7354276,1.54296875
,272.7569509,1.5380859375
,272.7739632,1.533203125
,272.8112324,1.5283203125
,272.8171144,1.5283203125
,272.8379637,1.5283203125
,272.8742545,1.5234375
,272.8793304,1.5185546875
,272.8936001,1.513671875
,272.9301911,1.513671875
,272.9330616,1.5087890625
,272.9696052,1.5087890625
,272.974726,1.50390625
,273.0161393,1.4990234375
,273.0466457,1.4990234375
,273.0472628,1.4990234375
,273.0577589,1.494140625
,273.0759992,1.4892578125
,273.1099638,1.4892578125
,273.1136794,1.4892578125
,273.1506828,1.484375
,273.1566373,1.484375
,273.2055092,1.4794921875
,273.2059545,1.4794921875
,273.2364708,1.4794921875
,273.2369382,1.4794921875
,273.2530443,1.474609375
,273.2874693,1.474609375
,273.3069199,1.4794921875
,273.3163457,1.4892578125
,273.3366674,1.4990234375
,273.3746093,1.5087890625
,273.377849,1.513671875
,273.4135929,1.5234375
,273.4191004,1.533203125
,273.4695857,1.5380859375
,273.4701411,1.5380859375
,273.4753396,1.5380859375
,273.516429,1.54296875
,273.5170946,1.54296875
,273.563808,1.54296875
,273.5643507,1.5380859375
,273.5783236,1.533203125
,273.6162616,1.533203125
,273.6169296,1.533203125
,273.651962,1.5283203125
,273.6551667,1.5283203125
,273.7021987,1.5234375
,273.7026836,1.5234375
,273.7235226,1.5234375
,273.7380632,1.5185546875
,273.7746225,1.513671875
,273.7769838,1.5087890625
,273.8136951,1.5087890625
,273.8141575,1.5087890625
,273.8499476,1.50390625
,273.8719819,1.4990234375
,273.8766062,1.494140625
,273.9129669,1.494140625
,273.9322117,1.494140625
,273.9389578,1.4892578125
,273.9601856,1.4892578125
,273.9760483,1.484375
,273.9946449,1.484375
,274.0276779,1.484375
,274.0486174,1.4794921875
,274.0581335,1.4794921875
,274.0944326,1.474609375
,274.0974658,1.4794921875
,274.1340976,1.484375
,274.154865,1.4892578125
,274.1606172,1.4990234375
,274.1764404,1.50390625
,274.2187396,1.5185546875
,274.2193972,1.5283203125
,274.2367501,1.533203125
,274.2731764,1.5380859375
,274.2783216,1.54296875
,274.3173589,1.5478515625
,274.3180429,1.5478515625
,274.3559295,1.5478515625
,274.3563784,1.54296875
,274.392793,1.54296875
,274.3984286,1.54296875
,274.4183107,1.5380859375
,274.4690479,1.533203125
,274.469493,1.533203125
,274.4784646,1.5283203125
,274.5152486,1.5283203125
,274.515944,1.5283203125
,274.5367081,1.5234375
,274.57199,1.5185546875
,274.5771131,1.513671875
,274.598179,1.513671875
,274.6352793,1.513671875
,274.6383447,1.5087890625
,274.6862404,1.50390625
,274.686924,1.4990234375
,274.6960247,1.4990234375
,274.7323233,1.4990234375
,274.7378152,1.494140625
,274.7574263,1.4892578125
,274.7924168,1.4892578125
,274.8136108,1.4892578125
,274.819127,1.4892578125
,274.8562916,1.484375
,274.8592327,1.4794921875
,274.904499,1.4794921875
,274.9050958,1.4794921875
,274.9245228,1.4794921875
,274.9369881,1.4794921875
,274.9740241,1.4794921875
,274.9796836,1.4892578125
,275.0157263,1.4990234375
,275.0183362,1.5087890625
,275.054795,1.513671875
,275.0748764,1.5234375
,275.0755619,1.533203125
,275.1132039,1.5380859375
,275.1182559,1.54296875
,275.1539017,1.5478515625
,275.1599189,1.5478515625
,275.1987272,1.552734375
,275.1993559,1.552734375
,275.2339658,1.5478515625
,275.2553726,1.54296875
,275.2586807,1.54296875
,275.2964109,1.5380859375
,275.2970621,1.5380859375
,275.3329037,1.533203125
,275.3579384,1.533203125
,275.358582,1.5283203125
,275.3978429,1.5234375
,275.400975,1.5234375
,275.4180405,1.5185546875
,275.4376638,1.513671875
,275.4586963,1.5087890625
,275.494778,1.5087890625
,275.4970709,1.5087890625
,275.534843,1.50390625
,275.5395283,1.4990234375
,275.5768803,1.494140625
,275.5824391,1.494140625
,275.6010578,1.494140625
,275.6552091,1.4892578125
,275.6556604,1.484375
,275.6583029,1.484375
,275.6949737,1.484375
,275.6979508,1.484375
,275.7354022,1.4794921875
,275.762474,1.474609375
,275.7631499,1.474609375
,275.7965762,1.474609375
,275.7972305,1.4794921875
,275.8421281,1.484375
,275.842786,1.4892578125
,275.873279,1.4990234375
,275.8807243,1.5087890625
,275.9177938,1.5185546875
,275.9185615,1.5234375
,275.9669179,1.5283203125
,275.9675679,1.533203125
,275.9971177,1.5380859375
,275.9981618,1.54296875
,276.045132,1.54296875
,276.0457952,1.54296875
,276.0602194,1.54296875
,276.0811073,1.54296875
,276.1237237,1.5380859375
,276.1242495,1.5380859375
,276.1436648,1.533203125
,276.1581676,1.5283203125
,276.1939314,1.5283203125
,276.2013154,1.5283203125
,276.2210329,1.5234375
,276.2552121,1.5185546875
,276.2616049,1.5185546875
,276.3132771,1.513671875
,276.3140328,1.513671875
,276.3221053,1.5087890625
,276.3594022,1.50390625
,276.3600937,1.50390625
,276.3788209,1.4990234375
,276.4210786,1.4990234375
,276.4217056,1.494140625
,276.4423472,1.494140625
,276.4615434,1.4892578125
,276.4968467,1.4892578125
,276.5299471,1.4892578125
,276.5303997,1.484375
,276.5384224,1.4794921875
,276.576575,1.4794921875
,276.5790173,1.4794921875
,276.618034,1.4794921875
,276.6220838,1.4794921875
,276.6424995,1.484375
,276.6640237,1.494140625
,276.6814858,1.50390625
,276.6998869,1.513671875
,276.7339764,1.5185546875
,276.7395931,1.5234375
,276.7781399,1.533203125
,276.7788051,1.5380859375
,276.8169365,1.54296875
,276.8378878,1.54296875
,276.8425658,1.54296875
,276.8629717,1.54296875
,276.879595,1.54296875
,276.9178825,1.5380859375
,276.9209307,1.5380859375
,276.9646282,1.533203125
,276.9652038,1.533203125
,276.9816099,1.5283203125
,277.0220755,1.5283203125
,277.0231251,1.5234375
,277.0455566,1.5185546875
,277.0895453,1.5185546875
,277.0900715,1.513671875
,277.1002652,1.513671875
,277.1369483,1.5087890625
,277.1401167,1.50390625
,277.1771847,1.50390625
,277.1985583,1.4990234375
,277.200712,1.494140625
,277.2357137,1.4892578125
,277.2572137,1.4892578125
,277.2578813,1.4892578125
,277.2950711,1.4892578125
,277.3002118,1.484375
,277.3380464,1.484375
,277.3422017,1.4794921875
,277.3884812,1.4794921875
,277.3889272,1.4794921875
,277.4031549,1.4794921875
,277.4188342,1.474609375
,277.4660473,1.474609375
,277.4666628,1.4794921875
,277.4820633,1.4892578125
,277.5196031,1.494140625
,277.5233903,1.50390625
,277.5596273,1.513671875
,277.5625369,1.5234375
,277.6058458,1.533203125
,277.6062981,1.5380859375
,277.6203199,1.54296875
,277.6414895,1.5478515625
,277.6619939,1.552734375
,277.6994661,1.552734375
,277.7024983,1.552734375
,277.7369565,1.5478515625
,277.7574831,1.5478515625
,277.7634518,1.54296875
,277.7850085,1.54296875
,277.8204183,1.5380859375
,277.8211272,1.533203125
,277.8422314,1.533203125
,277.8609461,1.5283203125
,277.8981151,1.5283203125
,277.9031163,1.5234375
,277.9401265,1.5185546875
,277.9431754,1.513671875
,277.9788309,1.513671875
,277.9816681,1.5087890625
,278.0171882,1.50390625
,278.0205272,1.4990234375
,278.0581188,1.4990234375
,278.0791443,1.4990234375
,278.0832192,1.494140625
,278.1211601,1.4892578125
,278.1216169,1.4892578125
,278.1662687,1.484375
,278.1670605,1.484375
,278.1866661,1.484375
,278.2024885,1.4794921875
,278.2465359,1.474609375
,278.247175,1.474609375
,278.2646549,1.474609375
,278.3076422,1.474609375
,278.3083225,1.4697265625
,278.3218069,1.4697265625
,278.3586105,1.4794921875
,278.3616142,1.4892578125
,278.4000924,1.4990234375
,278.402707,1.5087890625
,278.4474953,1.513671875
,278.4479514,1.5234375
,278.464773,1.533203125
,278.5105297,1.5380859375
,278.5112062,1.54296875
,278.5260083,1.54296875
,278.5410834,1.54296875
,278.5763572,1.5478515625
,278.5967254,1.5478515625
,278.602684,1.54296875
,278.6499714,1.5380859375
,278.6504243,1.5380859375
,278.6709749,1.533203125
,278.6856249,1.533203125
,278.7038866,1.5283203125
,278.7234076,1.5234375
,278.7435409,1.5234375
,278.7898211,1.5185546875
,278.7903528,1.5185546875
,278.8046879,1.513671875
,278.8253134,1.5087890625
,278.8671562,1.5087890625
,278.867643,1.50390625
,278.8873767,1.50390625
,278.9012264,1.4990234375
,278.9444337,1.494140625
,278.944896,1.494140625
,278.9661102,1.494140625
,278.9844762,1.4892578125
,279.0182482,1.484375
,279.0401558,1.484375
,279.0407422,1.4794921875
,279.0858301,1.4794921875
,279.1169631,1.4794921875
,279.117836,1.474609375
,279.1237529,1.474609375
,279.1616195,1.474609375
,279.1623692,1.474609375
,279.1984748,1.4794921875
,279.2196491,1.4794921875
,279.2256875,1.4892578125
,279.2587176,1.4990234375
,279.2811772,1.5087890625
,279.2820548,1.5185546875
,279.3183017,1.5234375
,279.3392663,1.5283203125
,279.3463445,1.533203125
,279.38066,1.5380859375
,279.3866595,1.54296875
,279.4232558,1.5380859375
,279.4283911,1.5380859375
,279.445784,1.5380859375
,279.4650711,1.5380859375
,279.5112278,1.533203125
,279.5117708,1.5283203125
,279.5258732,1.5283203125
,279.5607022,1.5283203125
,279.566424,1.5234375
,279.6027833,1.5234375
,279.6032674,1.5185546875
,279.6401982,1.513671875
,279.6431322,1.513671875
,279.6820174,1.513671875
,279.6824622,1.5087890625
,279.7197004,1.50390625
,279.7406349,1.4990234375
,279.7486029,1.4990234375
,279.7652605,1.4990234375
,279.7875776,1.494140625
,279.8071586,1.4892578125
,279.8240185,1.484375
,279.8591327,1.484375
,279.8644268,1.484375
,279.8994264,1.4794921875
,279.9205986,1.4794921875
,279.9272988,1.4794921875
,279.9665861,1.4794921875
,279.9672565,1.4794921875
,279.9827989,1.474609375
,280.0185009,1.474609375
,280.0389371,1.474609375
,280.0443443,1.474609375
,280.0808849,1.4794921875
,280.086849,1.4892578125
,280.1058048,1.494140625
,280.1501384,1.50390625
,280.150801,1.5185546875
,280.1628999,1.5234375
,280.2121947,1.533203125
,280.2126308,1.5380859375
,280.2416542,1.54296875
,280.2463326,1.5478515625
,280.284282,1.5478515625
,280.2851136,1.5478515625
,280.3216418,1.5478515625
,280.322181,1.54296875
,280.3587981,1.54296875
,280.3647282,1.54296875
,280.401531,1.5380859375
,280.4072684,1.533203125
,280.4270954,1.533203125
,280.4630904,1.533203125
,280.4660428,1.5283203125
,280.5062824,1.5234375
,280.5067558,1.5185546875
,280.5296009,1.5185546875
,280.5446378,1.513671875
,280.580407,1.513671875
,280.600248,1.5087890625
,280.6071392,1.50390625
,280.6436399,1.50390625
,280.6465062,1.4990234375
,280.6661322,1.4990234375
,280.7033333,1.494140625
,280.7088834,1.4892578125
,280.7263596,1.4892578125
,280.7715308,1.4892578125
,280.7721059,1.484375
,280.7868084,1.484375
,280.8361169,1.4794921875
,280.8365716,1.4794921875
,280.8477153,1.4794921875
,280.8855077,1.4794921875
,280.8861782,1.474609375
,280.9292929,1.474609375
,280.9299663,1.474609375
,280.9474312,1.4794921875
,280.9679859,1.484375
,281.0045102,1.494140625
,281.0076838,1.50390625
,281.0429005,1.513671875
,281.063238,1.5234375
,281.0637725,1.533203125
,281.1000415,1.5380859375
,281.1207687,1.5380859375
,281.1271033,1.54296875
,281.1463797,1.5478515625
,281.1854868,1.5478515625
,281.1896404,1.5478515625
,281.2079049,1.54296875
,281.2296783,1.54296875
,281.2646489,1.5380859375
,281.2651574,1.5380859375
,281.285801,1.533203125
,281.3065413,1.533203125
,281.3445728,1.5283203125
,281.347445,1.5283203125
,281.3978988,1.5234375
,281.3984203,1.5185546875
,281.4192833,1.5185546875
,281.4295562,1.513671875
,281.4471134,1.513671875
,281.482888,1.5087890625
,281.4859251,1.50390625
,281.5201816,1.50390625
,281.5409269,1.4990234375
,281.5485808,1.4990234375
,281.5848766,1.494140625
,281.5876823,1.494140625
,281.6074308,1.4892578125
,281.6274907,1.4892578125
,281.6475092,1.4892578125
,281.6830163,1.484375
,281.6882537,1.4794921875
,281.726109,1.4794921875
,281.7267856,1.4794921875
,281.7639427,1.4794921875
,281.7843996,1.4794921875
,281.7848513,1.4794921875
,281.822674,1.4892578125
,281.8265019,1.4990234375
,281.877454,1.5087890625
,281.8780881,1.513671875
,281.8876535,1.5234375
,281.9263529,1.5283203125
,281.9302819,1.5380859375
,281.9495155,1.54296875
,281.9858744,1.54296875
,282.0065573,1.54296875
,282.0070043,1.5478515625
,282.0425273,1.5478515625
,282.0480651,1.5478515625
,282.0985164,1.54296875
,282.0991732,1.5380859375
,282.1289774,1.5380859375
,282.129705,1.5380859375
,282.1757086,1.533203125
,282.176372,1.533203125
,282.1865129,1.5283203125
,282.2086521,1.5234375
,282.2526842,1.5234375
,282.2533446,1.5185546875
,282.2700445,1.513671875
,282.3075724,1.5087890625
,282.3083433,1.5087890625
,282.3473397,1.5087890625
,282.3479912,1.50390625
,282.3836021,1.4990234375
,282.38742,1.4990234375
,282.4257739,1.494140625
,282.428458,1.494140625
,282.4638734,1.494140625
,282.4844721,1.4892578125
,282.4904649,1.484375
,282.507045,1.484375
,282.5416051,1.484375
,282.5621255,1.484375
,282.5680704,1.4794921875
,282.605414,1.474609375
,282.6120337,1.474609375
,282.6296024,1.4794921875
,282.6641196,1.484375
,282.6688092,1.4892578125
,282.7070687,1.4990234375
,282.7384815,1.5087890625
,282.7389191,1.5185546875
,282.7480911,1.5283203125
,282.7854283,1.533203125
,282.7886462,1.5380859375
,282.8082463,1.5478515625
,282.8427888,1.552734375
,282.8635201,1.552734375
,282.869843,1.552734375
,282.8889127,1.552734375
,282.9090279,1.5478515625
,282.9290146,1.5478515625
,282.9646091,1.54296875
,282.9845911,1.54296875
,282.9893985,1.5380859375
,283.0110529,1.5380859375
,283.0522686,1.533203125
,283.0529568,1.533203125
,283.0675622,1.5283203125
,283.1146067,1.5234375
,283.1150523,1.5234375
,283.1466737,1.5185546875
,283.1533204,1.513671875
,283.1698022,1.5087890625
,283.1903167,1.50390625
,283.2258807,1.50390625
,283.2263252,1.50390625
,283.2470697,1.4990234375
,283.2863138,1.494140625
,283.2901356,1.4892578125
,283.3099815,1.4892578125
,283.3452864,1.4892578125
,283.350831,1.484375
,283.3729134,1.484375
,283.393895,1.4794921875
,283.4129361,1.4794921875
,283.4482233,1.4794921875
,283.4486657,1.474609375
,283.4844682,1.474609375
,283.4900402,1.474609375
,283.5252292,1.4794921875
,283.5304808,1.4892578125
,283.5674164,1.494140625
,283.5704586,1.50390625
,283.6136835,1.513671875
,283.6143518,1.5234375
,283.6448811,1.533203125
,283.648448,1.5380859375
,283.6915972,1.54296875
,283.6920487,1.5478515625
,283.7221913,1.5478515625
,283.7314768,1.552734375
,283.7673718,1.5478515625
,283.7732512,1.5478515625
,283.7909784,1.54296875
,283.8088696,1.54296875
,283.8464226,1.5380859375
,283.8493684,1.5380859375
,283.8863617,1.533203125
,283.8916979,1.5283203125
,283.9125174,1.5283203125
,283.9340601,1.5283203125
,283.9687514,1.5234375
,283.9693169,1.5185546875
,284.0061106,1.513671875
,284.0096974,1.513671875
,284.04845,1.5087890625
,284.0690768,1.5087890625
,284.0720915,1.50390625
,284.0923358,1.4990234375
,284.1283166,1.4990234375
,284.1326189,1.4990234375
,284.1671946,1.494140625
,284.1890627,1.4892578125
,284.1899174,1.4892578125
,284.2117949,1.4892578125
,284.2308229,1.4892578125
,284.2522362,1.484375
,284.2867514,1.4794921875
,284.3070108,1.4794921875
,284.3138812,1.4794921875
,284.3505544,1.484375
,284.3510011,1.4892578125
,284.3857945,1.4990234375
,284.3912819,1.5087890625
,284.4438785,1.5185546875
,284.4444217,1.5283203125
,284.4532676,1.533203125
,284.4732325,1.5380859375
,284.5220336,1.54296875
,284.5225026,1.5478515625
,284.5534792,1.5478515625
,284.5541463,1.5478515625
,284.5715422,1.5478515625
,284.6152207,1.54296875
,284.6158864,1.54296875
,284.632346,1.5380859375
,284.6536617,1.5380859375
,284.688341,1.533203125
,284.688882,1.5283203125
,284.7261554,1.5283203125
,284.7314362,1.5283203125
,284.7500053,1.5234375
,284.7871138,1.5185546875
,284.7919468,1.5185546875
,284.8282039,1.513671875
,284.8342234,1.513671875
,284.8543395,1.5087890625
,284.8740007,1.50390625
,284.9098994,1.50390625
,284.9109002,1.4990234375
,284.9483248,1.4990234375
,284.9531611,1.494140625
,284.9744304,1.4892578125
,284.995549,1.4892578125
,285.0143207,1.4892578125
,285.0509208,1.484375
,285.0534726,1.484375
,285.0715726,1.4794921875
,285.1092067,1.4794921875
,285.1121924,1.4794921875
,285.1501817,1.4794921875
,285.1508866,1.4794921875
,285.1869514,1.484375
,285.2078104,1.494140625
,285.2153626,1.50390625
,285.255347,1.513671875
,285.2561496,1.5234375
,285.2716466,1.5283203125
,285.3177034,1.5380859375
,285.3181518,1.5478515625
,285.3487759,1.552734375
,285.3533598,1.552734375
,285.3731524,1.552734375
,285.424707,1.5576171875
,285.4253656,1.5576171875
,285.4308312,1.552734375
,285.4680403,1.5478515625
,285.4702135,1.54296875
,285.5091606,1.54296875
,285.5120728,1.5380859375
,285.5495591,1.5380859375
,285.5564248,1.533203125
,285.5953027,1.5283203125
,285.5959659,1.5283203125
,285.6325935,1.5234375
,285.6333449,1.5185546875
,285.671816,1.513671875
,285.672421,1.5087890625
,285.7101158,1.5087890625
,285.7132387,1.50390625
,285.7495751,1.4990234375
,285.7550584,1.4990234375
,285.7920165,1.494140625
,285.7924649,1.494140625
,285.8307324,1.4892578125
,285.831187,1.4892578125
,285.8525427,1.484375
,285.8916408,1.484375
,285.8923742,1.484375
,285.928646,1.4794921875
,285.9505331,1.4794921875
,285.954193,1.474609375
,285.974464,1.474609375
,285.9921752,1.474609375
,286.0297155,1.4794921875
,286.0327216,1.484375
,286.0696641,1.494140625
,286.0726379,1.50390625
,286.1090612,1.513671875
,286.1395967,1.5234375
,286.1404598,1.533203125
,286.1523297,1.5380859375
,286.1872818,1.54296875
,286.1935099,1.5478515625
,286.213348,1.552734375
,286.2500584,1.552734375
,286.2550033,1.552734375
,286.2914871,1.5478515625
,286.2934997,1.5478515625
,286.3425665,1.54296875
,286.3432204,1.54296875
,286.3728658,1.5380859375
,286.373528,1.533203125
,286.4085978,1.533203125
,286.4142805,1.5283203125
,286.4356299,1.5283203125
,286.4557569,1.5234375
,286.4939949,1.5185546875
,286.4944692,1.5185546875
,286.5334995,1.513671875
,286.5342918,1.5087890625
,286.570453,1.50390625
,286.5733082,1.50390625
,286.6099314,1.50390625
,286.61578,1.4990234375
,286.635719,1.494140625
,286.670412,1.494140625
,286.6912278,1.4892578125
,286.6916918,1.4892578125
,286.730464,1.4892578125
,286.7340043,1.484375
,286.7804719,1.4794921875
,286.7811303,1.4794921875
,286.796727,1.4794921875
,286.8310814,1.4794921875
,286.8357792,1.4794921875
,286.870014,1.4794921875
,286.8910115,1.4892578125
,286.8980807,1.4990234375
,286.9130094,1.5087890625
,286.9507958,1.513671875
,286.9720646,1.5234375
,286.9727281,1.533203125
,287.0136955,1.5380859375
,287.0339568,1.54296875
,287.0362627,1.5478515625
,287.0720038,1.5478515625
,287.0724643,1.5478515625
,287.0935229,1.5478515625
,287.1141308,1.54296875
,287.1512259,1.5380859375
,287.1572679,1.5380859375
,287.1774817,1.533203125
,287.1960603,1.533203125
,287.2489144,1.5283203125
,287.2496022,1.5234375
,287.2535015,1.5234375
,287.2915441,1.5185546875
,287.2943272,1.5185546875
,287.3420459,1.513671875
,287.3426282,1.5087890625
,287.3627905,1.50390625
,287.3780293,1.50390625
,287.4142433,1.4990234375
,287.4172434,1.4990234375
,287.4341098,1.494140625
,287.4556584,1.4892578125
,287.476993,1.4892578125
,287.5123615,1.4892578125
,287.5145202,1.484375
,287.5487752,1.4794921875
,287.5696818,1.4794921875
,287.5769976,1.4794921875
,287.5944427,1.4794921875
,287.6291931,1.474609375
,287.6335235,1.4697265625
,287.6700623,1.4697265625
,287.6761446,1.4697265625
,287.7112563,1.474609375
,287.7168125,1.474609375
,287.7537277,1.484375
,287.754665,1.494140625
,287.7895156,1.50390625
,287.8092537,1.513671875
,287.813701,1.5234375
,287.8550545,1.5283203125
,287.8556479,1.5380859375
,287.9024049,1.5478515625
,287.9029132,1.552734375
,287.9186063,1.552734375
,287.9649499,1.552734375
,287.9656132,1.552734375
,287.974081,1.552734375
,288.0107101,1.5478515625
,288.0157378,1.54296875
,288.0506877,1.5380859375
,288.0571819,1.5380859375
,288.0921997,1.5380859375
,288.0972519,1.533203125
,288.1355675,1.5283203125
,288.1362954,1.5234375
,288.1553873,1.5234375
,288.1982679,1.5185546875
,288.1990252,1.5185546875
,288.2155745,1.513671875
,288.2522619,1.5087890625
,288.2584895,1.50390625
,288.295708,1.50390625
,288.2963785,1.4990234375
,288.3317076,1.494140625
,288.3398832,1.4892578125
,288.3572161,1.4892578125
,288.3768871,1.4892578125
,288.4152571,1.484375
,288.4182231,1.484375
,288.4386206,1.4794921875
,288.4575417,1.4794921875
,288.4945861,1.4794921875
,288.4967967,1.474609375
,288.5344822,1.474609375
,288.5351683,1.4697265625
,288.5734575,1.4697265625
,288.5772538,1.4697265625
,288.6140685,1.4697265625
,288.6171987,1.474609375
,288.6533492,1.484375
,288.6581638,1.494140625
,288.6958751,1.5087890625
,288.6989606,1.5185546875
,288.7167384,1.5234375
,288.751441,1.533203125
,288.7580607,1.5380859375
,288.7929174,1.5478515625
,288.7977431,1.5478515625
,288.817877,1.5478515625
,288.85466,1.5478515625
,288.8593741,1.5478515625
,288.8755156,1.5478515625
,288.9129826,1.54296875
,288.9156692,1.5380859375
,288.9636134,1.5380859375
,288.9642679,1.533203125
,288.9936386,1.533203125
,289.0000541,1.5283203125
,289.0191065,1.5234375
,289.0557228,1.5185546875
,289.0590607,1.5185546875
,289.103817,1.513671875
,289.1042658,1.5087890625
,289.1177195,1.50390625
,289.1535427,1.50390625
,289.182302,1.4990234375
,289.1827535,1.4990234375
,289.2010913,1.494140625
,289.220795,1.4892578125
,289.2618745,1.4892578125
,289.2625422,1.484375
,289.2747744,1.484375
,289.3126817,1.4794921875
,289.3179115,1.474609375
,289.3540346,1.474609375
,289.3854848,1.474609375
,289.3859238,1.474609375
,289.3999532,1.4697265625
,289.4362344,1.46484375
,289.4367555,1.46484375
,289.4801296,1.46484375
,289.480729,1.46484375
,289.4967121,1.46484375
,289.5311967,1.4697265625
,289.5529782,1.474609375
,289.5610832,1.484375
,289.6049917,1.4990234375
,289.6054377,1.5087890625
,289.6172872,1.513671875
,289.6525753,1.5234375
,289.6853591,1.5283203125
,289.686021,1.533203125
,289.6997192,1.5380859375
,289.7484066,1.5380859375
,289.7490771,1.5380859375
,289.7602261,1.5380859375
,289.7971383,1.5380859375
,289.8000408,1.533203125
,289.8193275,1.5283203125
,289.8547285,1.5283203125
,289.857803,1.5283203125
,289.894693,1.5234375
,289.899775,1.5234375
,289.9203105,1.5185546875
,289.9572811,1.513671875
,289.9604084,1.513671875
,289.9974268,1.5087890625
,290.026152,1.50390625
,290.0267713,1.50390625
,290.0404226,1.4990234375
,290.0607858,1.4990234375
,290.0790559,1.494140625
,290.1188773,1.4892578125
,290.1221201,1.4892578125
,290.1670856,1.484375
,290.1677568,1.484375
,290.178358,1.484375
,290.1986028,1.4794921875
,290.2331966,1.474609375
,290.2541807,1.474609375
,290.2598637,1.474609375
,290.2802529,1.474609375
,290.3007222,1.4697265625
,290.3368711,1.4697265625
,290.3566888,1.4697265625
,290.3571344,1.4697265625
,290.3936861,1.4697265625
,290.3981354,1.46484375
,290.4341096,1.4697265625
,290.4549222,1.474609375
,290.4602684,1.484375
,290.5061599,1.494140625
,290.5068185,1.50390625
,290.5262782,1.513671875
,290.5388341,1.5234375
,290.5756544,1.533203125
,290.578575,1.5380859375
,290.6144198,1.54296875
,290.6348903,1.5478515625
,290.6412997,1.5478515625
,290.6935982,1.552734375
,290.6942853,1.5478515625
,290.7013916,1.54296875
,290.7179471,1.54296875
,290.7548954,1.54296875
,290.7759106,1.5380859375
,290.7805386,1.5380859375
,290.8158767,1.533203125
,290.8213743,1.5283203125
,290.8562759,1.5283203125
,290.8614688,1.5234375
,290.879886,1.5234375
,290.9155143,1.5185546875
,290.9184416,1.513671875
,290.9548703,1.513671875
,290.9606146,1.5087890625
,290.998217,1.50390625
,291.0013012,1.4990234375
,291.0403595,1.4990234375
,291.0408683,1.494140625
,291.0752572,1.494140625
,291.0782705,1.4892578125
,291.1144352,1.484375
,291.1357521,1.484375
,291.141686,1.484375
,291.1777081,1.4794921875
,291.1806975,1.4794921875
,291.218897,1.474609375
,291.2219731,1.474609375
,291.2571438,1.474609375
,291.2768101,1.474609375
,291.2792825,1.4697265625
,291.332615,1.4697265625
,291.3332432,1.46484375
,291.3418375,1.4697265625
,291.3801452,1.4697265625
,291.3806282,1.474609375
,291.4153822,1.484375
,291.4354397,1.494140625
,291.4375427,1.50390625
,291.4745667,1.513671875
,291.5050226,1.5234375
,291.5056077,1.5283203125
,291.5216716,1.533203125
,291.5585126,1.54296875
,291.5614697,1.5478515625
,291.599081,1.5478515625
,291.6039823,1.5478515625
,291.6214189,1.5478515625
,291.6570812,1.5478515625
,291.660027,1.54296875
,291.6969235,1.5380859375
,291.7016488,1.5380859375
,291.7552728,1.533203125
,291.7559564,1.533203125
,291.7647034,1.5283203125
,291.7794287,1.5283203125
,291.8172688,1.5234375
,291.8178569,1.5185546875
,291.8535677,1.5185546875
,291.8738025,1.513671875
,291.8824501,1.5087890625
,291.9194403,1.5087890625
,291.9223516,1.50390625
,291.9611239,1.50390625
,291.9637826,1.4990234375
,292.000499,1.494140625
,292.0010702,1.494140625
,292.048792,1.4892578125
,292.0492242,1.4892578125
,292.062408,1.4892578125
,292.0826646,1.484375
,292.1188897,1.4794921875
,292.1241354,1.4794921875
,292.1622156,1.4794921875
,292.1628349,1.4794921875
,292.1819267,1.474609375
,292.2209804,1.474609375
,292.2216707,1.474609375
,292.2584414,1.474609375
,292.2648473,1.474609375
,292.283738,1.474609375
,292.318372,1.4794921875
,292.3391915,1.4892578125
,292.3398479,1.4990234375
,292.3749696,1.5087890625
,292.3961939,1.5185546875
,292.401755,1.5234375
,292.4380422,1.533203125
,292.4435919,1.5380859375
,292.4800896,1.54296875
,292.4862418,1.54296875
,292.5012862,1.54296875
,292.5216288,1.54296875
,292.558524,1.54296875
,292.5615106,1.54296875
,292.5998416,1.5380859375
,292.6004568,1.533203125
,292.6360524,1.533203125
,292.6569972,1.533203125
,292.6649072,1.5283203125
,292.7017085,1.5234375
,292.7050532,1.5234375
,292.7224955,1.5185546875
,292.7582831,1.5185546875
,292.7632625,1.513671875
,292.78352,1.5087890625
,292.8040353,1.5087890625
,292.8459036,1.50390625
,292.8463823,1.50390625
,292.8660229,1.4990234375
,292.9033871,1.494140625
,292.9038346,1.494140625
,292.9211618,1.494140625
,292.957753,1.4892578125
,292.9861413,1.4892578125
,292.986658,1.484375
,293.00445,1.484375
,293.0414579,1.484375
,293.0444622,1.484375
,293.0616644,1.4794921875
,293.0971281,1.474609375
,293.1026393,1.474609375
,293.1382458,1.474609375
,293.1427304,1.474609375
,293.1899888,1.4697265625
,293.1906483,1.4697265625
,293.2049927,1.4697265625
,293.2535137,1.4794921875
,293.2542095,1.4892578125
,293.2638942,1.4990234375
,293.2856128,1.5087890625
,293.3029991,1.5185546875
,293.3448819,1.5283203125
,293.3453558,1.5380859375
,293.3656196,1.54296875
,293.4081274,1.5478515625
,293.4087972,1.5478515625
,293.4257823,1.552734375
,293.442364,1.552734375
,293.4781497,1.552734375
,293.4843077,1.5478515625
,293.5035851,1.5478515625
,293.5407856,1.5478515625
,293.5435952,1.54296875
,293.5807267,1.5380859375
,293.6109105,1.5380859375
,293.6115881,1.533203125
,293.6230209,1.533203125
,293.6741361,1.5283203125
,293.6747449,1.5234375
,293.6828055,1.5185546875
,293.7171675,1.5185546875
,293.7373452,1.513671875
,293.7452127,1.513671875
,293.7811749,1.5087890625
,293.7817443,1.50390625
,293.8171433,1.50390625
,293.8378073,1.50390625
,293.8440582,1.4990234375
,293.8797316,1.494140625
,293.8856777,1.4892578125
,293.9067628,1.4892578125
,293.9558968,1.4892578125
,293.9564271,1.4892578125
,293.962581,1.484375
,293.9992156,1.4794921875
,294.0042678,1.4794921875
,294.0253401,1.4794921875
,294.0439232,1.4794921875
,294.0808719,1.474609375
,294.0857235,1.474609375
,294.1208911,1.474609375
,294.1263285,1.474609375
,294.174616,1.474609375
,294.175315,1.4794921875
,294.1828355,1.4892578125
,294.2205706,1.4990234375
,294.2261357,1.5087890625
,294.2451689,1.5185546875
,294.2806736,1.5283203125
,294.2854919,1.533203125
,294.3225341,1.5380859375
,294.328036,1.5478515625
,294.3434639,1.5478515625
,294.3781066,1.5478515625
,294.3987244,1.5478515625
,294.4068347,1.5478515625
,294.4243673,1.5478515625
,294.4615824,1.54296875
,294.4680959,1.54296875
,294.4854852,1.5380859375
,294.5319223,1.5380859375
,294.532609,1.5380859375
,294.5434473,1.533203125
,294.5652513,1.5283203125
,294.5853499,1.5283203125
,294.6258822,1.5234375
,294.626399,1.5234375
,294.6631128,1.5185546875
,294.6659255,1.513671875
,294.6840707,1.513671875
,294.7353852,1.5087890625
,294.736042,1.5087890625
,294.7462976,1.50390625
,294.7819302,1.4990234375
,294.7877783,1.4990234375
,294.8241115,1.4990234375
,294.8277854,1.4990234375
,294.8476198,1.494140625
,294.8835194,1.4892578125
,294.8889896,1.4892578125
,294.9049784,1.4892578125
,294.9254715,1.4892578125
,294.9609041,1.484375
,294.9661077,1.484375
,295.0025775,1.4794921875
,295.0076548,1.4794921875
,295.0297635,1.484375
,295.0493209,1.484375
,295.0649184,1.4892578125
,295.1007005,1.4990234375
,295.1057021,1.5087890625
,295.1430587,1.5185546875
,295.1726738,1.5283203125
,295.1731093,1.533203125
,295.1891599,1.5380859375
,295.225492,1.54296875
,295.2289155,1.5478515625
,295.2451826,1.5478515625
,295.2820772,1.5478515625
,295.2872428,1.5478515625
,295.3307677,1.5478515625
,295.3312343,1.54296875
,295.3459826,1.54296875
,295.3840817,1.5380859375
,295.387012,1.5380859375
,295.4038892,1.533203125
,295.4400093,1.533203125
,295.4505222,1.5283203125
,295.4684918,1.5234375
,295.4877481,1.5234375
,295.506374,1.5185546875
,295.5284166,1.5185546875
,295.565865,1.513671875
,295.56655,1.5087890625
,295.601528,1.5087890625
,295.6230753,1.5087890625
,295.6236018,1.50390625
,295.6613837,1.4990234375
,295.6815227,1.4990234375
,295.6876528,1.494140625
,295.7252942,1.494140625
,295.7555227,1.494140625
,295.7560812,1.4892578125
,295.7707078,1.484375
,295.80422,1.484375
,295.8049347,1.484375
,295.8480402,1.484375
,295.8484712,1.4794921875
,295.8684048,1.4794921875
,295.8889295,1.4794921875
,295.9080408,1.484375
,295.9572138,1.4892578125
,295.9576479,1.494140625
,295.9661803,1.50390625
,296.0027498,1.513671875
,296.0057876,1.5234375
,296.0515429,1.533203125
,296.0522008,1.5380859375
,296.0821092,1.54296875
,296.0875052,1.5478515625
,296.1267823,1.552734375
,296.1470354,1.5576171875
,296.1478243,1.5576171875
,296.190851,1.552734375
,296.191501,1.552734375
,296.210404,1.552734375
,296.2275084,1.5478515625
,296.2647137,1.54296875
,296.267119,1.54296875
,296.3006951,1.54296875
,296.3214436,1.5380859375
,296.3317311,1.5380859375
,296.345589,1.533203125
,296.3821753,1.5283203125
,296.409846,1.5283203125
,296.4102999,1.5234375
,296.4268869,1.5185546875
,296.471033,1.513671875
,296.4716866,1.5087890625
,296.4912079,1.5087890625
,296.5253354,1.5087890625
,296.5259913,1.50390625
,296.5602558,1.4990234375
,296.5815473,1.4990234375
,296.5872184,1.4990234375
,296.6260949,1.494140625
,296.6474242,1.494140625
,296.6507468,1.4892578125
,296.670284,1.4892578125
,296.6866233,1.484375
,296.7232434,1.484375
,296.7260875,1.484375
,296.7684464,1.4794921875
,296.7689294,1.4794921875
,296.7876018,1.484375
,296.8233833,1.4892578125
,296.8438448,1.4990234375
,296.8485744,1.5087890625
,296.8942283,1.513671875
,296.8949855,1.5283203125
,296.9090067,1.533203125
,296.9280567,1.54296875
,296.9651648,1.5478515625
,296.9695885,1.552734375
,296.9891905,1.5576171875
,297.0252011,1.5576171875
,297.0303125,1.5576171875
,297.066442,1.552734375
,297.0972849,1.552734375
,297.0977563,1.552734375
,297.1091619,1.552734375
,297.1292989,1.5478515625
,297.1659464,1.54296875
,297.171861,1.54296875
,297.1915178,1.5380859375
,297.2381625,1.5380859375
,297.2388541,1.533203125
,297.246811,1.5283203125
,297.2831266,1.5234375
,297.303723,1.5234375
,297.3083631,1.5185546875
,297.3459154,1.5185546875
,297.3488272,1.513671875
,297.3851326,1.5087890625
,297.3909606,1.5087890625
,297.440315,1.50390625
,297.4410106,1.50390625
,297.4697165,1.4990234375
,297.4701684,1.4990234375
,297.4895393,1.4990234375
,297.5329948,1.494140625
,297.5334531,1.494140625
,297.5530068,1.4892578125
,297.5706822,1.4892578125
,297.5922596,1.4892578125
,297.629642,1.4892578125
,297.6302751,1.4892578125
,297.6649982,1.494140625
,297.6699234,1.50390625
,297.7042789,1.513671875
,297.7252964,1.5234375
,297.7305582,1.5283203125
,297.7671801,1.533203125
,297.7724103,1.54296875
,297.8084621,1.5478515625
,297.8089386,1.552734375
,297.8419264,1.552734375
,297.8625515,1.552734375
,297.8698454,1.552734375
,297.9074715,1.552734375
,297.9105931,1.552734375
,297.9334259,1.5478515625
,297.9515851,1.54296875
,297.969402,1.54296875
,298.0040086,1.54296875
,298.0094625,1.5380859375
,298.0463437,1.533203125
,298.0489282,1.5283203125
,298.0862361,1.5283203125
,298.0923119,1.5234375
,298.1114967,1.5234375
,298.1564846,1.5185546875
,298.1569283,1.513671875
,298.1881571,1.5087890625
,298.1886406,1.5087890625
,298.235297,1.5087890625
,298.2357675,1.50390625
,298.2506925,1.4990234375
,298.2878871,1.4990234375
,298.2908334,1.4990234375
,298.3266404,1.494140625
,298.3465255,1.4892578125
,298.3515379,1.4892578125
,298.3713163,1.4892578125
,298.3924033,1.4892578125
,298.411087,1.484375
,298.445246,1.484375
,298.4661089,1.4794921875
,298.4718575,1.4794921875
,298.5154289,1.484375
,298.5160104,1.4892578125
,298.5303839,1.4990234375
,298.5653349,1.5087890625
,298.5954048,1.5185546875
,298.5960626,1.5283203125
,298.6114693,1.5380859375
,298.63305,1.54296875
,298.6692486,1.5478515625
,298.6735456,1.552734375
,298.6944577,1.5576171875
,298.709747,1.5625
,298.7480445,1.5576171875
,298.7508898,1.5576171875
,298.7856326,1.5576171875
,298.8070521,1.552734375
,298.8120806,1.552734375
,298.8480439,1.5478515625
,298.8544664,1.54296875
,298.8689384,1.54296875
,298.9055041,1.5380859375
,298.9259798,1.5380859375
,298.9313088,1.533203125
,298.9670768,1.5283203125
,298.9721104,1.5234375
,299.0068961,1.5234375
,299.0274206,1.5185546875
,299.0330805,1.513671875
,299.077958,1.5087890625
,299.0786303,1.5087890625
,299.0918733,1.50390625
,299.1268343,1.50390625
,299.1316854,1.4990234375
,299.1667116,1.494140625
,299.1726732,1.494140625
,299.1925543,1.494140625
,299.2135567,1.4892578125
,299.2503101,1.484375
,299.250964,1.484375
,299.2688728,1.484375
,299.3081555,1.484375
,299.3285473,1.4794921875
,299.3341033,1.4794921875
,299.3534682,1.4794921875
,299.3900433,1.484375
,299.3949767,1.4892578125
,299.4152753,1.4990234375
,299.4312885,1.5087890625
,299.466762,1.5185546875
,299.4750329,1.5283203125
,299.492694,1.5380859375
,299.5120122,1.54296875
,299.5472676,1.5478515625
,299.5679084,1.552734375
,299.5745908,1.5576171875
,299.5950075,1.5576171875
,299.6105021,1.5576171875
,299.6495959,1.552734375
,299.6502571,1.552734375
,299.6873909,1.5478515625
,299.693133,1.5478515625
,299.7291956,1.54296875
,299.7325696,1.5380859375
,299.769812,1.5380859375
,299.774294,1.533203125
,299.8183665,1.533203125
,299.8188205,1.5283203125
,299.8337406,1.5234375
,299.8809658,1.5185546875
,299.8815966,1.5185546875
,299.8931721,1.513671875
,299.9137385,1.513671875
,299.9491878,1.5087890625
,299.9557803,1.50390625
,299.9929127,1.50390625
,299.9936026,1.4990234375
,300.0126075,1.4990234375
,300.047222,1.494140625
,300.0684914,1.494140625
,300.0736629,1.4892578125
,300.1089333,1.4892578125
,300.114352,1.4892578125
,300.1631517,1.484375
,300.1638871,1.484375
,300.1716084,1.484375
,300.2084396,1.484375
,300.2115947,1.484375
,300.2495032,1.4892578125
,300.2542799,1.4990234375
,300.2904582,1.5087890625
,300.2949971,1.5185546875
,300.3307401,1.5234375
,300.3652958,1.5283203125
,300.3660019,1.5380859375
,300.3733341,1.54296875
,300.4082247,1.5478515625
,300.4281033,1.5478515625
,300.4335094,1.5478515625
,300.4750569,1.5478515625
,300.4756965,1.5478515625
,300.4938056,1.5478515625
,300.5357765,1.54296875
,300.5362202,1.5380859375
,300.5533425,1.5380859375
,300.5891556,1.5380859375
,300.594926,1.533203125
,300.615467,1.5283203125
,300.6371565,1.5234375
,300.6771923,1.5234375
,300.6776323,1.5185546875
,300.7132087,1.5185546875
,300.7139914,1.513671875
,300.7329196,1.5087890625
,300.7683325,1.50390625
,300.7748509,1.50390625
,300.7953762,1.50390625
,300.8431632,1.4990234375
,300.8438344,1.494140625
,300.8554689,1.494140625
,300.8925254,1.494140625
,300.8931875,1.4892578125
,300.9132447,1.484375
,300.9513178,1.484375
,300.9531265,1.484375
,300.9892479,1.484375
,301.0099417,1.4794921875
,301.0182751,1.4794921875
,301.0361011,1.4794921875
,301.052957,1.4794921875
,301.0732949,1.484375
,301.0929307,1.494140625
,301.1373617,1.50390625
,301.1379755,1.5087890625
,301.1586937,1.5234375
,301.175733,1.533203125
,301.2178342,1.5380859375
,301.2185019,1.54296875
,301.2638417,1.5478515625
,301.2644921,1.5576171875
,301.274507,1.5576171875
,301.3124976,1.5625
,301.313087,1.5576171875
,301.3500579,1.5576171875
,301.3548665,1.552734375
,301.3760747,1.552734375
,301.4113925,1.5478515625
,301.4327402,1.54296875
,301.4335915,1.5380859375
,301.4547068,1.5380859375
,301.4971889,1.533203125
,301.4976321,1.533203125
,301.5169294,1.5283203125
,301.5352906,1.5234375
,301.5748932,1.5185546875
,301.5753417,1.5185546875
,301.6115923,1.513671875
,301.6366841,1.5087890625
,301.6371995,1.50390625
,301.6708038,1.50390625
,301.6768799,1.50390625
,301.696371,1.4990234375
,301.7316349,1.494140625
,301.7370788,1.494140625
,301.7721782,1.4892578125
,301.7726321,1.4892578125
,301.807499,1.4892578125
,301.8281624,1.484375
,301.8367138,1.484375
,301.883781,1.484375
,301.884414,1.4794921875
,301.8971657,1.4794921875
,301.9173248,1.4794921875
,301.9374799,1.4794921875
,301.9720771,1.4892578125
,301.9781682,1.4990234375
,301.9956798,1.5087890625
,302.0304798,1.5185546875
,302.0365922,1.5234375
,302.073106,1.533203125
,302.0753336,1.54296875
,302.1125461,1.5478515625
,302.115452,1.552734375
,302.1511138,1.5576171875
,302.1809046,1.5576171875
,302.1813739,1.5625
,302.1943962,1.5576171875
,302.2306493,1.552734375
,302.2552381,1.552734375
,302.2556711,1.5478515625
,302.2921317,1.5478515625
,302.2975111,1.54296875
,302.3184523,1.5380859375
,302.3331,1.533203125
,302.3687939,1.533203125
,302.3891424,1.5283203125
,302.3971488,1.5234375
,302.4169435,1.5185546875
,302.4582957,1.5185546875
,302.4587725,1.513671875
,302.4786651,1.513671875
,302.5224779,1.5087890625
,302.5229551,1.50390625
,302.5381206,1.4990234375
,302.5542383,1.4990234375
,302.5893475,1.4990234375
,302.6106052,1.494140625
,302.617689,1.4892578125
,302.6557136,1.4892578125
,302.6588763,1.4892578125
,302.6962676,1.4892578125
,302.6969818,1.484375
,302.71549,1.4794921875
,302.7517797,1.4794921875
,302.7549467,1.4794921875
,302.802535,1.4794921875
,302.8032066,1.4794921875
,302.8187135,1.484375
,302.8381521,1.4892578125
,302.8786696,1.50390625
,302.8793045,1.513671875
,302.9008613,1.5234375
,302.9157375,1.5283203125
,302.9521023,1.533203125
,302.9739919,1.54296875
,302.9769406,1.5478515625
,303.0128182,1.5478515625
,303.0188252,1.552734375
,303.0549827,1.552734375
,303.0556341,1.552734375
,303.0933909,1.5478515625
,303.0939547,1.5478515625
,303.1322159,1.54296875
,303.1648049,1.5380859375
,303.1652681,1.5380859375
,303.1789584,1.5380859375
,303.214806,1.533203125
,303.2209624,1.5283203125
,303.2342238,1.5234375
,303.2694456,1.5234375
,303.2896489,1.5185546875
,303.295333,1.513671875
,303.3331493,1.5087890625
,303.354244,1.5087890625
,303.3588007,1.50390625
,303.400541,1.50390625
,303.4014601,1.4990234375
,303.4202308,1.494140625
,303.4385091,1.494140625
,303.4562171,1.494140625
,303.4934725,1.4892578125
,303.5149318,1.4892578125
,303.5156248,1.484375
,303.5510607,1.484375
,303.572211,1.484375
,303.5821361,1.484375
,303.601714,1.4794921875
,303.6175072,1.474609375
,303.6521397,1.474609375
,303.6568938,1.4794921875
,303.6969268,1.484375
,303.6975643,1.4892578125
,303.7183139,1.4990234375
,303.7604988,1.5087890625
,303.7609456,1.5185546875
,303.8099581,1.5283203125
,303.8106285,1.533203125
,303.8163234,1.54296875
,303.8554814,1.5478515625
,303.8559152,1.5576171875
,303.9031412,1.5576171875
,303.9037938,1.5576171875
,303.9344367,1.5576171875
,303.9422147,1.5576171875
,303.9599011,1.552734375
,303.9806801,1.552734375
,303.998325,1.5478515625
,304.0449126,1.54296875
,304.0455875,1.5380859375
,304.0596259,1.5380859375
,304.0977857,1.533203125
,304.0982551,1.5283203125
,304.1345731,1.5283203125
,304.155571,1.5234375
,304.1629874,1.5234375
,304.1773241,1.5185546875
,304.2130815,1.513671875
,304.244416,1.5087890625
,304.2450468,1.5087890625
,304.260835,1.50390625
,304.2809552,1.50390625
,304.3004397,1.4990234375
,304.3375205,1.494140625
,304.3381177,1.494140625
,304.3561272,1.494140625
,304.3915045,1.4892578125
,304.4128403,1.484375
,304.4191142,1.484375
,304.4563576,1.484375
,304.4594277,1.4794921875
,304.5063869,1.4794921875
,304.506983,1.474609375
,304.5280628,1.474609375
,304.53741,1.474609375
,304.558764,1.474609375
,304.5927395,1.4794921875
,304.6137547,1.484375
,304.6194869,1.494140625
,304.6624171,1.50390625
,304.6630866,1.5185546875
,304.6824836,1.5283203125
,304.7012859,1.533203125
,304.736463,1.5380859375
,304.7714139,1.5478515625
,304.7720731,1.552734375
,304.7791774,1.5576171875
,304.8161243,1.5576171875
,304.8195016,1.5576171875
,304.8536964,1.552734375
,304.874781,1.552734375
,304.8827245,1.5478515625
,304.8986978,1.54296875
,304.9190667,1.54296875
,304.9557689,1.5380859375
,304.9585585,1.5380859375
,304.9815568,1.533203125
,305.0024341,1.5283203125
,305.0212731,1.5234375
,305.0661951,1.5234375
,305.0668656,1.5185546875
,305.0783543,1.513671875
,305.1284843,1.5087890625
,305.1289569,1.5087890625
,305.139062,1.50390625
,305.1745383,1.50390625
,305.1961801,1.4990234375
,305.1991965,1.494140625
,305.2354474,1.4892578125
,305.2555155,1.4892578125
,305.2579415,1.4892578125
,305.3027717,1.484375
,305.3034407,1.4794921875
,305.319311,1.4794921875
,305.3573012,1.4794921875
,305.3603382,1.4794921875
,305.3967623,1.4794921875
,305.4023416,1.474609375
,305.4436799,1.474609375
,305.4448423,1.474609375
,305.4590782,1.4794921875
,305.5060187,1.484375
,305.5065308,1.4892578125
,305.5363818,1.4990234375
,305.5409914,1.5087890625
,305.5773523,1.5185546875
,305.5983809,1.5234375
,305.6034345,1.5283203125
,305.6196545,1.533203125
,305.6627066,1.5380859375
,305.6631597,1.54296875
,305.7097133,1.54296875
,305.7101705,1.5380859375
,305.7210455,1.5380859375
,305.7732793,1.5380859375
,305.7738917,1.5380859375
,305.7830143,1.533203125
,305.8005206,1.5283203125
,305.8357823,1.5283203125
,305.8409671,1.5234375
,305.8600992,1.5234375
,305.8979084,1.5185546875
,305.9181968,1.513671875
,305.9212743,1.513671875
,305.9579162,1.513671875
,305.9584195,1.5087890625
,305.9788266,1.50390625
,306.000908,1.50390625
,306.03722,1.4990234375
,306.0422176,1.4990234375
,306.0627458,1.494140625
,306.0966526,1.4892578125
,306.1025442,1.4892578125
,306.1383666,1.484375
,306.1444166,1.484375
,306.1637988,1.4794921875
,306.1797743,1.474609375
,306.2246522,1.4697265625
,306.2251135,1.4697265625
,306.2537911,1.46484375
,306.2615272,1.46484375
,306.2981265,1.4599609375
,306.304251,1.455078125
,306.323408,1.455078125
,306.3599308,1.46484375
,306.360407,1.4697265625
,306.3803948,1.4794921875
,306.4163825,1.4892578125
,306.4373168,1.4990234375
,306.4425105,1.513671875
,306.4775011,1.5234375
,306.4827403,1.5283203125
,306.5195255,1.533203125
,306.5202167,1.5380859375
,306.565884,1.54296875
,306.5664661,1.54296875
,306.5974109,1.54296875
,306.6022585,1.54296875
,306.637713,1.5380859375
,306.6427986,1.5380859375
,306.6887392,1.5380859375
,306.6891694,1.533203125
,306.7094878,1.5283203125
,306.7210782,1.5283203125
,306.7578025,1.5283203125
,306.7633515,1.5234375
,306.798487,1.5185546875
,306.8030839,1.513671875
,306.8410914,1.513671875
,306.8438834,1.5087890625
,306.8634843,1.5087890625
,306.9072094,1.50390625
,306.9076424,1.4990234375
,306.9206634,1.4990234375
,306.9554956,1.4990234375
,306.9766767,1.494140625
,306.9830124,1.4892578125
,307.0324232,1.4892578125
,307.0328567,1.4892578125
,307.0537228,1.484375
,307.0663198,1.484375
,307.0828487,1.4794921875
,307.101387,1.4794921875
,307.1366453,1.4794921875
,307.142597,1.4794921875
,307.189706,1.4794921875
,307.190161,1.4794921875
,307.2018631,1.4794921875
,307.2355476,1.4892578125
,307.2568198,1.4990234375
,307.2601899,1.5087890625
,307.2977037,1.5185546875
,307.3184527,1.5234375
,307.3243076,1.533203125
,307.3440863,1.54296875
,307.3922238,1.5478515625
,307.3926716,1.5478515625
,307.4064629,1.552734375
,307.4222709,1.552734375
,307.4574839,1.552734375
,307.4622868,1.552734375
,307.4978995,1.5478515625
,307.5019621,1.54296875
,307.5395566,1.54296875
,307.5424519,1.5380859375
,307.578557,1.5380859375
,307.599383,1.533203125
,307.6042953,1.5283203125
,307.6395354,1.5283203125
,307.6606602,1.5234375
,307.6636498,1.5234375
,307.7146824,1.5185546875
,307.7151095,1.513671875
,307.7228493,1.513671875
,307.7630773,1.5087890625
,307.7928288,1.5087890625
,307.7932636,1.50390625
,307.8032357,1.4990234375
,307.8414103,1.4990234375
,307.8419409,1.494140625
,307.8641917,1.494140625
,307.8844653,1.4892578125
,307.9345737,1.484375
,307.9351204,1.484375
,307.9455864,1.484375
,307.9653036,1.4794921875
,307.9808567,1.4794921875
,308.0260399,1.474609375
,308.0264981,1.474609375
,308.0461138,1.474609375
,308.0652013,1.474609375
,308.1012818,1.4794921875
,308.1043173,1.484375
,308.142988,1.494140625
,308.1435284,1.5087890625
,308.1801021,1.513671875
,308.1829615,1.5234375
,308.2030157,1.5283203125
,308.2400837,1.5380859375
,308.244724,1.54296875
,308.2806358,1.54296875
,308.286676,1.54296875
,308.3226069,1.54296875
,308.3256407,1.54296875
,308.36268,1.54296875
,308.3631509,1.5380859375
,308.400237,1.533203125
,308.4030327,1.533203125
,308.4424088,1.533203125
,308.4634023,1.533203125
,308.4640573,1.5283203125
,308.498743,1.5234375
,308.5189758,1.5185546875
,308.5243863,1.5185546875
,308.5425773,1.5185546875
,308.5767188,1.513671875
,308.5973068,1.5087890625
,308.6050974,1.5087890625
,308.6445012,1.50390625
,308.6451367,1.50390625
,308.6656734,1.4990234375
,308.7029048,1.494140625
,308.7036584,1.494140625
,308.754893,1.494140625
,308.7555759,1.494140625
,308.7653508,1.4892578125
,308.8164179,1.484375
,308.8168532,1.484375
,308.8265645,1.484375
,308.8632932,1.484375
,308.8639282,1.4794921875
,308.9093294,1.4794921875
,308.9097608,1.4794921875
,308.9245654,1.484375
,308.9608423,1.494140625
,308.9658446,1.50390625
,309.0023157,1.5087890625
,309.0052925,1.5185546875
,309.0510891,1.5283203125
,309.0517602,1.533203125
,309.0667516,1.5380859375
,309.0842122,1.54296875
,309.1032688,1.5478515625
,309.1438366,1.5478515625
,309.164256,1.5478515625
,309.1676905,1.5478515625
,309.1857,1.54296875
,309.2208704,1.54296875
,309.2404236,1.54296875
,309.2493123,1.5380859375
,309.2645224,1.533203125
,309.2852326,1.533203125
,309.3196731,1.5283203125
,309.3407343,1.5283203125
,309.3466489,1.5283203125
,309.3682141,1.5234375
,309.4035006,1.5185546875
,309.4064081,1.513671875
,309.42551,1.513671875
,309.4722447,1.513671875
,309.4729057,1.5087890625
,309.484473,1.50390625
,309.535352,1.50390625
,309.5362636,1.50390625
,309.5480504,1.4990234375
,309.5671567,1.494140625
,309.6031535,1.494140625
,309.6231724,1.4892578125
,309.6236251,1.4892578125
,309.6577204,1.4892578125
,309.6796417,1.484375
,309.686942,1.484375
,309.7375857,1.484375
,309.7380289,1.484375
,309.7477927,1.484375
,309.784479,1.484375
,309.789973,1.4892578125
,309.8065166,1.4990234375
,309.825643,1.5087890625
,309.8622381,1.5185546875
,309.8655481,1.5234375
,309.9019955,1.533203125
,309.9072183,1.5380859375
,309.9587584,1.5478515625
,309.959264,1.5478515625
,309.9682947,1.552734375
,309.9865645,1.552734375
,310.0069335,1.552734375
,310.0439199,1.552734375
,310.0445795,1.5478515625
,310.0813887,1.54296875
,310.1136206,1.54296875
,310.1140551,1.5380859375
,310.1283271,1.5380859375
,310.1450459,1.533203125
,310.1783455,1.533203125
,310.1998813,1.5283203125
,310.2069848,1.5283203125
,310.2432433,1.5234375
,310.2459186,1.5234375
,310.2834783,1.5185546875
,310.2889978,1.513671875
,310.3255769,1.513671875
,310.3262348,1.5087890625
,310.3499351,1.5087890625
,310.3670353,1.50390625
,310.4020334,1.4990234375
,310.4079065,1.4990234375
,310.4275695,1.4990234375
,310.4657373,1.494140625
,310.4688098,1.4892578125
,310.4888998,1.4892578125
,310.5252256,1.4892578125
,310.5514166,1.4892578125
,310.552292,1.484375
,310.5670638,1.4794921875
,310.6015364,1.4794921875
,310.623476,1.484375
,310.6265074,1.484375
,310.6641034,1.4892578125
,310.6694082,1.4990234375
,310.7071588,1.5087890625
,310.7077223,1.5185546875
,310.7278314,1.5283203125
,310.7636508,1.533203125
,310.7668153,1.5380859375
,310.8030713,1.54296875
,310.8083046,1.5478515625
,310.847077,1.5478515625
,310.847801,1.5478515625
,310.881462,1.5478515625
,310.9026314,1.54296875
,310.9076231,1.54296875
,310.9273591,1.54296875
,310.948552,1.5380859375
,310.9690308,1.533203125
,311.0029991,1.533203125
,311.0242927,1.533203125
,311.0301036,1.5283203125
,311.0484411,1.5283203125
,311.069027,1.5234375
,311.1032799,1.5185546875
,311.1069772,1.5185546875
,311.1403249,1.5185546875
,311.1609566,1.513671875
,311.1698736,1.5087890625
,311.1906327,1.5087890625
,311.2262242,1.5087890625
,311.2549142,1.50390625
,311.2553508,1.4990234375
,311.2677098,1.4990234375
,311.3041568,1.494140625
,311.3102576,1.494140625
,311.3274432,1.494140625
,311.3656117,1.4892578125
,311.3860382,1.4892578125
,311.3893913,1.484375
,311.4254885,1.4892578125
,311.4259568,1.4892578125
,311.4627373,1.494140625
,311.4687354,1.4990234375
,311.4886901,1.5087890625
,311.5375187,1.5185546875
,311.538045,1.5283203125
,311.5693708,1.533203125
,311.5702555,1.5380859375
,311.5893112,1.54296875
,311.6069572,1.5478515625
,311.6445084,1.552734375
,311.6477013,1.552734375
,311.6834794,1.5478515625
,311.6883461,1.5478515625
,311.7258674,1.5478515625
,311.7290327,1.54296875
,311.7647271,1.5380859375
,311.785489,1.5380859375
,311.7926909,1.533203125
,311.811809,1.533203125
,311.8278526,1.5283203125
,311.8625966,1.5283203125
,311.8848658,1.5234375
,311.8881456,1.5234375
,311.9259438,1.5185546875
,311.9595748,1.5185546875
,311.9600454,1.513671875
,311.9713602,1.5087890625
,311.9884211,1.5087890625
,312.0256944,1.50390625
,312.0287689,1.50390625
,312.0641834,1.4990234375
,312.0712824,1.494140625
,312.1060762,1.494140625
,312.110833,1.494140625
,312.1467232,1.4892578125
,312.1526091,1.4892578125
,312.1682694,1.484375
,312.2089116,1.484375
,312.2094067,1.484375
,312.2294276,1.484375
,312.2507551,1.484375
,312.3019079,1.4892578125
,312.3023381,1.4990234375
,312.3113726,1.5087890625
,312.3274956,1.5185546875
,312.3637918,1.5234375
,312.3846355,1.533203125
,312.3903479,1.5380859375
,312.4112217,1.5478515625
,312.4315365,1.5478515625
,312.4511702,1.552734375
,312.4865519,1.552734375
,312.4914549,1.552734375
,312.5132177,1.552734375
,312.5516949,1.5478515625
,312.5521528,1.5478515625
,312.5702372,1.54296875
,312.6079877,1.54296875
,312.6084358,1.5380859375
,312.6552932,1.5380859375
,312.6559478,1.533203125
,312.6873235,1.5283203125
,312.6903063,1.5283203125
,312.7091523,1.5234375
,312.7464534,1.5185546875
,312.7472867,1.5185546875
,312.7936692,1.513671875
,312.7942925,1.513671875
,312.8254568,1.5087890625
,312.830681,1.50390625
,312.8671956,1.4990234375
,312.8729109,1.4990234375
,312.8902737,1.4990234375
,312.9100444,1.4990234375
,312.9299414,1.494140625
,312.9676305,1.4892578125
,312.9706431,1.4892578125
,312.9910992,1.4892578125
,313.0436295,1.4892578125
,313.0441109,1.484375
,313.0515704,1.4794921875
,313.0682042,1.4794921875
,313.1052532,1.4794921875
,313.136237,1.484375
,313.1368961,1.4892578125
,313.1526385,1.494140625
,313.1984434,1.50390625
,313.199087,1.513671875
,313.212898,1.5234375
,313.2329988,1.533203125
,313.268388,1.5380859375
,313.2690396,1.54296875
,313.2900858,1.5478515625
,313.326421,1.552734375
,313.3322664,1.552734375
,313.3525466,1.5478515625
,313.3877047,1.5478515625
,313.3932354,1.5478515625
,313.4137911,1.54296875
,313.449573,1.54296875
,313.450259,1.5380859375
,313.4961687,1.5380859375
,313.4967877,1.533203125
,313.5105798,1.533203125
,313.544802,1.5283203125
,313.5643058,1.5234375
,313.5743935,1.5234375
,313.5942549,1.5185546875
,313.6083632,1.5185546875
,313.6427266,1.513671875
,313.6642692,1.5087890625
,313.6725009,1.5087890625
,313.6929554,1.50390625
,313.7290264,1.50390625
,313.7339528,1.4990234375
,313.7782666,1.494140625
,313.7787203,1.494140625
,313.7899689,1.494140625
,313.839915,1.4892578125
,313.840533,1.4892578125
,313.8496501,1.484375
,313.8725876,1.484375
,313.9082155,1.484375
,313.9134442,1.484375
,313.9647973,1.4794921875
,313.9654613,1.4794921875
,313.9743955,1.484375
,313.9920291,1.494140625
,314.0275936,1.50390625
,314.0324775,1.5087890625
,314.0691986,1.5185546875
,314.0699744,1.5283203125
,314.1071418,1.533203125
,314.1278728,1.5380859375
,314.1352048,1.54296875
,314.1562646,1.54296875
,314.1709777,1.5478515625
,314.2062381,1.5478515625
,314.2107622,1.54296875
,314.2483604,1.54296875
,314.2761122,1.5380859375
,314.2766345,1.5380859375
,314.2961559,1.5380859375
,314.3143503,1.533203125
,314.3353387,1.5283203125
,314.3511445,1.5283203125
,314.4005842,1.5283203125
,314.40126,1.5234375
,314.4128495,1.5185546875
,314.4632996,1.5185546875
,314.4639519,1.513671875
,314.4833323,1.513671875
,314.4951774,1.5087890625
,314.5117473,1.50390625
,314.5313085,1.50390625
,314.5657837,1.4990234375
,314.5865462,1.4990234375
,314.5925811,1.4990234375
,314.628056,1.494140625
,314.6334141,1.4892578125
,314.6792143,1.4892578125
,314.6798568,1.4892578125
,314.6972177,1.4892578125
,314.7146256,1.484375
,314.7489161,1.484375
,314.7518494,1.4794921875
,314.7902309,1.484375
,314.7938663,1.484375
,314.8377662,1.484375
,314.8383338,1.4892578125
,314.8551022,1.494140625
,314.9001851,1.5087890625
,314.9008551,1.5185546875
,314.9117153,1.5234375
,314.9618518,1.533203125
,314.9625064,1.5380859375
,314.9817217,1.5478515625
,314.9945474,1.552734375
,315.0307911,1.552734375
,315.0360764,1.552734375
,315.0725614,1.552734375
,315.0729385,1.552734375
,315.1191459,1.5478515625
,315.1198163,1.54296875
,315.1344976,1.54296875
,315.1685174,1.5380859375
,315.1734557,1.5380859375
,315.2107449,1.533203125
,315.2310881,1.533203125
,315.2317782,1.5283203125
,315.2666798,1.5283203125
,315.2711682,1.5234375
,315.3065535,1.5234375
,315.337362,1.5185546875
,315.3380336,1.513671875
,315.3550562,1.513671875
,315.3894482,1.513671875
,315.4100853,1.5087890625
,315.4191828,1.50390625
,315.4376692,1.50390625
,315.4525568,1.4990234375
,315.4920596,1.4990234375
,315.5223463,1.494140625
,315.5229215,1.494140625
,315.5370906,1.4892578125
,315.5560036,1.4892578125
,315.5919696,1.4892578125
,315.5986153,1.484375
,315.617002,1.484375
,315.6330774,1.4794921875
,315.6683145,1.4794921875
,315.6885641,1.4794921875
,315.6936276,1.4794921875
,315.7290547,1.484375
,315.7498657,1.494140625
,315.7568219,1.50390625
,315.7917723,1.513671875
,315.7922788,1.5234375
,315.8352837,1.5283203125
,315.8357275,1.5380859375
,315.856844,1.54296875
,315.875395,1.5478515625
,315.913501,1.552734375
,315.9434973,1.552734375
,315.9439503,1.552734375
,315.9590087,1.552734375
,315.9737186,1.552734375
,315.9946092,1.5478515625
,316.0369955,1.54296875
,316.037573,1.54296875
,316.0539682,1.54296875
,316.090605,1.5380859375
,316.1111917,1.533203125
,316.1170565,1.533203125
,316.1376515,1.5283203125
,316.1763949,1.5283203125
,316.177053,1.5234375
,316.1936852,1.5185546875
,316.2295513,1.513671875
,316.2498167,1.513671875
,316.2552732,1.513671875
,316.3063387,1.5087890625
,316.306988,1.50390625
,316.317475,1.50390625
,316.3533284,1.50390625
,316.3539685,1.4990234375
,316.3877196,1.4990234375
,316.4085205,1.494140625
,316.4163002,1.494140625
,316.4355519,1.494140625
,316.4722321,1.494140625
,316.4770445,1.4892578125
,316.4981696,1.4892578125
,316.5156789,1.484375
,316.5517633,1.4892578125
,316.5537648,1.4892578125
,316.5916036,1.494140625
,316.5945255,1.50390625
,316.6325349,1.5087890625
,316.6351099,1.5234375
,316.6731735,1.533203125
,316.6780875,1.5380859375
,316.6953975,1.54296875
,316.7154346,1.5478515625
,316.7504764,1.552734375
,316.7558557,1.552734375
,316.7769476,1.552734375
,316.7967192,1.552734375
,316.8307393,1.5478515625
,316.8514432,1.5478515625
,316.8593316,1.5478515625
,316.9040036,1.54296875
,316.9044639,1.5380859375
,316.9141804,1.5380859375
,316.9504357,1.533203125
,316.9714148,1.533203125
,316.9778538,1.5283203125
,317.0133351,1.5234375
,317.0164617,1.5234375
,317.0526997,1.5185546875
,317.0730816,1.5185546875
,317.0737314,1.513671875
,317.1110557,1.5087890625
,317.1160345,1.5087890625
,317.1505486,1.5087890625
,317.1714009,1.50390625
,317.177226,1.4990234375
,317.2173734,1.4990234375
,317.2179406,1.494140625
,317.2547618,1.494140625
,317.2552105,1.494140625
,317.2945635,1.4892578125
,317.2950983,1.4892578125
,317.3158936,1.4892578125
,317.3579376,1.4892578125
,317.3583987,1.484375
,317.3771255,1.484375
,317.4138325,1.484375
,317.4142852,1.484375
,317.4655971,1.494140625
,317.4662154,1.4990234375
,317.4757358,1.5087890625
,317.5110793,1.5185546875
,317.5316904,1.5283203125
,317.5377247,1.5380859375
,317.590526,1.54296875
,317.5909715,1.5478515625
,317.5992443,1.552734375
,317.6198568,1.5576171875
,317.6370146,1.5576171875
,317.6711872,1.5576171875
,317.6767042,1.552734375
,317.7125428,1.552734375
,317.7186287,1.5478515625
,317.7381797,1.5478515625
,317.7740394,1.54296875
,317.7797445,1.5380859375
,317.7972268,1.5380859375
,317.8318085,1.533203125
,317.8378354,1.533203125
,317.8579485,1.5283203125
,317.8934058,1.5234375
,317.8985067,1.5234375
,317.934396,1.5185546875
,317.9639473,1.5185546875
,317.9644248,1.513671875
,317.9751618,1.5087890625
,318.0256812,1.5087890625
,318.0261167,1.50390625
,318.0388188,1.50390625
,318.0586589,1.4990234375
,318.0967253,1.494140625
,318.0973864,1.494140625
,318.1338115,1.494140625
,318.1541153,1.494140625
,318.1546305,1.4892578125
,318.2005693,1.4892578125
,318.2010279,1.484375
,318.2187566,1.484375
,318.2377799,1.484375
,318.2729519,1.4794921875
,318.293077,1.4794921875
,318.3015515,1.4794921875
,318.3195333,1.484375
,318.3562679,1.494140625
,318.3816231,1.50390625
,318.3822844,1.513671875
,318.3973287,1.5234375
,318.4420794,1.533203125
,318.4425121,1.54296875
,318.4610075,1.5478515625
,318.4953327,1.5478515625
,318.4982879,1.552734375
,318.5369411,1.5576171875
,318.5375636,1.5576171875
,318.5578057,1.552734375
,318.5782292,1.5478515625
,318.6000056,1.5478515625
,318.6206012,1.5478515625
,318.6385161,1.54296875
,318.6785694,1.5380859375
,318.6790437,1.5380859375
,318.6974135,1.533203125
,318.7318742,1.533203125
,318.7367499,1.533203125
,318.7738973,1.5283203125
,318.804167,1.5234375
,318.8048308,1.5185546875
,318.8187583,1.5185546875
,318.8543153,1.513671875
,318.8750604,1.5087890625
,318.880039,1.5087890625
,318.9028528,1.50390625
,318.9182598,1.50390625
,318.9582226,1.50390625
,318.9586968,1.4990234375
,318.978973,1.494140625
,319.0157695,1.494140625
,319.0211033,1.494140625
,319.0586784,1.494140625
,319.059568,1.4892578125
,319.0791889,1.4892578125
,319.1159355,1.484375
,319.119153,1.484375
,319.1556986,1.484375
,319.161837,1.484375
,319.1811169,1.4892578125
,319.2164171,1.4990234375
,319.221836,1.5087890625
,319.2697333,1.5185546875
,319.2701868,1.5234375
,319.2778478,1.533203125
,319.3140199,1.5380859375
,319.3362336,1.5478515625
,319.3393431,1.552734375
,319.3747703,1.552734375
,319.3963676,1.552734375
,319.3996043,1.552734375
,319.4344798,1.552734375
,319.4375118,1.5478515625
,319.4875794,1.54296875
,319.4881644,1.54296875
,319.4983725,1.5380859375
,319.5359875,1.5380859375
,319.541695,1.533203125
,319.581135,1.533203125
,319.5817892,1.5283203125
,319.6140767,1.5283203125
,319.6210647,1.5234375
,319.6552171,1.5185546875
,319.6583454,1.513671875
,319.7053225,1.513671875
,319.7058103,1.513671875
,319.7238316,1.5087890625
,319.7410662,1.50390625
,319.7818525,1.50390625
,319.7825357,1.4990234375
,319.8179764,1.4990234375
,319.8184179,1.4990234375
,319.8524743,1.494140625
,319.8738684,1.4892578125
,319.8817864,1.4892578125
,319.9002871,1.4892578125
,319.9378575,1.4892578125
,319.9400419,1.484375
,319.9842069,1.484375
,319.9846356,1.4794921875
,320.0049418,1.4794921875
,320.019939,1.484375
,320.0643504,1.484375
,320.0648033,1.4892578125
,320.0816199,1.4990234375
,320.1259397,1.5087890625
,320.1264598,1.5185546875
,320.1437203,1.5283203125
,320.1580125,1.533203125
,320.1919625,1.54296875
,320.2138627,1.5478515625
,320.2209211,1.5576171875
,320.2408576,1.5576171875
,320.279447,1.5576171875
,320.2801249,1.5576171875
,320.3305406,1.5576171875
,320.3310201,1.552734375
,320.3519578,1.5478515625
,320.3596327,1.54296875
,320.4079653,1.54296875
,320.4084002,1.54296875
,320.4213784,1.5380859375
,320.4575322,1.533203125
,320.4622842,1.5283203125
,320.4980353,1.5283203125
,320.5031803,1.5283203125
,320.524005,1.5234375
,320.5415117,1.5185546875
,320.5588452,1.513671875
,320.5952582,1.513671875
,320.6156401,1.5087890625
,320.6203681,1.5087890625
,320.6597543,1.50390625
,320.6643865,1.4990234375
,320.6830064,1.4990234375
,320.7011921,1.4990234375
,320.7371608,1.494140625
,320.7413554,1.4892578125
,320.7824974,1.4892578125
,320.7831217,1.4892578125
,320.8174629,1.4892578125
,320.8230222,1.484375
,320.8577624,1.484375
,320.8632314,1.4794921875
,320.8815932,1.4794921875
,320.9007323,1.4794921875
,320.9379269,1.4794921875
,320.9419138,1.484375
,320.9632059,1.4892578125
,320.9978399,1.4990234375
,321.0035089,1.513671875
,321.0252425,1.5234375
,321.0436836,1.5283203125
,321.0645981,1.5380859375
,321.1075808,1.54296875
,321.1082467,1.5478515625
,321.1213979,1.552734375
,321.1572509,1.552734375
,321.1632041,1.552734375
,321.1830286,1.552734375
,321.2192099,1.552734375
,321.2254657,1.5478515625
,321.2635472,1.54296875
,321.2640131,1.54296875
,321.2961806,1.5380859375
,321.3170801,1.5380859375
,321.3210035,1.533203125
,321.3579354,1.533203125
,321.3628663,1.5283203125
,321.4010637,1.5283203125
,321.4018006,1.5234375
,321.4532542,1.5185546875
,321.453878,1.513671875
,321.48337,1.513671875
,321.4839939,1.5087890625
,321.5029743,1.5087890625
,321.5384325,1.50390625
,321.5433717,1.50390625
,321.5931299,1.4990234375
,321.5937021,1.4990234375
,321.6145324,1.494140625
,321.6218527,1.494140625
,321.6422242,1.4892578125
,321.6763259,1.4892578125
,321.681012,1.4892578125
,321.7353161,1.4892578125
,321.7360418,1.484375
,321.7440331,1.4794921875
,321.7792278,1.4794921875
,321.8111398,1.484375
,321.8116756,1.4892578125
,321.8239109,1.494140625
,321.8593988,1.50390625
,321.8627583,1.513671875
,321.8831704,1.5234375
,321.9195105,1.533203125
,321.9244204,1.5380859375
,321.9624399,1.54296875
,321.9654368,1.5478515625
,321.9828099,1.552734375
,322.0038717,1.552734375
,322.0248407,1.552734375
,322.0429951,1.5478515625
,322.0926678,1.5478515625
,322.0932052,1.54296875
,322.1235302,1.54296875
,322.1241486,1.5380859375
,322.1621404,1.533203125
,322.162609,1.533203125
,322.2001651,1.5283203125
,322.2030846,1.5283203125
,322.2388299,1.5234375
,322.2589228,1.5185546875
,322.2638247,1.5185546875
,322.300239,1.513671875
,322.306002,1.513671875
,322.3219335,1.5087890625
,322.3562721,1.50390625
,322.3769432,1.50390625
,322.3814869,1.4990234375
,322.4179381,1.4990234375
,322.4389899,1.494140625
,322.4443021,1.4892578125
,322.4823351,1.4892578125
,322.5036606,1.4892578125
,322.5045898,1.4892578125
,322.540347,1.484375
,322.561342,1.4794921875
,322.5619823,1.4794921875
,322.6079147,1.4794921875
,322.6083664,1.4794921875
,322.6292709,1.474609375
,322.6478274,1.474609375
,322.666859,1.4794921875
,322.7041406,1.4892578125
,322.7047964,1.494140625
,322.7212286,1.50390625
,322.7436216,1.513671875
,322.7798757,1.5234375
,322.7873021,1.533203125
,322.8060927,1.54296875
,322.8266736,1.5478515625
,322.8605786,1.552734375
,322.8658233,1.5576171875
,322.8837291,1.5576171875
,322.9190445,1.5576171875
,322.9217791,1.552734375
,322.956775,1.552734375
,322.978854,1.5478515625
,322.9874116,1.5478515625
,323.0046919,1.54296875
,323.0416181,1.5380859375
,323.0469144,1.533203125
,323.0632891,1.533203125
,323.1000025,1.533203125
,323.1031392,1.5283203125
,323.1385512,1.5234375
,323.1592209,1.5185546875
,323.1661593,1.5185546875
,323.1875871,1.513671875
,323.2052131,1.5087890625
,323.2417422,1.50390625
,323.245856,1.50390625
,323.2649066,1.4990234375
,323.2849188,1.4990234375
,323.3252081,1.494140625
,323.3256725,1.4892578125
,323.3613799,1.4892578125
,323.3660448,1.484375
,323.4054263,1.484375
,323.4059137,1.484375
,323.4516879,1.4794921875
,323.4523386,1.474609375
,323.4819946,1.474609375
,323.4848723,1.474609375
,323.5198632,1.474609375
,323.5255311,1.4697265625
,323.5462613,1.4697265625
,323.5832561,1.474609375
,323.5871781,1.4794921875
,323.6042775,1.4892578125
,323.6401561,1.4990234375
,323.6469798,1.5087890625
,323.6654724,1.5185546875
,323.6857758,1.5283203125
,323.722486,1.5380859375
,323.7426187,1.54296875
,323.7487649,1.5478515625
,323.769103,1.552734375
,323.7845182,1.552734375
,323.805376,1.552734375
,323.8427382,1.5478515625
,323.8433864,1.5478515625
,323.8803196,1.54296875
,323.8860239,1.54296875
,323.9216294,1.5380859375
,323.9266373,1.533203125
,323.9631129,1.533203125
,323.9699571,1.533203125
,323.9895936,1.5283203125
,324.0066607,1.5234375
,324.0410913,1.5185546875
,324.0451731,1.5185546875
,324.0893593,1.513671875
,324.0899568,1.513671875
,324.1361756,1.5087890625
,324.1366024,1.50390625
,324.1570941,1.4990234375
,324.1645811,1.4990234375
,324.2001861,1.4990234375
,324.2320392,1.494140625
,324.2325084,1.4892578125
,324.2464451,1.4892578125
,324.2823966,1.4892578125
,324.2856185,1.484375
,324.3236007,1.484375
,324.3292163,1.4794921875
,324.3460072,1.4794921875
,324.38685,1.4794921875
,324.3874752,1.4794921875
,324.4211412,1.474609375
,324.4267678,1.4794921875
,324.4616199,1.484375
,324.4828335,1.494140625
,324.4879212,1.50390625
,324.5047936,1.513671875
,324.5423697,1.5234375
,324.5639354,1.5283203125
,324.5643835,1.5380859375
,324.6052201,1.54296875
,324.6351276,1.5478515625
,324.635557,1.5478515625
,324.6467958,1.5478515625
,324.6662575,1.552734375
,324.7120386,1.5478515625
,324.7124854,1.54296875
,324.7335721,1.5380859375
,324.74582,1.5380859375
,324.7920631,1.5380859375
,324.792715,1.533203125
,324.8224125,1.5283203125
,324.8295536,1.5283203125
,324.8503344,1.5234375
,324.8693446,1.5234375
,324.8874999,1.5185546875
,324.9061486,1.513671875
,324.9453896,1.5087890625
,324.9480613,1.5087890625
,324.9667696,1.5087890625
,325.0049878,1.50390625
,325.0081742,1.4990234375
,325.0442324,1.494140625
,325.0639946,1.494140625
,325.0646609,1.494140625
,325.0999634,1.4892578125
,325.1210617,1.484375
,325.1269767,1.484375
,325.1632526,1.484375
,325.1682305,1.484375
,325.2118589,1.4794921875
,325.2122986,1.474609375
,325.2300618,1.474609375
,325.2472367,1.474609375
,325.2687916,1.474609375
,325.304818,1.474609375
,325.3074592,1.474609375
,325.3417055,1.4794921875
,325.3625504,1.494140625
,325.3697222,1.50390625
,325.4045291,1.513671875
,325.4095763,1.5234375
,325.4466823,1.533203125
,325.4473449,1.5380859375
,325.483073,1.5478515625
,325.5055074,1.552734375
,325.5078339,1.552734375
,325.5525548,1.552734375
,325.553076,1.552734375
,325.5689711,1.552734375
,325.6140923,1.5478515625
,325.6145217,1.54296875
,325.6271927,1.54296875
,325.6636426,1.54296875
,325.6703494,1.5380859375
,325.6887467,1.533203125
,325.7257394,1.533203125
,325.7283221,1.5283203125
,325.7652808,1.5234375
,325.7704973,1.5234375
,325.7859215,1.5185546875
,325.8222756,1.513671875
,325.8268877,1.5087890625
,325.8629742,1.5087890625
,325.8677399,1.5087890625
,325.9040857,1.50390625
,325.9091817,1.4990234375
,325.9456593,1.494140625
,325.9529122,1.494140625
,325.9669761,1.494140625
,326.00381,1.4892578125
,326.0060749,1.484375
,326.0427146,1.484375
,326.0648737,1.484375
,326.0684372,1.484375
,326.1044716,1.4794921875
,326.109654,1.474609375
,326.1470725,1.474609375
,326.1513611,1.474609375
,326.1673903,1.4794921875
,326.2065213,1.484375
,326.2071905,1.4892578125
,326.2458238,1.4990234375
,326.2502937,1.513671875
,326.3016098,1.5234375
,326.3022465,1.5283203125
,326.3123179,1.533203125
,326.3327699,1.54296875
,326.3481307,1.5478515625
,326.3857179,1.552734375
,326.3907506,1.552734375
,326.4115082,1.5478515625
,326.4295675,1.5478515625
,326.4685283,1.5478515625
,326.4691159,1.5478515625
,326.5065138,1.54296875
,326.527579,1.5380859375
,326.5281665,1.533203125
,326.5645835,1.533203125
,326.5693737,1.533203125
,326.605033,1.5283203125
,326.6094427,1.5234375
,326.6422698,1.5234375
,326.6619112,1.5185546875
,326.6727526,1.5185546875
,326.6876417,1.513671875
,326.7224812,1.5087890625
,326.7428406,1.50390625
,326.7479504,1.50390625
,326.7829399,1.4990234375
,326.8153325,1.4990234375
,326.815936,1.494140625
,326.8322534,1.494140625
,326.868084,1.4892578125
,326.871459,1.4892578125
,326.8923967,1.484375
,326.9099293,1.484375
,326.9572792,1.4794921875
,326.9579519,1.4794921875
,326.9715563,1.4794921875
,327.0198663,1.4794921875
,327.0205142,1.484375
,327.0334232,1.4892578125
,327.053796,1.50390625
,327.0682655,1.513671875
,327.1139962,1.5185546875
,327.1146491,1.5234375
,327.1345185,1.533203125
,327.1520503,1.5380859375
,327.1712227,1.54296875
,327.2088955,1.54296875
,327.2405459,1.54296875
,327.2409998,1.54296875
,327.2484918,1.54296875
,327.283914,1.54296875
,327.3187913,1.5380859375
,327.3193412,1.533203125
,327.3319391,1.533203125
,327.3509411,1.533203125
,327.386204,1.5283203125
,327.4060915,1.5234375
,327.4088025,1.5185546875
,327.4475196,1.5185546875
,327.4479693,1.5185546875
,327.4919228,1.513671875
,327.4924993,1.5087890625
,327.5124687,1.50390625
,327.5331315,1.50390625
,327.5525335,1.4990234375
,327.5718558,1.4990234375
,327.6054127,1.494140625
,327.6263284,1.4892578125
,327.6317188,1.4892578125
,327.6492981,1.4892578125
,327.6695942,1.484375
,327.7102539,1.484375
,327.7112351,1.4794921875
,327.7459695,1.4794921875
,327.7734046,1.4794921875
,327.774013,1.474609375
,327.8086216,1.474609375
,327.8090706,1.474609375
,327.8317779,1.4794921875
,327.8690445,1.484375
,327.8697018,1.494140625
,327.9076618,1.50390625
,327.9105604,1.513671875
,327.9456783,1.5234375
,327.9656691,1.533203125
,327.9713304,1.5380859375
,327.9911978,1.54296875
,328.0276678,1.5478515625
,328.0306531,1.552734375
,328.0704961,1.552734375
,328.0711576,1.552734375
,328.1051131,1.5478515625
,328.1265331,1.5478515625
,328.1321933,1.5478515625
,328.1540665,1.54296875
,328.1739375,1.5380859375
,328.191526,1.533203125
,328.22567,1.533203125
,328.2460932,1.5283203125
,328.2517642,1.5283203125
,328.2714487,1.5234375
,328.3094017,1.5185546875
,328.3125,1.513671875
,328.3481167,1.513671875
,328.3694407,1.5087890625
,328.3727989,1.50390625
,328.3916414,1.4990234375
,328.4299862,1.4990234375
,328.4304953,1.4990234375
,328.4683832,1.494140625
,328.4903764,1.4892578125
,328.4934407,1.4892578125
,328.5304063,1.484375
,328.5514069,1.484375
,328.5518556,1.484375
,328.5898478,1.4794921875
,328.5905401,1.4794921875
,328.6282043,1.474609375
,328.6329158,1.474609375
,328.6717809,1.474609375
,328.6724399,1.474609375
,328.6908618,1.4794921875
,328.7101936,1.484375
,328.7563197,1.494140625
,328.7571708,1.5087890625
,328.7861225,1.513671875
,328.7940654,1.5234375
,328.8286034,1.533203125
,328.8342226,1.5380859375
,328.8800869,1.54296875
,328.8805301,1.5478515625
,328.9099676,1.5478515625
,328.9104383,1.5478515625
,328.9462281,1.5478515625
,328.9660674,1.5478515625
,328.9719348,1.54296875
,329.0194749,1.5380859375
,329.0199059,1.5380859375
,329.0346054,1.5380859375
,329.0690052,1.533203125
,329.0893732,1.5283203125
,329.0922502,1.5234375
,329.1282829,1.5234375
,329.1318801,1.5185546875
,329.1676218,1.5185546875
,329.1759257,1.513671875
,329.1953358,1.5087890625
,329.2299396,1.50390625
,329.2507832,1.50390625
,329.2514631,1.4990234375
,329.28896,1.494140625
,329.2917254,1.494140625
,329.3272058,1.4892578125
,329.3476749,1.4892578125
,329.355086,1.4892578125
,329.3920904,1.484375
,329.3949114,1.4794921875
,329.4438286,1.4794921875
,329.4442768,1.4794921875
,329.4515048,1.4794921875
,329.488772,1.474609375
,329.4938057,1.474609375
,329.5151615,1.474609375
,329.5507778,1.4794921875
,329.553943,1.484375
,329.5909853,1.494140625
,329.5964552,1.4990234375
,329.6323155,1.5087890625
,329.632977,1.5185546875
,329.670306,1.5283203125
,329.6751864,1.533203125
,329.693995,1.5380859375
,329.7397128,1.54296875
,329.7401601,1.54296875
,329.760264,1.54296875
,329.776329,1.54296875
,329.8118874,1.5380859375
,329.8125191,1.5380859375
,329.8474688,1.5380859375
,329.867188,1.533203125
,329.8727896,1.5283203125
,329.9093179,1.5283203125
,329.9420731,1.5283203125
,329.942885,1.5234375
,329.9572256,1.5185546875
,329.9727018,1.513671875
,330.0080718,1.513671875
,330.0135602,1.5087890625
,330.0662014,1.5087890625
,330.0668719,1.50390625
,330.0765989,1.4990234375
,330.1121863,1.494140625
,330.1156549,1.494140625
,330.1499753,1.494140625
,330.1707338,1.4892578125
,330.1730993,1.484375
,330.2069978,1.484375
,330.2282848,1.484375
,330.2346638,1.484375
,330.2723037,1.4794921875
,330.2752645,1.474609375
,330.3092729,1.474609375
,330.330625,1.474609375
,330.3382947,1.474609375
,330.3571011,1.474609375
,330.3744001,1.4794921875
,330.3947372,1.4892578125
,330.4384521,1.4990234375
,330.4390714,1.5087890625
,330.4688043,1.5185546875
,330.4751078,1.5234375
,330.5104183,1.533203125
,330.5312836,1.5380859375
,330.5343794,1.54296875
,330.5534578,1.5478515625
,330.5981448,1.5478515625
,330.5986278,1.5478515625
,330.6140936,1.5478515625
,330.6611329,1.54296875
,330.6615681,1.54296875
,330.6761133,1.5380859375
,330.7108285,1.533203125
,330.731648,1.533203125
,330.7323241,1.533203125
,330.7552322,1.5283203125
,330.801298,1.5234375
,330.802143,1.5185546875
,330.8165938,1.5185546875
,330.8527916,1.513671875
,330.8569292,1.5087890625
,330.8734317,1.50390625
,330.9130842,1.50390625
,330.913784,1.4990234375
,330.9496363,1.4990234375
,330.9744371,1.494140625
,330.9748721,1.4892578125
,331.0224264,1.4892578125
,331.0228701,1.4892578125
,331.052612,1.484375
,331.055879,1.484375
,331.0920486,1.4794921875
,331.1130687,1.4794921875
,331.1164872,1.4794921875
,331.137274,1.4794921875
,331.171855,1.474609375
,331.1765516,1.474609375
,331.2127158,1.4794921875
,331.2178569,1.484375
,331.2548812,1.494140625
,331.2555353,1.4990234375
,331.2922062,1.5087890625
,331.2957619,1.5185546875
,331.3311222,1.5283203125
,331.3357605,1.5380859375
,331.373761,1.54296875
,331.3769571,1.5478515625
,331.4268448,1.552734375
,331.4275554,1.552734375
,331.4563549,1.552734375
,331.456788,1.552734375
,331.5022035,1.5478515625
,331.5026315,1.5478515625
,331.5174382,1.54296875
,331.5646068,1.54296875
,331.5652193,1.5380859375
,331.5782215,1.533203125
,331.5927808,1.533203125
,331.6291709,1.5283203125
,331.6607479,1.5234375
,331.6613762,1.5185546875
,331.6768296,1.5185546875
,331.7146701,1.513671875
,331.7172377,1.513671875
,331.738728,1.5087890625
,331.7581198,1.50390625
,331.7959842,1.4990234375
,331.7990528,1.4990234375
,331.8163786,1.4990234375
,331.8363623,1.494140625
,331.8575137,1.4892578125
,331.8951589,1.4892578125
,331.8958261,1.4892578125
,331.9330258,1.4892578125
,331.9390809,1.484375
,331.974695,1.4794921875
,331.9808428,1.4794921875
,331.996213,1.4794921875
,332.0362476,1.4794921875
,332.036693,1.4794921875
,332.0674266,1.484375
,332.0787154,1.4892578125
,332.0983886,1.4990234375
,332.1352734,1.5087890625
,332.1383668,1.5185546875
,332.1548311,1.5234375
,332.1933738,1.533203125
,332.1986849,1.5380859375
,332.2409402,1.54296875
,332.2415507,1.5478515625
,332.2567517,1.5478515625
,332.2918942,1.5478515625
,332.3129917,1.5478515625
,332.3186712,1.5478515625
,332.3363827,1.54296875
,332.3718845,1.5380859375
,332.3748722,1.5380859375
,332.4255637,1.5380859375
,332.4262017,1.533203125
,332.4459776,1.5283203125
,332.4604482,1.5234375
,332.4962411,1.5234375
,332.5009295,1.5185546875
,332.5209806,1.5185546875
,332.5377212,1.513671875
,332.5802893,1.5087890625
,332.5807225,1.50390625
,332.6274973,1.50390625
,332.6279347,1.4990234375
,332.6398679,1.4990234375
,332.6756661,1.494140625
,332.6796254,1.4892578125
,332.7138245,1.4892578125
,332.7351842,1.4892578125
,332.7360068,1.484375
,332.7841369,1.484375
,332.7846751,1.4794921875
,332.8142512,1.4794921875
,332.8190227,1.4794921875
,332.839391,1.4794921875
,332.8601803,1.484375
,332.878761,1.4892578125
,332.8966166,1.4990234375
,332.9398211,1.5087890625
,332.9404742,1.5185546875
,332.9602261,1.5234375
,332.978723,1.533203125
,333.0161929,1.5380859375
,333.0191392,1.54296875
,333.0404304,1.5478515625
,333.0576019,1.5478515625
,333.0777815,1.5478515625
,333.114068,1.5478515625
,333.1182893,1.5478515625
,333.1546573,1.54296875
,333.1591965,1.5380859375
,333.1959915,1.5380859375
,333.1987947,1.5380859375
,333.2335183,1.533203125
,333.2646501,1.5283203125
,333.2650988,1.5234375
,333.2795633,1.5234375
,333.2996126,1.5185546875
,333.334267,1.5185546875
,333.3372702,1.513671875
,333.376484,1.5087890625
,333.379831,1.5087890625
,333.4163849,1.50390625
,333.4217334,1.4990234375
,333.4376378,1.4990234375
,333.4578637,1.494140625
,333.5004216,1.494140625
,333.5010083,1.4892578125
,333.5187495,1.4892578125
,333.5394644,1.484375
,333.5776273,1.484375
,333.6091993,1.484375
,333.609868,1.484375
,333.6186263,1.4794921875
,333.6536161,1.4794921875
,333.6736278,1.4794921875
,333.6794048,1.4794921875
,333.7153602,1.4892578125
,333.7200396,1.494140625
,333.7559328,1.50390625
,333.7588225,1.513671875
,333.7785176,1.5234375
,333.7977906,1.533203125
,333.8423886,1.5380859375
,333.8431804,1.54296875
,333.8638611,1.5478515625
,333.8817624,1.552734375
,333.9185141,1.5576171875
,333.9191717,1.5576171875
,333.9723049,1.552734375
,333.9728889,1.5478515625
,334.0039037,1.5478515625
,334.0043495,1.5478515625
,334.0181684,1.54296875
,334.0532422,1.5380859375
,334.074146,1.5380859375
,334.0822157,1.533203125
,334.127259,1.533203125
,334.1276855,1.5283203125
,334.1413225,1.5234375
,334.1582062,1.5185546875
,334.192845,1.5185546875
,334.2129968,1.513671875
,334.2190719,1.5087890625
,334.2539399,1.50390625
,334.2749702,1.50390625
,334.2830078,1.4990234375
,334.3034684,1.4990234375
,334.3234007,1.494140625
,334.3371609,1.4892578125
,334.3754684,1.4892578125
,334.379556,1.4892578125
,334.416572,1.484375
,334.419518,1.484375
,334.4572648,1.4794921875
,334.4787493,1.4794921875
,334.4794157,1.4794921875
,334.4983486,1.4794921875
,334.5353292,1.474609375
,334.5566675,1.474609375
,334.557199,1.4794921875
,334.5934859,1.4892578125
,334.6142175,1.4990234375
,334.6222428,1.5087890625
,334.6566582,1.5185546875
,334.6618609,1.5283203125
,334.6840108,1.5380859375
,334.719067,1.54296875
,334.7198508,1.5478515625
,334.7571907,1.552734375
,334.7620465,1.552734375
,334.8000679,1.5576171875
,334.8007977,1.552734375
,334.8464363,1.5478515625
,334.8471939,1.5478515625
,334.8647013,1.54296875
,334.8830515,1.54296875
,334.9177371,1.5380859375
,334.9184415,1.533203125
,334.9561609,1.533203125
,334.9747046,1.5283203125
,334.9825453,1.5283203125
,335.002507,1.5234375
,335.0389929,1.5185546875
,335.0414354,1.513671875
,335.0607951,1.513671875
,335.0797319,1.5087890625
,335.1282206,1.5087890625
,335.1286579,1.50390625
,335.1498894,1.4990234375
,335.1639608,1.4990234375
,335.1833387,1.4990234375
,335.2196246,1.494140625
,335.2227867,1.4892578125
,335.2405489,1.4892578125
,335.2794346,1.4892578125
,335.2800898,1.484375
,335.3180253,1.484375
,335.3496876,1.4794921875
,335.3503625,1.4794921875
,335.3613866,1.4794921875
