fs,t,y
52.823968876210856,0.4869910000000002,1.6357421875
,0.4875257999999998,1.630859375
,0.5306842999999999,1.6455078125
,0.5607234999999999,1.669921875
,0.5609739,1.7138671875
,0.5725530999999999,1.7333984375
,0.5914310999999999,1.73828125
,0.6244995000000002,1.73828125
,0.6297429000000001,1.806640625
,0.6651120000000001,1.8408203125
,0.6723816,1.884765625
,0.7159509000000002,1.8994140625
,0.7161865000000001,1.9091796875
,0.7329314,1.9091796875
,0.7529542999999999,1.904296875
,0.7702521999999998,1.884765625
,0.8081499000000001,1.89453125
,0.8101155000000002,1.89453125
,0.8451835999999999,1.8798828125
,0.8513514,1.865234375
,0.8880094000000001,1.8505859375
,0.8926919999999998,1.8310546875
,0.9337968999999999,1.8115234375
,0.9341830999999998,1.796875
,0.9505406000000001,1.77734375
,0.9693847,1.7724609375
,1.0106779000000001,1.7626953125
,1.0114705000000002,1.748046875
,1.0422889999999998,1.7333984375
,1.053789,1.728515625
,1.0733386,1.708984375
,1.092069,1.69921875
,1.1266202,1.689453125
,1.1477895,1.6650390625
,1.1480796,1.6650390625
,1.1974075000000002,1.66015625
,1.1977451000000001,1.6552734375
,1.2271135000000002,1.640625
,1.2315949000000002,1.6357421875
,1.2680855000000002,1.62109375
,1.2729943000000001,1.6162109375
,1.2885871999999998,1.611328125
,1.3220827000000002,1.650390625
,1.3429874000000002,1.6845703125
,1.3509413000000001,1.728515625
,1.3978904,1.7626953125
,1.3981322,1.8017578125
,1.4118219,1.8310546875
,1.4481118999999998,1.8701171875
,1.4513105,1.89453125
,1.4926373000000002,1.904296875
,1.4928816999999999,1.9140625
,1.5120032,1.9140625
,1.531184,1.923828125
,1.5668976,1.9189453125
,1.5717853000000002,1.9140625
,1.6085851,1.89453125
,1.6114994999999999,1.875
,1.6477968,1.8505859375
,1.6526109,1.8310546875
,1.6699644999999999,1.8115234375
,1.7040928000000002,1.8115234375
,1.7250656000000002,1.796875
,1.7303066999999999,1.77734375
,1.7659452999999998,1.767578125
,1.7995998000000002,1.7431640625
,1.7998376999999999,1.7236328125
,1.8141381,1.69921875
,1.8501864000000001,1.6943359375
,1.8505771000000002,1.6748046875
,1.8857838,1.669921875
,1.9071851999999998,1.66015625
,1.9116426999999998,1.6552734375
,1.9550429,1.6357421875
,1.955358,1.630859375
,1.9737535,1.6162109375
,2.0085694,1.6015625
,2.0088956,1.591796875
,2.0458388999999997,1.591796875
,2.0796136,1.58203125
,2.0798961,1.591796875
,2.0920156,1.591796875
,2.1426406,1.5966796875
,2.1428911,1.6259765625
,2.1533995,1.6552734375
,2.2059392000000004,1.6943359375
,2.2061916999999998,1.71875
,2.2115396,1.767578125
,2.2477869999999998,1.7919921875
,2.2528634,1.8212890625
,2.2716162000000004,1.826171875
,2.3135357,1.8408203125
,2.3139763,1.8408203125
,2.3489819,1.85546875
,2.3763236,1.845703125
,2.3767148000000002,1.8359375
,2.4223787999999997,1.826171875
,2.4226989000000003,1.8017578125
,2.4318864,1.796875
,2.4690402000000002,1.7822265625
,2.4737628999999997,1.77734375
,2.5101069999999996,1.7529296875
,2.5120369,1.73828125
,2.5624459999999996,1.71875
,2.5628776999999996,1.7041015625
,2.5925949,1.6845703125
,2.5928335000000002,1.6796875
,2.6269484,1.6650390625
,2.6319790000000003,1.6650390625
,2.6722789000000002,1.650390625
,2.7021641,1.6357421875
,2.7024033999999997,1.6259765625
,2.7159538000000003,1.6259765625
,2.7649008999999998,1.611328125
,2.7651393000000004,1.6015625
,2.7729939999999997,1.6015625
,2.8078819,1.5966796875
,2.8133397,1.5966796875
,2.8576676,1.5869140625
,2.8579149,1.5966796875
,2.8785757,1.591796875
,2.8963488999999996,1.5966796875
,2.9103741000000003,1.6162109375
,2.9470332,1.6552734375
,2.9798996000000004,1.6943359375
,2.9801570999999996,1.73828125
,2.9936378,1.7724609375
,3.0425490999999996,1.8017578125
,3.0427925,1.8408203125
,3.0620424,1.85546875
,3.0761592999999996,1.8798828125
,3.0949248000000003,1.884765625
,3.1164069999999997,1.865234375
,3.132255,1.8310546875
,3.1524039999999998,1.85546875
,3.1861765,1.8603515625
,3.2078366999999997,1.865234375
,3.2146076,1.8505859375
,3.2358409000000004,1.8408203125
,3.2715781,1.8212890625
,3.2772929,1.8115234375
,3.2919682000000003,1.7919921875
,3.3133441,1.7919921875
,3.3343722,1.7724609375
,3.370468,1.787109375
,3.3727359999999997,1.7822265625
,3.4186669,1.767578125
,3.4189610000000004,1.7578125
,3.448442,1.73828125
,3.4561731,1.728515625
,3.4713329999999996,1.708984375
,3.5108740000000003,1.7138671875
,3.5113697999999998,1.7041015625
,3.5492017999999996,1.6943359375
,3.5539259000000003,1.6845703125
,3.5886249,1.6748046875
,3.609469,1.6650390625
,3.6146893,1.66015625
,3.633133,1.650390625
,3.6523483,1.6455078125
,3.6978178,1.66015625
,3.6982149,1.650390625
,3.7118724,1.669921875
,3.7480072,1.6845703125
,3.7685769999999996,1.71875
,3.7762446,1.748046875
,3.8238687999999996,1.7822265625
,3.8242928000000003,1.806640625
,3.8343567,1.85546875
,3.8531180000000003,1.8798828125
,3.8894330999999998,1.9140625
,3.8939109,1.923828125
,3.9151930999999998,1.93359375
,3.9630875999999997,1.923828125
,3.9633297,1.9140625
,3.9767287,1.89453125
,4.0131938,1.85546875
,4.0178597,1.8505859375
,4.0340929,1.8359375
,4.0750919,1.8408203125
,4.0756118,1.8310546875
,4.1110521,1.826171875
,4.115743,1.8115234375
,4.1497403,1.806640625
,4.1701433,1.7919921875
,4.1767155,1.77734375
,4.1924101,1.7578125
,4.2301646,1.748046875
,4.234783,1.7333984375
,4.2568557,1.7236328125
,4.2754179,1.7138671875
,4.2968778,1.69921875
,4.3318479,1.6943359375
,4.3374134,1.6748046875
,4.3869743,1.6650390625
,4.3873795,1.6552734375
,4.3945033,1.669921875
,4.4309206,1.6650390625
,4.435902,1.66015625
,4.4565276,1.6455078125
,4.4945609,1.640625
,4.4966015,1.6259765625
,4.5422488,1.6455078125
,4.5426744,1.66015625
,4.5538679,1.69921875
,4.6047838,1.728515625
,4.6051685,1.767578125
,4.6162771,1.796875
,4.6518258,1.8359375
,4.6544818,1.865234375
,4.690699,1.8798828125
,4.6957909,1.904296875
,4.7129568,1.9091796875
,4.7494051,1.9189453125
,4.7543256,1.9140625
,4.789507,1.9091796875
,4.795442,1.89453125
,4.8163865,1.8798828125
,4.835691,1.8603515625
,4.8559825,1.845703125
,4.8908693,1.826171875
,4.9119077,1.8212890625
,4.9150168,1.8017578125
,4.9484403,1.8017578125
,4.9684397,1.796875
,4.9742929,1.77734375
,5.0110585,1.7578125
,5.0182814,1.73828125
,5.0367807,1.71875
,5.0710868,1.6943359375
,5.0916621,1.6796875
,5.092451,1.6552734375
,5.11416,1.6552734375
,5.150169,1.6357421875
,5.1552221,1.6357421875
,5.1942022,1.62109375
,5.1946001,1.611328125
,5.2387649,1.591796875
,5.2391557,1.58203125
,5.2589747,1.5625
,5.2743197,1.5673828125
,5.31018,1.572265625
,5.3160626,1.5771484375
,5.364878,1.6015625
,5.3651277,1.6259765625
,5.3755737,1.669921875
,5.4129573,1.7041015625
,5.4182167,1.748046875
,5.4353345,1.7822265625
,5.4734952,1.8212890625
,5.4738858,1.8408203125
,5.5182131,1.8603515625
,5.5184727,1.8701171875
,5.5362374,1.875
,5.5718903,1.8603515625
,5.593189,1.845703125
,5.5986509,1.8359375
,5.6188705,1.806640625
,5.6389999,1.7578125
,5.6545915,1.7138671875
,5.6912525,1.7431640625
,5.7213539,1.7431640625
,5.7216773,1.7431640625
,5.7364905,1.7333984375
,5.7825862,1.7236328125
,5.7829859,1.708984375
,5.7986533,1.69921875
,5.8141124,1.6748046875
,5.8492436,1.6748046875
,5.8759681,1.66015625
,5.8762071,1.650390625
,5.9116118,1.6259765625
,5.9176163,1.630859375
,5.9560794,1.6259765625
,5.9563972,1.611328125
,6.002338,1.6015625
,6.0027344,1.58203125
,6.0322222,1.58203125
,6.0352753,1.58203125
,6.0735981,1.58203125
,6.0789756,1.58203125
,6.097595500000001,1.5869140625
,6.1175973,1.611328125
,6.157427,1.650390625
,6.157816800000001,1.6845703125
,6.177917600000001,1.7333984375
,6.213265399999999,1.7578125
,6.2178372,1.787109375
,6.267849399999999,1.81640625
,6.268242900000001,1.8212890625
,6.276719,1.8310546875
,6.313519400000001,1.826171875
,6.3452666,1.8310546875
,6.3455604,1.81640625
,6.3558691,1.8115234375
,6.394216200000001,1.796875
,6.3944828000000005,1.7919921875
,6.436596700000001,1.77734375
,6.436801300000001,1.77734375
,6.457995,1.7626953125
,6.5020001,1.7578125
,6.5022485,1.7431640625
,6.531202,1.7333984375
,6.534765,1.7138671875
,6.5786812999999995,1.7236328125
,6.578993199999999,1.71875
,6.6016262999999995,1.7041015625
,6.618279299999999,1.6943359375
,6.6571110000000004,1.6796875
,6.657352100000001,1.6748046875
,6.6929967,1.6552734375
,6.7198844,1.6552734375
,6.7202006999999995,1.6455078125
,6.7373832,1.650390625
,6.772906300000001,1.640625
,6.777431099999999,1.640625
,6.812734600000001,1.6259765625
,6.8171248,1.630859375
,6.8523934,1.6259765625
,6.8734223,1.640625
,6.880423800000001,1.6650390625
,6.8960265,1.6845703125
,6.9386331000000006,1.7333984375
,6.938880599999999,1.767578125
,6.973917500000001,1.806640625
,6.9780262,1.8359375
,7.0156694,1.8603515625
,7.036405500000001,1.8798828125
,7.0392496,1.89453125
,7.057663700000001,1.89453125
,7.0766100000000005,1.904296875
,7.1110273,1.8994140625
,7.1314864,1.89453125
,7.1363962,1.8701171875
,7.1730070999999995,1.8505859375
,7.192824699999999,1.8310546875
,7.2000644000000005,1.826171875
,7.2358119,1.81640625
,7.236198999999999,1.796875
,7.280119300000001,1.796875
,7.2803688,1.787109375
,7.3018845,1.77734375
,7.318820499999999,1.7578125
,7.3590406999999995,1.748046875
,7.3594311,1.7333984375
,7.3938284,1.71875
,7.4014536,1.69921875
,7.4375433,1.689453125
,7.438016299999999,1.6748046875
,7.481773799999999,1.6943359375
,7.4820212,1.689453125
,7.4984146,1.689453125
,7.5459475000000005,1.689453125
,7.546355800000001,1.6748046875
,7.5606480000000005,1.6650390625
,7.6082187999999995,1.650390625
,7.6086106000000004,1.6552734375
,7.617065200000001,1.66015625
,7.652888300000001,1.6943359375
,7.658639600000001,1.7236328125
,7.700089800000001,1.7578125
,7.7003378,1.787109375
,7.7358694,1.8359375
,7.738846799999999,1.865234375
,7.7758672,1.89453125
,7.776256,1.9091796875
,7.809784799999999,1.943359375
,7.831334999999999,1.953125
,7.837795099999999,1.9677734375
,7.8866718,1.9677734375
,7.887295699999999,1.953125
,7.8994879000000005,1.9384765625
,7.9200552,1.9189453125
,7.963942899999999,1.904296875
,7.9641821,1.8896484375
,7.9949192,1.8896484375
,7.998973599999999,1.8798828125
,8.0402015,1.8701171875
,8.0405182,1.8408203125
,8.073293,1.81640625
,8.0925833,1.7919921875
,8.0989332,1.77734375
,8.132024,1.7626953125
,8.141569,1.7138671875
,8.1619935,1.6845703125
,8.1783118,1.6455078125
,8.2143442,1.6650390625
,8.2189105,1.669921875
,8.2561907,1.6796875
,8.2884115,1.669921875
,8.288799,1.669921875
,8.3001238,1.6552734375
,8.335237,1.650390625
,8.3556574,1.630859375
,8.3581211,1.640625
,8.3977876,1.6455078125
,8.428362,1.669921875
,8.4286652,1.6943359375
,8.440218,1.728515625
,8.4913132,1.7431640625
,8.4916584,1.7919921875
,8.5013022,1.826171875
,8.5176143,1.845703125
,8.5662872,1.875
,8.5665309,1.89453125
,8.5808061,1.904296875
,8.6288198,1.904296875
,8.6290694,1.8994140625
,8.6398652,1.884765625
,8.6778529,1.865234375
,8.6781859,1.8505859375
,8.723559,1.8359375
,8.7238008,1.8212890625
,8.7402156,1.81640625
,8.7594453,1.7919921875
,8.7940718,1.77734375
,8.8142901,1.7724609375
,8.8220016,1.7431640625
,8.8669121,1.7236328125
,8.8671682,1.7041015625
,8.8780486,1.7041015625
,8.9292074,1.689453125
,8.9294516,1.6796875
,8.939061,1.66015625
,8.9766507,1.6455078125
,8.9821836,1.630859375
,9.0171834,1.6259765625
,9.0207126,1.6064453125
,9.0573438,1.6015625
,9.0601654,1.58203125
,9.0805916,1.5869140625
,9.1172782,1.5771484375
,9.1177898,1.5869140625
,9.1654062,1.6015625
,9.1660293,1.62109375
,9.1872337,1.6552734375
,9.2037483,1.6796875
,9.2436762,1.71875
,9.2439137,1.748046875
,9.2603758,1.7919921875
,9.3053333,1.81640625
,9.3055708,1.8408203125
,9.3228496,1.8505859375
,9.3413831,1.85546875
,9.3769798,1.8505859375
,9.3816222,1.845703125
,9.4003199,1.826171875
,9.4353652,1.8212890625
,9.4404247,1.81640625
,9.4596569,1.8017578125
,9.4958394,1.787109375
,9.5011549,1.787109375
,9.537362,1.7919921875
,9.5418306,1.7822265625
,9.5632808,1.77734375
,9.5794902,1.7578125
,9.6145743,1.7626953125
,9.6343258,1.7529296875
,9.6414109,1.748046875
,9.6619262,1.728515625
,9.6962702,1.71875
,9.7021076,1.69921875
,9.720908,1.6845703125
,9.7390206,1.6650390625
,9.759459,1.6796875
,9.7950027,1.6796875
,9.8152295,1.6650390625
,9.8210681,1.6552734375
,9.8607213,1.6455078125
,9.8609585,1.6357421875
,9.9074703,1.62109375
,9.907715,1.62109375
,9.9298169,1.630859375
,9.9437489,1.66015625
,9.9592409,1.689453125
,9.9994859,1.7333984375
,9.9997549,1.767578125
,10.035314,1.81640625
,10.0632739,1.845703125
,10.0636676,1.875
,10.1095136,1.904296875
,10.109903,1.9140625
,10.1234791,1.9140625
,10.1401423,1.904296875
,10.1849134,1.9140625
,10.1853775,1.89453125
,10.2056768,1.884765625
,10.2216773,1.865234375
,10.2654894,1.8505859375
,10.2658695,1.8359375
,10.284672,1.826171875
,10.3001537,1.806640625
,10.3205603,1.806640625
,10.3573375,1.7919921875
,10.3619863,1.7822265625
,10.3992721,1.7578125
,10.3996733,1.7529296875
,10.4490834,1.73828125
,10.4493192,1.71875
,10.4697748,1.69921875
,10.4799444,1.6845703125
,10.526949,1.6796875
,10.5272021,1.6748046875
,10.5419682,1.6748046875
,10.5880757,1.6650390625
,10.5883193,1.6552734375
,10.6018766,1.6455078125
,10.6374076,1.6357421875
,10.6576712,1.62109375
,10.6632138,1.58203125
,10.697293,1.552734375
,10.6999909,1.5966796875
,10.7438883,1.650390625
,10.7442782,1.689453125
,10.7646768,1.73828125
,10.7842772,1.7724609375
,10.8206269,1.8115234375
,10.8250895,1.8359375
,10.8668693,1.865234375
,10.8671162,1.8798828125
,10.8822632,1.9091796875
,10.9176295,1.9140625
,10.9236467,1.9287109375
,10.9597921,1.9140625
,10.9639983,1.904296875
,10.9994034,1.884765625
,11.0044398,1.8701171875
,11.0203134,1.845703125
,11.057954,1.85546875
,11.0604954,1.845703125
,11.0970592,1.8310546875
,11.1325993,1.8212890625
,11.1329394,1.806640625
,11.1455193,1.7919921875
,11.1646682,1.7724609375
,11.1840215,1.7529296875
,11.2012421,1.73828125
,11.2220274,1.7333984375
,11.2561595,1.71875
,11.277862,1.708984375
,11.2827992,1.6943359375
,11.3190256,1.689453125
,11.3236953,1.6748046875
,11.3580467,1.66015625
,11.3790093,1.650390625
,11.3812183,1.6357421875
,11.4013885,1.630859375
,11.4439488,1.6162109375
,11.4443302,1.611328125
,11.4877461,1.6015625
,11.4883078,1.6015625
,11.504668,1.6064453125
,11.5410109,1.630859375
,11.5440112,1.66015625
,11.58263,1.708984375
,11.5830182,1.7431640625
,11.6274855,1.7919921875
,11.6277937,1.81640625
,11.6435749,1.845703125
,11.6891121,1.8603515625
,11.6893526,1.884765625
,11.7101807,1.8896484375
,11.7232679,1.875
,11.7607709,1.8701171875
,11.761075,1.8505859375
,11.7974577,1.8408203125
,11.8029252,1.826171875
,11.8240707,1.81640625
,11.8587055,1.8017578125
,11.8643254,1.787109375
,11.9102608,1.767578125
,11.9104979,1.7529296875
,11.9219347,1.728515625
,11.9559827,1.728515625
,11.9770225,1.7138671875
,11.9813989,1.69921875
,12.019288,1.689453125
,12.0497784,1.669921875
,12.050104,1.6552734375
,12.0650629,1.6455078125
,12.1002576,1.640625
,12.1006186,1.6259765625
,12.1377669,1.6259765625
,12.1429158,1.62109375
,12.1763969,1.611328125
,12.1988058,1.591796875
,12.2065492,1.58203125
,12.2244252,1.5673828125
,12.2596765,1.552734375
,12.2599197,1.552734375
,12.2969311,1.572265625
,12.3172509,1.591796875
,12.3235536,1.630859375
,12.3599283,1.6650390625
,12.3646412,1.6943359375
,12.4012169,1.7236328125
,12.4058697,1.7431640625
,12.4418484,1.767578125
,12.4476063,1.7724609375
,12.4937719,1.787109375
,12.4940951,1.787109375
,12.5029464,1.7919921875
,12.5392165,1.787109375
,12.5442685,1.77734375
,12.5847218,1.7626953125
,12.5851273,1.767578125
,12.6048259,1.7529296875
,12.6388876,1.7431640625
,12.6594384,1.7431640625
,12.6644784,1.71875
,12.7000416,1.71875
,12.7025755,1.708984375
,12.7413697,1.69921875
,12.7623774,1.6796875
,12.7669598,1.6650390625
,12.7852943,1.650390625
,12.8213233,1.640625
,12.8511726,1.6259765625
,12.8515258,1.6357421875
,12.8640665,1.6259765625
,12.8992258,1.62109375
,12.903408,1.611328125
,12.938851,1.6064453125
,12.9586316,1.591796875
,12.9649182,1.591796875
,13.0039973,1.5869140625
,13.0042339,1.572265625
,13.0400117,1.5771484375
,13.0425169,1.5771484375
,13.0782121,1.58203125
,13.0982907,1.6015625
,13.1058364,1.6455078125
,13.1416375,1.6748046875
,13.1471681,1.7138671875
,13.1662877,1.7431640625
,13.1889014,1.73828125
,13.202987,1.7333984375
,13.2394189,1.7919921875
,13.2452148,1.8212890625
,13.2791414,1.8408203125
,13.2995847,1.8603515625
,13.3048821,1.85546875
,13.341467,1.8505859375
,13.3467641,1.8310546875
,13.3972274,1.8212890625
,13.3976183,1.8017578125
,13.4276659,1.806640625
,13.4279074,1.8017578125
,13.4627064,1.796875
,13.4652735,1.7822265625
,13.5053374,1.7724609375
,13.5056034,1.7529296875
,13.526795,1.73828125
,13.5431034,1.71875
,13.5800365,1.71875
,13.6148425,1.69921875
,13.615254,1.7138671875
,13.6252568,1.7138671875
,13.6602377,1.7041015625
,13.6808557,1.6943359375
,13.6871583,1.689453125
,13.7212299,1.6748046875
,13.741459,1.66015625
,13.7443506,1.66015625
,13.7811414,1.6552734375
,13.7861055,1.650390625
,13.8205158,1.6455078125
,13.8407533,1.6357421875
,13.8477168,1.630859375
,13.8918285,1.6357421875
,13.8921277,1.640625
,13.9049721,1.6796875
,13.9413752,1.7236328125
,13.9439247,1.7578125
,13.9792159,1.787109375
,13.9989457,1.8115234375
,14.005845999999998,1.845703125
,14.049767,1.85546875
,14.0500856,1.875
,14.080724700000001,1.8798828125
,14.087767199999998,1.8896484375
,14.105693599999999,1.8798828125
,14.1404827,1.8896484375
,14.146066399999999,1.8798828125
,14.1805096,1.8701171875
,14.200731099999999,1.85546875
,14.206804600000002,1.8408203125
,14.2427685,1.81640625
,14.268744900000002,1.806640625
,14.2691442,1.787109375
,14.285469899999999,1.7578125
,14.3197908,1.7529296875
,14.3257652,1.7431640625
,14.359587600000001,1.728515625
,14.379855200000002,1.7138671875
,14.3875828,1.7041015625
,14.4253487,1.6845703125
,14.4297449,1.6650390625
,14.446079300000001,1.6455078125
,14.466306500000002,1.640625
,14.501282799999998,1.6259765625
,14.506985799999999,1.62109375
,14.527197000000001,1.5966796875
,14.5460965,1.58203125
,14.581989400000001,1.5771484375
,14.6018994,1.5625
,14.607406000000001,1.54296875
,14.624090299999999,1.5380859375
,14.659385499999999,1.5478515625
,14.6804479,1.5478515625
,14.686955399999999,1.5625
,14.722109499999998,1.5771484375
,14.7267421,1.611328125
,14.763804799999999,1.640625
,14.768595300000001,1.6796875
,14.784371799999999,1.7041015625
,14.819749600000002,1.7431640625
,14.841615099999999,1.77734375
,14.846768399999998,1.806640625
,14.8925585,1.81640625
,14.8927968,1.8408203125
,14.905802099999999,1.85546875
,14.9422834,1.8408203125
,14.962595499999999,1.8359375
,14.969059999999999,1.8212890625
,15.020361600000001,1.8115234375
,15.0207567,1.796875
,15.0266904,1.7919921875
,15.068219500000001,1.77734375
,15.068606599999999,1.767578125
,15.0875211,1.7529296875
,15.1231817,1.73828125
,15.1449511,1.71875
,15.149966299999999,1.7138671875
,15.166564000000001,1.6943359375
,15.1856586,1.6943359375
,15.219945599999999,1.6943359375
,15.240726800000001,1.6796875
,15.248212200000001,1.6650390625
,15.268230899999999,1.650390625
,15.304861599999999,1.640625
,15.307415599999999,1.6162109375
,15.343395099999999,1.6064453125
,15.363694800000001,1.591796875
,15.3678296,1.6015625
,15.409709,1.5869140625
,15.4099502,1.591796875
,15.428242999999998,1.5869140625
,15.4645768,1.58203125
,15.4670411,1.5771484375
,15.5046718,1.5771484375
,15.5333024,1.5771484375
,15.533621400000001,1.62109375
,15.5473954,1.6552734375
,15.5943315,1.689453125
,15.5945842,1.71875
,15.608253699999999,1.748046875
,15.6426893,1.7724609375
,15.663567,1.796875
,15.668329400000001,1.8310546875
,15.689696000000001,1.845703125
,15.733139900000001,1.81640625
,15.733377399999998,1.8310546875
,15.753829499999998,1.845703125
,15.7678953,1.8505859375
,15.801458,1.8505859375
,15.8224424,1.8359375
,15.8303455,1.8212890625
,15.8713154,1.8212890625
,15.8715586,1.8017578125
,15.906403000000001,1.7919921875
,15.9066401,1.7724609375
,15.9419584,1.77734375
,15.947656299999998,1.7626953125
,15.983810900000002,1.7626953125
,15.9890155,1.748046875
,16.0239815,1.7431640625
,16.0282075,1.7236328125
,16.0645646,1.7236328125
,16.0850516,1.708984375
,16.087531,1.7138671875
,16.1363607,1.7041015625
,16.1366035,1.7041015625
,16.1476611,1.6845703125
,16.1978461,1.689453125
,16.1982995,1.6845703125
,16.2184061,1.669921875
,16.229435,1.66015625
,16.262657,1.650390625
,16.2680495,1.650390625
,16.3058552,1.640625
,16.3063693,1.6455078125
,16.3424689,1.6552734375
,16.3624396,1.6796875
,16.3686987,1.6943359375
,16.4170796,1.7236328125
,16.4174104,1.7431640625
,16.4368926,1.7822265625
,16.4467506,1.806640625
,16.4810865,1.8310546875
,16.5116487,1.865234375
,16.5120326,1.8701171875
,16.5307802,1.875
,16.5737668,1.865234375
,16.5741489,1.865234375
,16.5917741,1.845703125
,16.6261366,1.8310546875
,16.629318,1.8115234375
,16.6644989,1.8115234375
,16.6672392,1.8017578125
,16.6889872,1.8017578125
,16.7270164,1.787109375
,16.7295138,1.7724609375
,16.751083,1.7578125
,16.7850283,1.7431640625
,16.805582,1.7236328125
,16.8080601,1.728515625
,16.8277967,1.7236328125
,16.86173,1.708984375
,16.8844346,1.7041015625
,16.8911306,1.689453125
,16.929599,1.6796875
,16.9299032,1.66015625
,16.9639682,1.6552734375
,16.9849935,1.640625
,16.9879553,1.6455078125
,17.0392358,1.6357421875
,17.0396243,1.6357421875
,17.0508036,1.62109375
,17.0696202,1.62109375
,17.1043262,1.611328125
,17.1296114,1.611328125
,17.1298726,1.62109375
,17.1467456,1.6357421875
,17.1835582,1.6650390625
,17.1888952,1.7041015625
,17.2235201,1.748046875
,17.2289173,1.77734375
,17.2650042,1.8115234375
,17.2704564,1.8310546875
,17.3065515,1.85546875
,17.3069285,1.865234375
,17.3305578,1.8896484375
,17.3486061,1.845703125
,17.3942106,1.85546875
,17.3946173,1.85546875
,17.4094425,1.8505859375
,17.4464296,1.8359375
,17.47459,1.8310546875
,17.4749285,1.8212890625
,17.4935318,1.796875
,17.5298167,1.7822265625
,17.5301124,1.7626953125
,17.5667999,1.7578125
,17.5692633,1.7431640625
,17.6053572,1.728515625
,17.6109353,1.708984375
,17.646165,1.6943359375
,17.6528443,1.6796875
,17.6873888,1.6650390625
,17.6876261,1.6455078125
,17.7223314,1.66015625
,17.7424238,1.6552734375
,17.7498139,1.6552734375
,17.8006216,1.6552734375
,17.8010138,1.6357421875
,17.8118014,1.6259765625
,17.8633876,1.6064453125
,17.8637181,1.6015625
,17.8682834,1.5869140625
,17.9052081,1.591796875
,17.909804,1.58203125
,17.9553279,1.591796875
,17.9555778,1.6015625
,17.9708717,1.6357421875
,18.0060029,1.6650390625
,18.0263335,1.7041015625
,18.0294421,1.728515625
,18.0633291,1.7724609375
,18.0835964,1.7919921875
,18.0898035,1.826171875
,18.1253975,1.845703125
,18.1477777,1.8505859375
,18.152507,1.85546875
,18.1876505,1.845703125
,18.1929575,1.8408203125
,18.2122089,1.826171875
,18.2548516,1.787109375
,18.2551621,1.787109375
,18.2763208,1.796875
,18.292045,1.7919921875
,18.32706,1.77734375
,18.3302041,1.767578125
,18.367203,1.7529296875
,18.3741947,1.73828125
,18.3937015,1.71875
,18.4282128,1.71875
,18.4286005,1.6943359375
,18.4481951,1.69921875
,18.4849507,1.6845703125
,18.5056093,1.6943359375
,18.51269,1.6796875
,18.5487638,1.669921875
,18.5536581,1.650390625
,18.5942122,1.6455078125
,18.5946021,1.6259765625
,18.6095157,1.6357421875
,18.6444953,1.62109375
,18.671945,1.6259765625
,18.6722215,1.6162109375
,18.6932691,1.6162109375
,18.712674,1.6064453125
,18.7481342,1.6259765625
,18.7698921,1.650390625
,18.7702944,1.6748046875
,18.7903817,1.7236328125
,18.8285168,1.7578125
,18.8579758,1.7919921875
,18.8582925,1.8212890625
,18.8711453,1.845703125
,18.9056878,1.865234375
,18.9282109,1.8798828125
,18.9285958,1.8798828125
,18.9687762,1.89453125
,18.9690619,1.884765625
,19.0138429,1.8798828125
,19.0140782,1.865234375
,19.034936,1.8505859375
,19.0532221,1.8408203125
,19.0876409,1.8212890625
,19.0927532,1.8115234375
,19.1396322,1.796875
,19.1400252,1.787109375
,19.150704,1.767578125
,19.2001484,1.767578125
,19.2003917,1.7578125
,19.2206773,1.748046875
,19.2325205,1.728515625
,19.266873,1.7236328125
,19.2873313,1.708984375
,19.2946071,1.69921875
,19.3104339,1.6845703125
,19.3429468,1.689453125
,19.3640077,1.6796875
,19.3705666,1.6796875
,19.4184971,1.6650390625
,19.4187668,1.6455078125
,19.4387544,1.6357421875
,19.4528373,1.62109375
,19.497007,1.611328125
,19.4973961,1.5966796875
,19.5270559,1.6064453125
,19.5303353,1.611328125
,19.5733425,1.6357421875
,19.5736654,1.66015625
,19.595554,1.7041015625
,19.6141584,1.7333984375
,19.6528482,1.77734375
,19.6531467,1.8017578125
,19.6720081,1.845703125
,19.706768,1.8798828125
,19.7118452,1.89453125
,19.7459969,1.9140625
,19.7655759,1.923828125
,19.7759681,1.9384765625
,19.7946938,1.9287109375
,19.8304929,1.923828125
,19.8330488,1.904296875
,19.8559783,1.8505859375
,19.8695942,1.8017578125
,19.9159349,1.81640625
,19.9163258,1.8115234375
,19.9464231,1.8115234375
,19.9539506,1.7919921875
,19.9927772,1.7822265625
,19.9930124,1.7626953125
,20.0381627,1.7529296875
,20.0384014,1.7431640625
,20.0588449,1.7236328125
,20.0730122,1.71875
,20.0930141,1.7041015625
,20.1325873,1.6943359375
,20.1328267,1.6845703125
,20.1537094,1.6748046875
,20.1950327,1.66015625
,20.1952728,1.6455078125
,20.2120879,1.6357421875
,20.2306588,1.6357421875
,20.266136,1.630859375
,20.2869323,1.6357421875
,20.2923488,1.630859375
,20.3285198,1.62109375
,20.3344586,1.630859375
,20.3728482,1.6259765625
,20.3732396,1.650390625
,20.3918043,1.6748046875
,20.4261364,1.7236328125
,20.4462144,1.7529296875
,20.4537693,1.787109375
,20.5064298,1.806640625
,20.5066999,1.8310546875
,20.5158507,1.845703125
,20.5356267,1.8603515625
,20.5508532,1.8505859375
,20.5864906,1.865234375
,20.6169496,1.8603515625
,20.6173398,1.8505859375
,20.633427,1.8310546875
,20.6782734,1.8310546875
,20.6785116,1.81640625
,20.6944306,1.796875
,20.73021,1.7822265625
,20.7357845,1.767578125
,20.7714586,1.748046875
,20.771999,1.73828125
,20.7922266,1.7431640625
,20.829155,1.73828125
,20.8344751,1.7333984375
,20.8720059,1.71875
,20.8763118,1.7041015625
,20.9134216,1.6845703125
,20.9137171,1.6748046875
,20.9316683,1.6552734375
,20.9768845,1.6552734375
,20.9772892,1.66015625
,20.9962507,1.6455078125
,21.0134447,1.6455078125
,21.0542651,1.6357421875
,21.0864414,1.630859375
,21.0867598,1.6162109375
,21.0955639,1.6162109375
,21.1111381,1.6015625
,21.1473112,1.62109375
,21.1805737,1.62109375
,21.1809654,1.6552734375
,21.1942296,1.6796875
,21.2302711,1.7236328125
,21.2348033,1.7529296875
,21.2719612,1.787109375
,21.2723507,1.806640625
,21.2928869,1.85546875
,21.3134307,1.884765625
,21.347424,1.8994140625
,21.368383,1.9140625
,21.3736201,1.9140625
,21.4100927,1.9091796875
,21.4161362,1.89453125
,21.4596541,1.8798828125
,21.4600459,1.8603515625
,21.4735263,1.8603515625
,21.5212432,1.845703125
,21.5214889,1.8310546875
,21.5354402,1.81640625
,21.5550212,1.8017578125
,21.5913916,1.7822265625
,21.5947126,1.7724609375
,21.6469862,1.7626953125
,21.647396,1.748046875
,21.6590142,1.7333984375
,21.6746622,1.7138671875
,21.72361,1.7138671875
,21.7240223,1.7041015625
,21.7340713,1.69921875
,21.770305,1.6845703125
,21.8026891,1.6796875
,21.8029283,1.66015625
,21.8166303,1.6650390625
,21.8327121,1.650390625
,21.8677241,1.66015625
,21.8872139,1.6552734375
,21.8951535,1.6552734375
,21.9310891,1.640625
,21.9346185,1.6455078125
,21.985912,1.6455078125
,21.9862145,1.6552734375
,21.995536,1.6845703125
,22.0124026,1.708984375
,22.0651067,1.7529296875
,22.0654285,1.787109375
,22.0767274,1.826171875
,22.1128003,1.845703125
,22.1179891,1.875
,22.1363986,1.884765625
,22.1714985,1.8994140625
,22.171803,1.8994140625
,22.2052537,1.9140625
,22.2255411,1.8994140625
,22.2335469,1.89453125
,22.2742823,1.884765625
,22.2746774,1.865234375
,22.3115625,1.845703125
,22.318978,1.8310546875
,22.3374108,1.8212890625
,22.3579145,1.8017578125
,22.3793347,1.7578125
,22.3941884,1.7138671875
,22.4372163,1.7333984375
,22.4374585,1.73828125
,22.4690338,1.7431640625
,22.4753672,1.728515625
,22.5158796,1.7236328125
,22.5161211,1.708984375
,22.5352505,1.6943359375
,22.5535909,1.669921875
,22.5952685,1.6748046875
,22.5955159,1.669921875
,22.6410424,1.6552734375
,22.6414315,1.650390625
,22.6571379,1.6455078125
,22.6920112,1.6357421875
,22.6974385,1.62109375
,22.7337519,1.6162109375
,22.7340795,1.6064453125
,22.7536019,1.6259765625
,22.7931256,1.650390625
,22.793365,1.6845703125
,22.8420499,1.7138671875
,22.8422977,1.7578125
,22.8629771,1.7822265625
,22.8782594,1.8115234375
,22.9213484,1.8359375
,22.9217421,1.845703125
,22.9342517,1.865234375
,22.9698523,1.865234375
,22.9751745,1.8701171875
,23.0128525,1.85546875
,23.0334788,1.8505859375
,23.036213,1.826171875
,23.0734876,1.8115234375
,23.0737932,1.7919921875
,23.0958988,1.7919921875
,23.138624,1.7724609375
,23.1388691,1.7626953125
,23.1583645,1.7431640625
,23.1764421,1.7333984375
,23.2147091,1.7138671875
,23.2348287,1.7041015625
,23.2381442,1.689453125
,23.2768211,1.669921875
,23.277189,1.6552734375
,23.296698,1.6455078125
,23.3397749,1.6455078125
,23.340527,1.640625
,23.3556698,1.640625
,23.3894507,1.630859375
,23.4107523,1.62109375
,23.4178854,1.611328125
,23.4579396,1.6015625
,23.4732912,1.591796875
,23.4738093,1.6015625
,23.5220069,1.611328125
,23.5222488,1.6357421875
,23.5430397,1.6796875
,23.5588242,1.7041015625
,23.5788052,1.7431640625
,23.6169497,1.767578125
,23.6172703,1.8017578125
,23.6369917,1.8212890625
,23.6767141,1.85546875
,23.6769662,1.8701171875
,23.7127566,1.884765625
,23.7177035,1.875
,23.7544471,1.8701171875
,23.7575412,1.85546875
,23.7944883,1.8408203125
,23.7950208,1.8212890625
,23.8309371,1.8212890625
,23.835851,1.806640625
,23.8572096,1.81640625
,23.8942523,1.806640625
,23.8972148,1.796875
,23.9350803,1.787109375
,23.9372162,1.7724609375
,23.9732247,1.7626953125
,23.9934478,1.748046875
,23.9963864,1.748046875
,24.0321042,1.7431640625
,24.0369677,1.73828125
,24.0811855,1.7236328125
,24.0815526,1.7138671875
,24.0993486,1.69921875
,24.1343097,1.689453125
,24.1392262,1.669921875
,24.1757423,1.66015625
,24.1789061,1.6552734375
,24.1942392,1.6455078125
,24.2300667,1.6552734375
,24.2517384,1.66015625
,24.2585551,1.689453125
,24.2964936,1.7138671875
,24.2968907,1.7529296875
,24.3431038,1.77734375
,24.3438439,1.8115234375
,24.3623022,1.8310546875
,24.3777268,1.875
,24.4130556,1.8994140625
,24.417963,1.923828125
,24.4541567,1.93359375
,24.4821887,1.93359375
,24.4826324,1.923828125
,24.5009191,1.9189453125
,24.5438943,1.904296875
,24.5441336,1.884765625
,24.5579684,1.8798828125
,24.6055138,1.8701171875
,24.6058534,1.8603515625
,24.6173988,1.845703125
,24.654275,1.8359375
,24.6847637,1.8212890625
,24.6851923,1.806640625
,24.6952374,1.787109375
,24.7309207,1.787109375
,24.7507707,1.7724609375
,24.7589424,1.767578125
,24.7952186,1.7431640625
,24.7985147,1.7333984375
,24.8394127,1.7236328125
,24.8397998,1.7041015625
,24.8603986,1.689453125
,24.8798929,1.6796875
,24.9017993,1.6357421875
,24.9192066,1.5966796875
,24.93863,1.62109375
,24.9755135,1.630859375
,24.9777944,1.650390625
,25.0133449,1.6650390625
,25.0352658,1.7041015625
,25.0395199,1.7333984375
,25.0759848,1.7724609375
,25.1032408,1.796875
,25.1035676,1.845703125
,25.1195112,1.8701171875
,25.1649656,1.9091796875
,25.1655006,1.93359375
,25.1801542,1.943359375
,25.2261365,1.9482421875
,25.2263793,1.943359375
,25.2407219,1.93359375
,25.2568783,1.9140625
,25.3016684,1.9140625
,25.3019149,1.8994140625
,25.3234996,1.8896484375
,25.3402297,1.8701171875
,25.3747031,1.85546875
,25.3814813,1.8408203125
,25.4009756,1.826171875
,25.4184435,1.806640625
,25.4377183,1.8017578125
,25.4735119,1.796875
,25.4943425,1.77734375
,25.4986392,1.7626953125
,25.5327915,1.7431640625
,25.5534819,1.728515625
,25.5609427,1.7041015625
,25.5983146,1.6845703125
,25.5985572,1.6650390625
,25.6180995,1.6650390625
,25.6616381,1.650390625
,25.6620334,1.640625
,25.680452,1.6259765625
,25.7248181,1.6162109375
,25.7250578,1.6015625
,25.7405911,1.611328125
,25.7768084,1.6162109375
,25.7817454,1.6455078125
,25.8168685,1.6796875
,25.8375984,1.7041015625
,25.8379642,1.7431640625
,25.8809715,1.7724609375
,25.8812107,1.806640625
,25.9102413,1.8408203125
,25.920137,1.875
,25.9573853,1.89453125
,25.9770875,1.8994140625
,25.9773294,1.8994140625
,26.0207054,1.8994140625
,26.0209437,1.8896484375
,26.0515215,1.884765625
,26.059609,1.8701171875
,26.093485,1.8505859375
,26.1139228,1.8408203125
,26.1206652,1.806640625
,26.1591711,1.7919921875
,26.1595354,1.767578125
,26.1958944,1.767578125
,26.2008604,1.748046875
,26.2392271,1.7333984375
,26.2394709,1.7138671875
,26.2857116,1.69921875
,26.2859579,1.669921875
,26.3069764,1.66015625
,26.3197475,1.640625
,26.3649485,1.6357421875
,26.3653566,1.6259765625
,26.3792986,1.611328125
,26.4180204,1.591796875
,26.4206118,1.591796875
,26.4423576,1.5869140625
,26.4898057,1.572265625
,26.4901152,1.5625
,26.4980328,1.5625
,26.5358009,1.591796875
,26.5560353,1.6259765625
,26.5584933,1.6748046875
,26.5986677,1.708984375
,26.5989084,1.748046875
,26.6201317,1.7724609375
,26.6618902,1.796875
,26.6622964,1.8115234375
,26.682826,1.8408203125
,26.7013704,1.845703125
,26.7191906,1.85546875
,26.7566652,1.8701171875
,26.7866516,1.8603515625
,26.787023,1.85546875
,26.8033848,1.8408203125
,26.8480734,1.8408203125
,26.8483163,1.826171875
,26.8625278,1.81640625
,26.8796602,1.796875
,26.9145202,1.7919921875
,26.9345543,1.7822265625
,26.9402473,1.7822265625
,26.977058,1.7724609375
,26.9816375,1.7626953125
,27.0180518,1.748046875
,27.0231539,1.7333984375
,27.0389,1.7138671875
,27.080095,1.7236328125
,27.0803379,1.7236328125
,27.1006064,1.7041015625
,27.1364479,1.69921875
,27.1410271,1.6796875
,27.1772961,1.669921875
,27.1829818,1.650390625
,27.2205268,1.6455078125
,27.2207822,1.630859375
,27.2560132,1.6357421875
,27.2591668,1.640625
,27.3003248,1.66015625
,27.3323588,1.6845703125
,27.3327488,1.728515625
,27.3417861,1.7529296875
,27.3786602,1.787109375
,27.3831156,1.8212890625
,27.4030163,1.8408203125
,27.4245517,1.826171875
,27.439781,1.81640625
,27.474515,1.8701171875
,27.4943115,1.89453125
,27.5020795,1.9091796875
,27.5393986,1.8994140625
,27.5423234,1.8994140625
,27.5773606,1.884765625
,27.5978532,1.884765625
,27.6013676,1.865234375
,27.6415337,1.865234375
,27.6418494,1.85546875
,27.6890985,1.845703125
,27.6894173,1.826171875
,27.7031763,1.8212890625
,27.7389284,1.806640625
,27.7433571,1.7822265625
,27.7811126,1.7626953125
,27.7815108,1.7431640625
,27.8021781,1.73828125
,27.8215127,1.7236328125
,27.8592265,1.71875
,27.864111,1.708984375
,27.9062096,1.689453125
,27.9065217,1.6748046875
,27.9247787,1.66015625
,27.9408064,1.640625
,27.9768684,1.6552734375
,27.9811581,1.650390625
,28.0286442,1.650390625
,28.0288972,1.6552734375
,28.0428291,1.6552734375
,28.0766938,1.6796875
,28.0973263,1.7041015625
,28.1021839,1.7431640625
,28.1376377,1.7724609375
,28.1419441,1.8212890625
,28.1783129,1.85546875
,28.1813387,1.89453125
,28.2287777,1.9091796875
,28.2290168,1.943359375
,28.2491687,1.9482421875
,28.2611819,1.953125
,28.307245,1.9384765625
,28.3074826,1.9287109375
,28.329881,1.9091796875
,28.3414022,1.9189453125
,28.3773715,1.904296875
,28.4013009,1.8896484375
,28.4019279,1.875
,28.4384184,1.8603515625
,28.4445335,1.8359375
,28.4798765,1.81640625
,28.4851813,1.8017578125
,28.5030601,1.7822265625
,28.5376379,1.7724609375
,28.5427832,1.7578125
,28.5893338,1.73828125
,28.589757,1.71875
,28.6040569,1.7041015625
,28.6397797,1.6796875
,28.6454224,1.66015625
,28.6648807,1.6455078125
,28.6828132,1.6162109375
,28.7017019,1.611328125
,28.7378754,1.5966796875
,28.7573357,1.591796875
,28.7642462,1.572265625
,28.7847886,1.5625
,28.8035324,1.552734375
,28.8545773,1.5625
,28.8548591,1.572265625
,28.883822,1.62109375
,28.8840633,1.650390625
,28.9028656,1.689453125
,28.947416,1.7236328125
,28.9478154,1.7529296875
,28.9644834,1.7724609375
,29.0007994,1.8115234375
,29.0039794,1.8359375
,29.0411396,1.8408203125
,29.0458242,1.8603515625
,29.0631015,1.806640625
,29.0975708,1.8212890625
,29.1176804,1.81640625
,29.1252455,1.8212890625
,29.1623892,1.806640625
,29.1645244,1.796875
,29.2002065,1.7822265625
,29.2048557,1.7626953125
,29.2221563,1.73828125
,29.2564512,1.73828125
,29.2770571,1.728515625
,29.2825162,1.7138671875
,29.3153304,1.7041015625
,29.3346657,1.6845703125
,29.3465058,1.6650390625
,29.3969936,1.6455078125
,29.397411,1.6357421875
,29.4002959,1.6162109375
,29.4433319,1.6162109375
,29.4440424,1.6064453125
,29.4729793,1.5966796875
,29.4831825,1.5771484375
,29.5202864,1.5771484375
,29.5251027,1.5625
,29.5466019,1.5576171875
,29.5621077,1.5478515625
,29.5968222,1.552734375
,29.618093,1.5576171875
,29.6239176,1.5869140625
,29.6583321,1.6259765625
,29.66308,1.66015625
,29.6985287,1.7041015625
,29.7193006,1.7333984375
,29.7252339,1.7724609375
,29.7424359,1.796875
,29.7780395,1.8408203125
,29.7835588,1.8603515625
,29.831419,1.8798828125
,29.8317294,1.8896484375
,29.8444582,1.884765625
,29.892087,1.8798828125
,29.8923222,1.875
,29.9129768,1.85546875
,29.9257339,1.806640625
,29.9724099,1.8115234375
,29.9728016,1.796875
,29.9830771,1.8017578125
,30.018116300000003,1.8017578125
,30.038609700000002,1.8115234375
,30.045279100000002,1.796875
,30.080843899999998,1.7919921875
,30.086150000000004,1.77734375
,30.122581699999998,1.7626953125
,30.122826500000002,1.7431640625
,30.1602624,1.748046875
,30.165425999999997,1.73828125
,30.201607099999997,1.728515625
,30.204251300000003,1.7138671875
,30.2393224,1.69921875
,30.2600343,1.6796875
,30.2679907,1.6796875
,30.3118094,1.6650390625
,30.312219900000002,1.6455078125
,30.3243138,1.6455078125
,30.359021300000002,1.6357421875
,30.3795826,1.6259765625
,30.387362000000003,1.6259765625
,30.404623299999997,1.6357421875
,30.4366657,1.66015625
,30.4580377,1.6943359375
,30.463152899999997,1.7236328125
,30.4982933,1.767578125
,30.5037863,1.806640625
,30.540106299999998,1.8505859375
,30.5595907,1.884765625
,30.5649527,1.9140625
,30.6015169,1.9384765625
,30.6071423,1.9384765625
,30.640738499999998,1.9384765625
,30.6619265,1.9287109375
,30.664285999999997,1.93359375
,30.6993868,1.9189453125
,30.7038954,1.9140625
,30.7478178,1.89453125
,30.748214599999997,1.8896484375
,30.780669699999997,1.8701171875
,30.784983599999997,1.8603515625
,30.8267685,1.8359375
,30.827005,1.826171875
,30.8444055,1.8017578125
,30.8652514,1.7919921875
,30.899832699999997,1.7724609375
,30.9194308,1.7724609375
,30.9261988,1.7626953125
,30.947631199999996,1.748046875
,30.983610499999998,1.7236328125
,30.9866059,1.708984375
,31.0232704,1.689453125
,31.0235063,1.6748046875
,31.070776700000003,1.6796875
,31.0710161,1.669921875
,31.0919631,1.6650390625
,31.1063021,1.650390625
,31.147302699999997,1.6357421875
,31.147546400000003,1.62109375
,31.182361999999998,1.62109375
,31.211123100000002,1.611328125
,31.2113637,1.6259765625
,31.2252128,1.66015625
,31.260849,1.6845703125
,31.266032199999998,1.728515625
,31.3030203,1.7578125
,31.3056306,1.806640625
,31.3440084,1.8310546875
,31.348723,1.865234375
,31.3657666,1.8896484375
,31.403035699999997,1.923828125
,31.4033545,1.93359375
,31.437481599999998,1.9482421875
,31.459068799999997,1.943359375
,31.465625000000003,1.93359375
,31.5162056,1.9140625
,31.516446600000002,1.8994140625
,31.548047099999998,1.875
,31.548440999999997,1.875
,31.5698023,1.865234375
,31.585372,1.796875
,31.621096199999997,1.8017578125
,31.6416634,1.787109375
,31.6466518,1.7724609375
,31.6817524,1.7529296875
,31.687051099999998,1.73828125
,31.722900600000003,1.7138671875
,31.727902299999997,1.6943359375
,31.745537499999998,1.669921875
,31.781646199999997,1.66015625
,31.7860839,1.640625
,31.806694200000003,1.630859375
,31.857491699999997,1.6064453125
,31.857822,1.591796875
,31.867476500000002,1.5869140625
,31.902639100000002,1.5625
,31.922933899999997,1.5478515625
,31.9253163,1.5283203125
,31.964697800000003,1.5283203125
,31.964936299999998,1.5185546875
,32.012622,1.5185546875
,32.0128622,1.513671875
,32.0341602,1.5283203125
,32.0481769,1.5576171875
,32.0909004,1.6162109375
,32.0911446,1.6552734375
,32.1111516,1.7138671875
,32.1249722,1.748046875
,32.1615496,1.787109375
,32.1826701,1.8017578125
,32.1873562,1.8310546875
,32.2330963,1.845703125
,32.2334982,1.8359375
,32.2500393,1.8359375
,32.2645663,1.8212890625
,32.3098626,1.81640625
,32.3102502,1.806640625
,32.3312472,1.796875
,32.3482947,1.7822265625
,32.3844814,1.767578125
,32.3870592,1.748046875
,32.4210694,1.7333984375
,32.4415729,1.708984375
,32.4489341,1.66015625
,32.4676545,1.650390625
,32.4871489,1.6552734375
,32.5234704,1.66015625
,32.5277274,1.6455078125
,32.5618727,1.6357421875
,32.5660567,1.62109375
,32.5999704,1.62109375
,32.6215513,1.611328125
,32.62981,1.611328125
,32.6464482,1.5966796875
,32.699012,1.5966796875
,32.699253,1.591796875
,32.7083261,1.6015625
,32.7443524,1.5869140625
,32.7495739,1.5869140625
,32.7858044,1.5771484375
,32.7875019,1.5771484375
,32.8059495,1.5771484375
,32.8534902,1.6259765625
,32.8537628,1.6748046875
,32.873388,1.71875
,32.8877077,1.7626953125
,32.9223271,1.796875
,32.943064,1.8310546875
,32.947963,1.8603515625
,32.9855305,1.8896484375
,32.9857846,1.8994140625
,33.0219363,1.9189453125
,33.0264955,1.923828125
,33.0624362,1.9140625
,33.0680779,1.9091796875
,33.0895121,1.904296875
,33.126127,1.89453125
,33.1290656,1.8798828125
,33.1652602,1.865234375
,33.1655019,1.8408203125
,33.2119472,1.8359375
,33.2122111,1.8212890625
,33.2263982,1.81640625
,33.2616641,1.787109375
,33.2820061,1.77734375
,33.2895683,1.7529296875
,33.3092794,1.728515625
,33.3436735,1.708984375
,33.3680235,1.69921875
,33.368261,1.6748046875
,33.3875071,1.6748046875
,33.4312999,1.6552734375
,33.4315859,1.6455078125
,33.4483245,1.6259765625
,33.4931052,1.630859375
,33.4936605,1.6162109375
,33.5242276,1.6015625
,33.5297902,1.58203125
,33.5469322,1.5673828125
,33.586829,1.572265625
,33.5872484,1.5771484375
,33.6214475,1.6015625
,33.6421368,1.6259765625
,33.6500051,1.669921875
,33.6695066,1.69921875
,33.7145313,1.73828125
,33.7148483,1.7724609375
,33.7455075,1.8212890625
,33.7458328,1.85546875
,33.7803267,1.884765625
,33.8015332,1.9140625
,33.8096747,1.923828125
,33.8527406,1.9189453125
,33.8531291,1.9091796875
,33.8865782,1.904296875
,33.8869832,1.884765625
,33.9213284,1.884765625
,33.9411148,1.8701171875
,33.9500032,1.8603515625
,33.9685313,1.845703125
,34.0056147,1.8310546875
,34.0103412,1.81640625
,34.054623,1.796875
,34.0550104,1.77734375
,34.070783,1.767578125
,34.0876167,1.69921875
,34.1317133,1.728515625
,34.1319872,1.73828125
,34.1483221,1.728515625
,34.1947803,1.7236328125
,34.195153,1.708984375
,34.2104627,1.69921875
,34.2564781,1.6845703125
,34.2567198,1.6796875
,34.2772082,1.6650390625
,34.288032,1.66015625
,34.3228022,1.640625
,34.3427379,1.6259765625
,34.3505306,1.6162109375
,34.37309,1.611328125
,34.3902597,1.6015625
,34.4265734,1.62109375
,34.4472127,1.66015625
,34.4474745,1.6943359375
,34.4905516,1.7431640625
,34.490939,1.787109375
,34.5369832,1.8310546875
,34.5375876,1.865234375
,34.5487452,1.8994140625
,34.5844582,1.9189453125
,34.6145026,1.943359375
,34.6147456,1.9482421875
,34.628712,1.9677734375
,34.6647393,1.962890625
,34.6678158,1.9580078125
,34.7039122,1.9482421875
,34.7237853,1.93359375
,34.7297019,1.9189453125
,34.7654121,1.904296875
,34.7857851,1.8896484375
,34.7882425,1.8701171875
,34.824175,1.8603515625
,34.8292916,1.845703125
,34.8658098,1.826171875
,34.868661,1.8115234375
,34.9030662,1.7919921875
,34.9227472,1.7724609375
,34.9309199,1.748046875
,34.9661139,1.7236328125
,34.9863349,1.7041015625
,34.9897463,1.689453125
,35.0256492,1.689453125
,35.0301289,1.6796875
,35.0685921,1.6748046875
,35.0705633,1.669921875
,35.1160919,1.650390625
,35.1164825,1.6357421875
,35.1324458,1.62109375
,35.1772377,1.62109375
,35.1775406,1.6162109375
,35.1985405,1.640625
,35.2115967,1.66015625
,35.2545347,1.6943359375
,35.2547768,1.7236328125
,35.2707508,1.7724609375
,35.3173326,1.8017578125
,35.3175697,1.8408203125
,35.3380191,1.8701171875
,35.34819,1.904296875
,35.3837424,1.923828125
,35.4045567,1.953125
,35.4126106,1.9580078125
,35.4484096,1.953125
,35.4528996,1.9384765625
,35.503469,1.9140625
,35.5039754,1.89453125
,35.5090189,1.8701171875
,35.5288107,1.85546875
,35.5660597,1.8310546875
,35.5963003,1.8115234375
,35.5965498,1.787109375
,35.6107608,1.7626953125
,35.6447262,1.7431640625
,35.6656428,1.728515625
,35.6687609,1.708984375
,35.7126603,1.6943359375
,35.7129346,1.689453125
,35.7323624,1.669921875
,35.7517871,1.650390625
,35.7890653,1.630859375
,35.7895059,1.6259765625
,35.8350573,1.6064453125
,35.8352982,1.591796875
,35.8678549,1.572265625
,35.8720077,1.5625
,35.8896922,1.54296875
,35.9245482,1.5576171875
,35.9448353,1.5478515625
,35.9519086,1.5576171875
,35.9722792,1.5625
,36.0065553,1.5966796875
,36.0119058,1.630859375
,36.0486864,1.6845703125
,36.0687708,1.728515625
,36.06902,1.7626953125
,36.1151848,1.8115234375
,36.1155744,1.845703125
,36.1351452,1.875
,36.1525001,1.89453125
,36.1930786,1.9189453125
,36.1933236,1.923828125
,36.2297512,1.9189453125
,36.2300082,1.9140625
,36.2646356,1.9091796875
,36.2850889,1.8994140625
,36.2914601,1.89453125
,36.3297251,1.8798828125
,36.3354723,1.865234375
,36.3537394,1.8505859375
,36.3751046,1.81640625
,36.4121155,1.7919921875
,36.4123271,1.7626953125
,36.4589246,1.748046875
,36.4591757,1.71875
,36.4730775,1.7041015625
,36.5086589,1.6796875
,36.5111785,1.669921875
,36.5477184,1.650390625
,36.5539415,1.6455078125
,36.5754195,1.630859375
,36.59381,1.5869140625
,36.6100721,1.54296875
,36.6471249,1.5625
,36.6776662,1.5625
,36.6779051,1.58203125
,36.6942894,1.58203125
,36.7126037,1.58203125
,36.7489325,1.5966796875
,36.7545863,1.62109375
,36.8018232,1.6552734375
,36.802196,1.6943359375
,36.8111024,1.748046875
,36.8470034,1.7919921875
,36.8529738,1.8359375
,36.8898243,1.8701171875
,36.8946549,1.8994140625
,36.9147124,1.9189453125
,36.9495768,1.93359375
,36.9498246,1.9287109375
,36.9846315,1.93359375
,37.0053947,1.93359375
,37.0128557,1.9140625
,37.0493522,1.8994140625
,37.0540417,1.8798828125
,37.0988006,1.865234375
,37.0992157,1.8408203125
,37.1150444,1.8212890625
,37.1307843,1.787109375
,37.1667384,1.77734375
,37.1721325,1.7578125
,37.2065185,1.748046875
,37.2262818,1.7236328125
,37.2323601,1.7041015625
,37.2663958,1.6845703125
,37.2878799,1.6650390625
,37.2882773,1.6455078125
,37.3309987,1.6455078125
,37.3312356,1.640625
,37.3510201,1.6259765625
,37.3944078,1.6162109375
,37.3947995,1.6015625
,37.4241122,1.591796875
,37.4340699,1.58203125
,37.4546157,1.5673828125
,37.4920597,1.5625
,37.4966031,1.5673828125
,37.5113001,1.58203125
,37.5461923,1.630859375
,37.5691041,1.669921875
,37.5737862,1.7333984375
,37.6121431,1.7724609375
,37.6195744,1.826171875
,37.6354446,1.875
,37.6709247,1.8994140625
,37.6767797,1.93359375
,37.6913933,1.953125
,37.7384354,1.982421875
,37.7386754,1.9921875
,37.768329,1.9921875
,37.7745347,1.9775390625
,37.8136468,1.962890625
,37.8138866,1.943359375
,37.8469926,1.9287109375
,37.8683477,1.904296875
,37.8724062,1.89453125
,37.8931949,1.875
,37.9439851,1.8603515625
,37.9442293,1.8310546875
,37.9536362,1.8115234375
,37.9885628,1.787109375
,37.9965718,1.7578125
,38.0162145,1.728515625
,38.0325402,1.69921875
,38.0669785,1.689453125
,38.0881889,1.669921875
,38.0923476,1.6552734375
,38.1260154,1.6357421875
,38.1465633,1.62109375
,38.1537117,1.5966796875
,38.1888665,1.572265625
,38.2103324,1.5576171875
,38.2107105,1.5673828125
,38.2529771,1.5673828125
,38.2532158,1.572265625
,38.2751075,1.5869140625
,38.3116784,1.6064453125
,38.3159048,1.6455078125
,38.3621041,1.6748046875
,38.3624196,1.728515625
,38.3759859,1.7578125
,38.412851,1.796875
,38.4131994,1.8212890625
,38.434215,1.865234375
,38.4712917,1.884765625
,38.4758438,1.9091796875
,38.5170987,1.9091796875
,38.5174511,1.9140625
,38.5357361,1.8994140625
,38.5719368,1.8896484375
,38.5724137,1.865234375
,38.6078528,1.8701171875
,38.6135106,1.85546875
,38.6330216,1.8310546875
,38.6663375,1.81640625
,38.6875392,1.796875
,38.6956241,1.77734375
,38.7310761,1.748046875
,38.7361296,1.7333984375
,38.7549016,1.708984375
,38.7727461,1.69921875
,38.8112064,1.6748046875
,38.8412907,1.6552734375
,38.8415347,1.6357421875
,38.8565708,1.62109375
,38.8914252,1.5966796875
,38.8964407,1.58203125
,38.9320493,1.5673828125
,38.9324525,1.54296875
,38.9656515,1.5380859375
,38.9866012,1.5234375
,38.9937918,1.5234375
,39.028486,1.513671875
,39.048784,1.5185546875
,39.0563824,1.533203125
,39.1054363,1.5673828125
,39.1056805,1.6015625
,39.1169431,1.6162109375
,39.1339682,1.62109375
,39.1694991,1.6943359375
,39.2001933,1.7431640625
,39.2005458,1.787109375
,39.2163871,1.81640625
,39.2528991,1.85546875
,39.2581115,1.875
,39.2950046,1.875
,39.2953911,1.8798828125
,39.3377417,1.8701171875
,39.3379973,1.875
,39.3548127,1.8701171875
,39.3920665,1.8701171875
,39.394827,1.85546875
,39.4455771,1.845703125
,39.445821,1.8212890625
,39.4650579,1.806640625
,39.4716112,1.7919921875
,39.5086021,1.7919921875
,39.5296962,1.77734375
,39.5350952,1.7724609375
,39.5706107,1.7578125
,39.5761289,1.73828125
,39.61631,1.7236328125
,39.616779,1.708984375
,39.6545943,1.69921875
,39.6548422,1.6796875
,39.6910069,1.6748046875
,39.6972565,1.66015625
,39.7153571,1.6455078125
,39.7491847,1.630859375
,39.7710968,1.6259765625
,39.778565,1.611328125
,39.797342,1.6162109375
,39.8130994,1.6259765625
,39.8491047,1.669921875
,39.870142,1.708984375
,39.8749176,1.767578125
,39.9112153,1.8115234375
,39.9156736,1.8505859375
,39.9528094,1.8896484375
,39.9576444,1.9189453125
,40.0062022,1.9482421875
,40.0064357,1.962890625
,40.0179867,1.97265625
,40.0360832,1.97265625
,40.0734699,1.97265625
,40.0738612,1.9677734375
,40.1093904,1.953125
,40.1301919,1.9384765625
,40.1376956,1.923828125
,40.1588973,1.89453125
,40.1950277,1.875
,40.2006755,1.85546875
,40.2146055,1.826171875
,40.2560366,1.81640625
,40.2564266,1.806640625
,40.2928933,1.8115234375
,40.29611,1.796875
,40.333472,1.787109375
,40.3367022,1.767578125
,40.3790765,1.748046875
,40.3793942,1.728515625
,40.410127,1.728515625
,40.4172646,1.7138671875
,40.4578029,1.708984375
,40.4582162,1.6943359375
,40.5032248,1.6796875
,40.503615,1.6552734375
,40.5174487,1.650390625
,40.5642495,1.640625
,40.5646422,1.6357421875
,40.5763957,1.650390625
,40.6267422,1.6796875
,40.6275382,1.71875
,40.6373673,1.7578125
,40.6882313,1.8017578125
,40.6884747,1.8408203125
,40.697268,1.884765625
,40.7146548,1.9189453125
,40.7515341,1.962890625
,40.7547505,1.9970703125
,40.7975174,2.0263671875
,40.7977695,2.0361328125
,40.8453313,2.0361328125
,40.8457201,2.0361328125
,40.8589011,2.01171875
,40.907201,1.9921875
,40.9074473,1.9677734375
,40.9198845,1.962890625
,40.9371439,1.9287109375
,40.9707176,1.923828125
,40.9906549,1.8994140625
,40.9950976,1.8798828125
,41.0343159,1.8408203125
,41.0648493,1.81640625
,41.0652438,1.7822265625
,41.07888,1.7578125
,41.0956518,1.728515625
,41.1421734,1.7138671875
,41.142582,1.689453125
,41.173571,1.6845703125
,41.1774558,1.669921875
,41.2193571,1.6552734375
,41.2196099,1.640625
,41.2533324,1.6259765625
,41.2746751,1.6064453125
,41.2752412,1.591796875
,41.3119799,1.591796875
,41.3170666,1.5869140625
,41.3592856,1.5966796875
,41.3596569,1.6064453125
,41.395572,1.6357421875
,41.3983196,1.6650390625
,41.4361045,1.7138671875
,41.4363861,1.7529296875
,41.4726444,1.806640625
,41.490674,1.8603515625
,41.4959548,1.8896484375
,41.5297885,1.9189453125
,41.5498783,1.93359375
,41.5585784,1.9482421875
,41.5969272,1.943359375
,41.5973372,1.93359375
,41.6204569,1.9189453125
,41.6401477,1.8701171875
,41.6569656,1.826171875
,41.7020694,1.8408203125
,41.7023855,1.8408203125
,41.7328092,1.8359375
,41.7382912,1.81640625
,41.7732109,1.796875
,41.7787545,1.7724609375
,41.8140061,1.7578125
,41.8337928,1.7333984375
,41.8361157,1.7041015625
,41.8589004,1.6943359375
,41.9041293,1.669921875
,41.9043645,1.6552734375
,41.9206863,1.630859375
,41.9550899,1.62109375
,41.9597685,1.5966796875
,41.9797244,1.58203125
,41.9959395,1.5625
,42.0308505,1.552734375
,42.0512482,1.533203125
,42.0580194,1.5283203125
,42.1041384,1.5087890625
,42.1045376,1.50390625
,42.1202986,1.5185546875
,42.1564878,1.5380859375
,42.1617107,1.5673828125
,42.1786082,1.6064453125
,42.2139829,1.66015625
,42.2192146,1.7041015625
,42.2540702,1.748046875
,42.273564,1.77734375
,42.2792407,1.8115234375
,42.3147491,1.8310546875
,42.3204592,1.8603515625
,42.3349946,1.8603515625
,42.3726473,1.8798828125
,42.3965572,1.875
,42.396809,1.8701171875
,42.4433059,1.8505859375
,42.4435537,1.845703125
,42.4640137,1.8310546875
,42.4802215,1.806640625
,42.516561,1.787109375
,42.5210987,1.767578125
,42.5698732,1.7431640625
,42.5701402,1.71875
,42.5790877,1.7138671875
,42.6140307,1.6943359375
,42.6196483,1.6748046875
,42.6551348,1.6552734375
,42.6608493,1.6357421875
,42.7095689,1.62109375
,42.709958,1.611328125
,42.7172565,1.5966796875
,42.7541567,1.591796875
,42.7585013,1.6015625
,42.8021727,1.5869140625
,42.8025307,1.5869140625
,42.8196433,1.5771484375
,42.8562472,1.5869140625
,42.8619516,1.58203125
,42.9111263,1.611328125
,42.9115985,1.6357421875
,42.9182674,1.689453125
,42.9591601,1.7333984375
,42.9595609,1.787109375
,42.989321,1.8310546875
,43.000863,1.875
,43.0345864,1.9091796875
,43.0545071,1.943359375
,43.0592951,1.9482421875
,43.0778774,1.9775390625
,43.1127929,1.982421875
,43.1331932,1.9775390625
,43.1386519,1.9677734375
,43.1773384,1.953125
,43.2080214,1.9384765625
,43.2082628,1.9140625
,43.2222259,1.89453125
,43.2389605,1.875
,43.285902,1.865234375
,43.2862147,1.85546875
,43.2994121,1.8359375
,43.3199865,1.81640625
,43.3553866,1.8017578125
,43.3606435,1.7822265625
,43.3964399,1.7578125
,43.4015207,1.748046875
,43.4224361,1.71875
,43.458033,1.708984375
,43.4583483,1.6845703125
,43.4950104,1.6845703125
,43.4995668,1.669921875
,43.5504351,1.66015625
,43.5508216,1.640625
,43.5608939,1.630859375
,43.5947602,1.6162109375
,43.6144858,1.6259765625
,43.6178641,1.6259765625
,43.6564727,1.6650390625
,43.6609488,1.708984375
,43.6955662,1.748046875
,43.6998775,1.7822265625
,43.7353718,1.8359375
,43.7682338,1.8798828125
,43.7686074,1.9091796875
,43.7820369,1.9384765625
,43.7990747,1.953125
,43.8454237,1.9775390625
,43.8457402,1.982421875
,43.8621128,1.982421875
,43.8824087,1.9677734375
,43.9029545,1.953125
,43.9381629,1.923828125
,43.942796,1.904296875
,43.9599629,1.8798828125
,43.9971411,1.8701171875
,43.9992334,1.845703125
,44.0357339,1.8212890625
,44.0604057,1.8017578125
,44.0606452,1.767578125
,44.0959519,1.7431640625
,44.1010762,1.7138671875
,44.1224659,1.6943359375
,44.1431725,1.6650390625
,44.1786226,1.611328125
,44.1790143,1.6064453125
,44.1986656,1.6162109375
,44.2469334,1.611328125
,44.2471802,1.6015625
,44.2665165,1.591796875
,44.2832663,1.58203125
,44.3175468,1.5771484375
,44.3224384,1.572265625
,44.339229,1.572265625
,44.3879597,1.6259765625
,44.3884346,1.6748046875
,44.4024312,1.71875
,44.4381509,1.77734375
,44.443071,1.8212890625
,44.4788295,1.8701171875
,44.4839721,1.9091796875
,44.5279081,1.9580078125
,44.528342,1.9873046875
,44.5408065,2.021484375
,44.5898773,2.0361328125
,44.5902754,2.0458984375
,44.6014513,2.0361328125
,44.6367317,2.0263671875
,44.6411395,2.001953125
,44.675215,1.982421875
,44.6955372,1.97265625
,44.6989806,1.93359375
,44.7454684,1.9189453125
,44.7458568,1.8994140625
,44.7760608,1.8798828125
,44.7811777,1.8505859375
,44.8221918,1.826171875
,44.8224567,1.7919921875
,44.843584,1.7724609375
,44.8613058,1.7333984375
,44.8804062,1.728515625
,44.9171169,1.708984375
,44.9197431,1.7041015625
,44.9645504,1.6845703125
,44.9647942,1.6748046875
,44.9834365,1.6552734375
,45.0268143,1.6455078125
,45.0272016,1.630859375
,45.0455161,1.611328125
,45.0636699,1.5966796875
,45.0817436,1.591796875
,45.1196934,1.6015625
,45.1219729,1.62109375
,45.157287,1.66015625
,45.1629671,1.689453125
,45.1836492,1.7236328125
,45.2197425,1.7578125
,45.2230901,1.7919921875
,45.2616976,1.8212890625
,45.26209,1.865234375
,45.3076508,1.8896484375
,45.3079699,1.9091796875
,45.3209842,1.923828125
,45.3559204,1.9091796875
,45.3781273,1.9091796875
,45.385052,1.89453125
,45.4330173,1.89453125
,45.4332601,1.875
,45.442298,1.8701171875
,45.479283,1.85546875
,45.4796109,1.845703125
,45.5250465,1.8212890625
,45.5253664,1.8115234375
,45.5458769,1.7822265625
,45.5888477,1.767578125
,45.5891344,1.7431640625
,45.6025226,1.7333984375
,45.6371325,1.7138671875
,45.6425736,1.7138671875
,45.6624982,1.6943359375
,45.7128763,1.6748046875
,45.7134823,1.66015625
,45.7238187,1.640625
,45.7617635,1.62109375
,45.7621203,1.6015625
,45.8051584,1.6015625
,45.8053988,1.5478515625
,45.8234671,1.5625
,45.8684665,1.5771484375
,45.8687822,1.6064453125
,45.884629,1.640625
,45.9314375,1.6845703125
,45.9318311,1.7236328125
,45.9460637,1.7626953125
,45.9937045,1.806640625
,45.9941118,1.8310546875
,46.0007692,1.875
,46.034211,1.89453125
,46.0555202,1.9140625
,46.0632926,1.9091796875
,46.0994288,1.8994140625
,46.1035633,1.884765625
,46.1382972,1.875
,46.159713,1.85546875
,46.1599999,1.85546875
,46.1958259,1.8359375
,46.2149475,1.826171875
,46.2237907,1.806640625
,46.2608158,1.787109375
,46.2628773,1.7578125
,46.2971243,1.7431640625
,46.3172239,1.71875
,46.3228543,1.6943359375
,46.3655878,1.6943359375
,46.3659144,1.6796875
,46.3831566,1.669921875
,46.4250319,1.6552734375
,46.4252378,1.6552734375
,46.4458886,1.640625
,46.464904,1.6357421875
,46.4814551,1.62109375
,46.5332751,1.62109375
,46.533519,1.62109375
,46.5421515,1.640625
,46.579028,1.6552734375
,46.5838593,1.6845703125
,46.6288525,1.728515625
,46.6292438,1.7626953125
,46.6461966,1.8017578125
,46.665577,1.8310546875
,46.7000865,1.8359375
,46.7203702,1.8701171875
,46.7212426,1.9189453125
,46.7585227,1.9384765625
,46.7638699,1.9580078125
,46.8019188,1.953125
,46.8052002,1.953125
,46.844613,1.93359375
,46.8449254,1.9189453125
,46.8610256,1.8994140625
,46.8948668,1.89453125
,46.9159279,1.875
,46.9240842,1.8701171875
,46.9607143,1.85546875
,46.9631993,1.826171875
,46.9996631,1.8017578125
,47.0306981,1.77734375
,47.0310916,1.7529296875
,47.042102,1.7236328125
,47.0934583,1.7138671875
,47.0936957,1.6943359375
,47.1238063,1.6796875
,47.124053,1.6650390625
,47.1689272,1.650390625
,47.1693179,1.630859375
,47.1892412,1.6162109375
,47.2015841,1.5966796875
,47.2375319,1.6015625
,47.2430598,1.62109375
,47.2791923,1.630859375
,47.3114386,1.6650390625
,47.3116765,1.69921875
,47.3250714,1.7431640625
,47.3738827,1.77734375
,47.374147,1.81640625
,47.383209,1.8408203125
,47.4194943,1.884765625
,47.422762,1.9091796875
,47.4591366,1.943359375
,47.4643779,1.943359375
,47.5004885,1.943359375
,47.5054634,1.923828125
,47.5402118,1.9140625
,47.5470839,1.8896484375
,47.5895549,1.8798828125
,47.5899436,1.8603515625
,47.6043147,1.8310546875
,47.6508138,1.81640625
,47.6510484,1.8017578125
,47.6651431,1.7822265625
,47.7001693,1.748046875
,47.7049873,1.7236328125
,47.7399378,1.6943359375
,47.7612905,1.669921875
,47.7616174,1.640625
,47.8088714,1.6259765625
,47.8091616,1.611328125
,47.84197,1.5966796875
,47.846984,1.5771484375
,47.8822776,1.552734375
,47.8849431,1.54296875
,47.9200632,1.5185546875
,47.9404682,1.4990234375
,47.9434182,1.4892578125
,47.9643539,1.5087890625
,48.0114634,1.5234375
,48.0117995,1.5625
,48.025963,1.5966796875
,48.0445074,1.640625
,48.0874062,1.6650390625
,48.0876659,1.7041015625
,48.1083251,1.728515625
,48.1227363,1.767578125
,48.1581349,1.7919921875
,48.1780537,1.806640625
,48.1843264,1.8017578125
,48.2259989,1.806640625
,48.2262581,1.7919921875
,48.2734506,1.77734375
,48.2736916,1.7626953125
,48.2940109,1.748046875
,48.3074596,1.73828125
,48.3234914,1.6748046875
,48.3438158,1.6845703125
,48.3789448,1.6748046875
,48.3997744,1.6650390625
,48.4044088,1.650390625
,48.440759,1.630859375
,48.4615723,1.611328125
,48.4695882,1.611328125
,48.4856383,1.591796875
,48.5202047,1.5869140625
,48.5243776,1.5869140625
,48.5579657,1.5625
,48.5776011,1.552734375
,48.5860089,1.5380859375
,48.6319961,1.533203125
,48.6322438,1.5185546875
,48.6493487,1.513671875
,48.6641068,1.4990234375
,48.7005127,1.5185546875
,48.7047044,1.5380859375
,48.740451,1.58203125
,48.7721201,1.6162109375
,48.7724392,1.66015625
,48.7874884,1.6943359375
,48.8360695,1.728515625
,48.8364663,1.7529296875
,48.8451844,1.806640625
,48.8810662,1.8408203125
,48.884568,1.85546875
,48.9061517,1.865234375
,48.9427902,1.8603515625
,48.945376,1.85546875
,48.9907488,1.845703125
,48.9911477,1.8408203125
,49.0209754,1.826171875
,49.0256462,1.8212890625
,49.0675963,1.8115234375
,49.0679936,1.8017578125
,49.0865946,1.7822265625
,49.121824,1.767578125
,49.1291366,1.748046875
,49.1478844,1.728515625
,49.1846975,1.7138671875
,49.1892012,1.689453125
,49.238945,1.6748046875
,49.23919,1.6552734375
,49.2468325,1.6552734375
,49.2822241,1.6357421875
,49.2866075,1.630859375
,49.3085082,1.611328125
,49.3481306,1.5966796875
,49.3485553,1.5771484375
,49.3849574,1.5673828125
,49.3853472,1.552734375
,49.4216505,1.552734375
,49.4559003,1.5625
,49.4562276,1.58203125
,49.4679214,1.6064453125
,49.5037442,1.6650390625
,49.5086232,1.7138671875
,49.5436748,1.748046875
,49.5498361,1.787109375
,49.5665901,1.8115234375
,49.6024551,1.85546875
,49.6054758,1.8798828125
,49.6417168,1.904296875
,49.6624967,1.9091796875
,49.6675615,1.9091796875
,49.7054259,1.89453125
,49.7082944,1.8896484375
,49.7249879,1.875
,49.7609007,1.875
,49.7807787,1.8603515625
,49.7859742,1.8408203125
,49.8318393,1.8310546875
,49.8322795,1.8115234375
,49.8488566,1.796875
,49.8697544,1.767578125
,49.9083979,1.7529296875
,49.9086484,1.728515625
,49.9261331,1.7236328125
,49.9619637,1.7041015625
,49.9669522,1.689453125
,50.0016282,1.669921875
,50.0222804,1.6650390625
,50.0270279,1.6455078125
,50.0636323,1.630859375
,50.0687787,1.611328125
,50.0896208,1.6015625
,50.1060006,1.5771484375
,50.1425043,1.58203125
,50.1470599,1.5771484375
,50.188317,1.5673828125
,50.1886426,1.572265625
,50.2226084,1.591796875
,50.2438709,1.6259765625
,50.2516455,1.66015625
,50.2702275,1.69921875
,50.287454,1.728515625
,50.3212034,1.77734375
,50.3431139,1.8115234375
,50.3481186,1.8359375
,50.3914485,1.8603515625
,50.3918357,1.8798828125
,50.4103713,1.8798828125
,50.4478526,1.884765625
,50.448257,1.884765625
,50.4841676,1.8701171875
,50.4845432,1.875
,50.5233811,1.865234375
,50.5285133,1.875
,50.5627733,1.8603515625
,50.5831988,1.85546875
,50.5885408,1.8310546875
,50.6241036,1.81640625
,50.64354,1.787109375
,50.6469597,1.7822265625
,50.6864501,1.7578125
,50.6866874,1.7431640625
,50.7331727,1.71875
,50.7335617,1.7041015625
,50.7639316,1.6748046875
,50.7691729,1.6748046875
,50.8050112,1.6552734375
,50.8100755,1.640625
,50.8315453,1.5869140625
,50.848389,1.5478515625
,50.8685957,1.5673828125
,50.9170412,1.572265625
,50.9174622,1.5771484375
,50.9280721,1.572265625
,50.9633606,1.5771484375
,50.9840543,1.5966796875
,50.9895988,1.6259765625
,51.0059343,1.66015625
,51.0432102,1.7138671875
,51.073327,1.7578125
,51.0736004,1.796875
,51.0882949,1.8408203125
,51.123832,1.85546875
,51.145349,1.8798828125
,51.150175,1.884765625
,51.1984102,1.8896484375
,51.198683,1.884765625
,51.2292088,1.884765625
,51.2295145,1.875
,51.2498258,1.8701171875
,51.2854798,1.8505859375
,51.2902957,1.8359375
,51.3103022,1.806640625
,51.3526897,1.787109375
,51.3529389,1.7626953125
,51.3679782,1.7529296875
,51.4021007,1.728515625
,51.4228752,1.7236328125
,51.4286121,1.7041015625
,51.4629368,1.6796875
,51.4848808,1.66015625
,51.4902534,1.6357421875
,51.5259219,1.6162109375
,51.5557507,1.591796875
,51.5561448,1.591796875
,51.5692472,1.5771484375
,51.6033011,1.5673828125
,51.6088116,1.552734375
,51.6293882,1.5380859375
,51.6661997,1.5185546875
,51.6954513,1.5087890625
,51.6957509,1.494140625
,51.7130796,1.455078125
,51.7554946,1.484375
,51.7557483,1.513671875
,51.7688308,1.5625
,51.815934,1.6064453125
,51.8162998,1.650390625
,51.8322649,1.6845703125
,51.8514125,1.7236328125
,51.8873326,1.748046875
,51.8904854,1.7724609375
,51.9078185,1.7724609375
,51.9591561,1.7919921875
,51.9595462,1.787109375
,51.9720058,1.7822265625
,51.9921883,1.7724609375
,52.0107522,1.7578125
,52.0456094,1.73828125
,52.0673502,1.7333984375
,52.0719006,1.7236328125
,52.0901342,1.69921875
,52.1084215,1.6943359375
,52.1448714,1.6748046875
,52.1759494,1.6650390625
,52.1761534,1.640625
,52.1914349,1.6259765625
,52.2382223,1.6064453125
,52.2385561,1.591796875
,52.249814,1.572265625
,52.285626,1.5673828125
,52.2881753,1.5576171875
,52.3235814,1.5478515625
,52.3438675,1.533203125
,52.3494263,1.5234375
,52.3914792,1.5185546875
,52.391823,1.4990234375
,52.4371052,1.494140625
,52.4374184,1.4794921875
,52.4489119,1.494140625
,52.4840429,1.50390625
,52.48855,1.54296875
,52.525623,1.572265625
,52.5462103,1.62109375
,52.551133,1.66015625
,52.5867168,1.71875
,52.6089846,1.7529296875
,52.6136702,1.796875
,52.6303893,1.8212890625
,52.6687266,1.85546875
,52.6691242,1.8701171875
,52.7157349,1.8896484375
,52.7159784,1.8896484375
,52.7457119,1.884765625
,52.7533966,1.8798828125
,52.7923093,1.865234375
,52.7928548,1.85546875
,52.8111905,1.8359375
,52.830404,1.8310546875
,52.8645386,1.81640625
,52.8843039,1.806640625
,52.8916649,1.7919921875
,52.9268911,1.7724609375
,52.9484574,1.7529296875
,52.9531702,1.7333984375
,52.9694709,1.7138671875
,53.0120515,1.7041015625
,53.0122956,1.69921875
,53.0305205,1.6796875
,53.0670235,1.669921875
,53.0716553,1.650390625
,53.1212749,1.6455078125
,53.1215129,1.630859375
,53.1336294,1.6259765625
,53.149067,1.6064453125
,53.1838452,1.6162109375
,53.2053109,1.611328125
,53.2123984,1.630859375
,53.2625217,1.640625
,53.262929,1.6796875
,53.2707234,1.708984375
,53.3092195,1.7578125
,53.3394572,1.7822265625
,53.339707,1.796875
,53.3548631,1.8017578125
,53.3707016,1.8017578125
,53.4074074,1.865234375
,53.4100521,1.904296875
,53.4481355,1.923828125
,53.4806129,1.9287109375
,53.4809421,1.93359375
,53.4948422,1.923828125
,53.5424526,1.9140625
,53.5428592,1.89453125
,53.5494963,1.89453125
,53.5854431,1.884765625
,53.5914211,1.875
,53.6262325,1.85546875
,53.6464896,1.8408203125
,53.6515189,1.8310546875
,53.6874072,1.8017578125
,53.7078613,1.7822265625
,53.7107128,1.7529296875
,53.7605895,1.7431640625
,53.7609053,1.7236328125
,53.771713,1.7041015625
,53.8092974,1.6845703125
,53.8145928,1.669921875
,53.833417,1.6455078125
,53.8831057,1.630859375
,53.883612,1.611328125
,53.8912151,1.6162109375
,53.9117385,1.611328125
,53.9313666,1.611328125
,53.9768308,1.6064453125
,53.977221,1.630859375
,54.006311,1.6552734375
,54.013873,1.689453125
,54.0500488,1.728515625
,54.0502853,1.7626953125
,54.1002021,1.81640625
,54.1004402,1.8505859375
,54.1215983,1.89453125
,54.1337984,1.9140625
,54.1696815,1.93359375
,54.174881,1.943359375
,54.2111755,1.9482421875
,54.2158592,1.93359375
,54.2582225,1.93359375
,54.2585417,1.9140625
,54.2723576,1.9091796875
,54.3201992,1.8994140625
,54.3205361,1.884765625
,54.3342458,1.865234375
,54.3811946,1.845703125
,54.3814992,1.8310546875
,54.3942125,1.796875
,54.4447699,1.77734375
,54.4450497,1.7529296875
,54.474475,1.748046875
,54.4747153,1.728515625
,54.4938224,1.7138671875
,54.5276392,1.6943359375
,54.5334274,1.6796875
,54.5697833,1.66015625
,54.5759001,1.640625
,54.5915598,1.62109375
,54.6285363,1.6357421875
,54.6333217,1.6357421875
,54.6535071,1.6259765625
,54.691166,1.6259765625
,54.6916106,1.6259765625
,54.727414,1.6357421875
,54.7480195,1.6552734375
,54.7558578,1.689453125
,54.7725917,1.71875
,54.8141211,1.7724609375
,54.8146686,1.8115234375
,54.8332885,1.8505859375
,54.8776253,1.8798828125
,54.8780174,1.9091796875
,54.9080179,1.9287109375
,54.9156076,1.93359375
,54.9349963,1.943359375
,54.9524135,1.923828125
,54.9885115,1.923828125
,54.9914593,1.865234375
,55.0267275,1.884765625
,55.05025,1.875
,55.054942,1.8701171875
,55.0907889,1.845703125
,55.0965007,1.8310546875
,55.1145865,1.806640625
,55.1579709,1.7919921875
,55.1583596,1.7626953125
,55.1781971,1.7529296875
,55.1925838,1.728515625
,55.2276737,1.708984375
,55.2481431,1.6796875
,55.2531627,1.669921875
,55.2886522,1.650390625
,55.3097673,1.6259765625
,55.3167055,1.6064453125
,55.333337,1.5869140625
,55.3519608,1.5771484375
,55.3883038,1.5625
,55.3937774,1.552734375
,55.4130502,1.5380859375
,55.4352342,1.5283203125
,55.4717816,1.533203125
,55.4748139,1.5478515625
,55.5162158,1.572265625
,55.5165976,1.62109375
,55.5341848,1.66015625
,55.5535408,1.6943359375
,55.5882433,1.73828125
,55.6086911,1.7626953125
,55.6164891,1.7919921875
,55.6530267,1.806640625
,55.6586251,1.8310546875
,55.6726306,1.8310546875
,55.7082053,1.845703125
,55.7282865,1.8359375
,55.73319,1.8359375
,55.7818561,1.8115234375
,55.7822479,1.806640625
,55.8112703,1.7822265625
,55.8138598,1.7724609375
,55.8592564,1.748046875
,55.8598592,1.689453125
,55.8730532,1.640625
,55.9212687,1.6552734375
,55.9216171,1.6552734375
,55.9359303,1.6455078125
,55.9698211,1.6357421875
,55.9744785,1.62109375
,56.0138696,1.6064453125
,56.0451781,1.5869140625
,56.0455739,1.5771484375
,56.0541799,1.5576171875
,56.0908936,1.552734375
,56.0956582,1.5380859375
,56.114184,1.5283203125
,56.1524594,1.5185546875
,56.1730845,1.5234375
,56.1758232,1.513671875
,56.2169404,1.5234375
,56.2173353,1.552734375
,56.2340592,1.572265625
,56.2688576,1.6259765625
,56.2734091,1.6650390625
,56.3118021,1.708984375
,56.3169717,1.7431640625
,56.3579461,1.787109375
,56.3582713,1.81640625
,56.3795103,1.8505859375
,56.3945699,1.865234375
,56.4143159,1.8896484375
,56.4349791,1.8994140625
,56.4702552,1.904296875
,56.4749417,1.8994140625
,56.522403,1.89453125
,56.5227436,1.884765625
,56.536385,1.8798828125
,56.5731729,1.865234375
,56.5735646,1.845703125
,56.6007514,1.8408203125
,56.6154511,1.8212890625
,56.6608895,1.806640625
,56.6611362,1.7919921875
,56.6764192,1.7822265625
,56.7100576,1.767578125
,56.7305843,1.7529296875
,56.7391264,1.728515625
,56.7575997,1.7138671875
,56.7747696,1.689453125
,56.8091957,1.689453125
,56.8292566,1.669921875
,56.8352574,1.66015625
,56.8713175,1.650390625
,56.8783075,1.630859375
,56.8967351,1.62109375
,56.94224,1.6064453125
,56.9425239,1.6064453125
,56.9630703,1.611328125
,56.9746367,1.650390625
,57.0113947,1.6796875
,57.015882,1.7236328125
,57.0506849,1.7626953125
,57.0729055,1.806640625
,57.0777234,1.8359375
,57.0987376,1.875
,57.1148475,1.89453125
,57.1609833,1.9287109375
,57.1613748,1.943359375
,57.1772635,1.962890625
,57.1956497,1.9677734375
,57.2306092,1.9580078125
,57.2530285,1.9482421875
,57.2574913,1.93359375
,57.3030896,1.9189453125
,57.3033545,1.8994140625
,57.3331912,1.89453125
,57.3358881,1.8798828125
,57.3553287,1.8603515625
,57.3912591,1.8408203125
,57.3965208,1.8212890625
,57.433544,1.796875
,57.4363916,1.7724609375
,57.45433,1.7431640625
,57.5037086,1.7333984375
,57.5041036,1.728515625
,57.5151462,1.66015625
,57.5656536,1.6650390625
,57.5660577,1.6552734375
,57.5784419,1.650390625
,57.5973338,1.6357421875
,57.6325459,1.630859375
,57.6534188,1.611328125
,57.6588412,1.6015625
,57.6756444,1.58203125
,57.7222277,1.6015625
,57.7226168,1.611328125
,57.7368139,1.650390625
,57.7835432,1.6845703125
,57.7838477,1.728515625
,57.7982036,1.7626953125
,57.8348348,1.806640625
,57.8377807,1.845703125
,57.855948,1.865234375
,57.8955003,1.904296875
,57.8962338,1.9384765625
,57.9409214,1.953125
,57.9411691,1.953125
,57.9576792,1.953125
,57.9951987,1.943359375
,57.9999913,1.9287109375
,58.0158752,1.9091796875
,58.0655122,1.904296875
,58.0657909,1.8896484375
,58.0768823,1.8798828125
,58.1279406,1.8603515625
,58.1281865,1.8408203125
,58.1388041,1.826171875
,58.1746952,1.796875
,58.1777614,1.77734375
,58.1952992,1.748046875
,58.2357639,1.73828125
,58.2360892,1.71875
,58.2732051,1.708984375
,58.2784039,1.6845703125
,58.3290532,1.669921875
,58.3294441,1.6455078125
,58.3386185,1.6357421875
,58.3600729,1.611328125
,58.3789459,1.5625
,58.3956005,1.513671875
,58.4306044,1.533203125
,58.4523335,1.5380859375
,58.4574554,1.552734375
,58.4781743,1.5625
,58.5141091,1.58203125
,58.518637,1.62109375
,58.5624683,1.66015625
,58.5627607,1.69921875
,58.5925747,1.73828125
,58.5958332,1.7919921875
,58.6400928,1.826171875
,58.6404847,1.865234375
,58.6591023,1.884765625
,58.7019693,1.904296875
,58.702271,1.9140625
,58.7209469,1.9384765625
,58.736616,1.93359375
,58.7705407,1.943359375
,58.7909889,1.943359375
,58.7978877,1.923828125
,58.8171013,1.904296875
,58.8533375,1.875
,58.8588905,1.8603515625
,58.9037977,1.8310546875
,58.9043438,1.8115234375
,58.9168845,1.77734375
,58.9375262,1.7578125
,58.9799548,1.7333984375
,58.9802002,1.7236328125
,58.9968677,1.69921875
,59.0333365,1.6796875
,59.0389075,1.650390625
,59.0734018,1.6259765625
,59.0938751,1.6015625
,59.0969694,1.6015625
,59.1311126,1.591796875
,59.1517518,1.572265625
,59.1573244,1.5576171875
,59.193554,1.533203125
,59.1997126,1.5185546875
,59.2446834,1.50390625
,59.2449989,1.513671875
,59.2609002,1.5234375
,59.2813963,1.54296875
,59.2980623,1.572265625
,59.3343935,1.62109375
,59.3388318,1.6552734375
,59.3818709,1.7041015625
,59.3821198,1.7333984375
,59.3973318,1.767578125
,59.4331803,1.796875
,59.4533715,1.8115234375
,59.4598453,1.81640625
,59.4774965,1.806640625
,59.5233044,1.8212890625
,59.5235506,1.81640625
,59.5388503,1.806640625
,59.5743074,1.7919921875
,59.5803681,1.7822265625
,59.6174775,1.7626953125
,59.6226978,1.7529296875
,59.6369325,1.7236328125
,59.6733244,1.7138671875
,59.6968813,1.6943359375
,59.6972722,1.6748046875
,59.734778,1.6455078125
,59.7597069,1.6455078125
,59.7600039,1.6357421875
,59.8055623,1.6162109375
,59.805808,1.6064453125
,59.8165096,1.5869140625
,59.8676569,1.58203125
,59.8680463,1.5771484375
,59.8780644,1.572265625
,59.9143787,1.5576171875
,59.9337967,1.5478515625
,59.9394294,1.533203125
,59.9744159,1.5185546875
,59.9961308,1.50390625
,59.996554,1.5234375
,60.0354353,1.533203125
,60.0400414,1.5673828125
,60.0856137,1.611328125
,60.0860098,1.650390625
,60.0991105,1.69921875
,60.1473848,1.7333984375
,60.1477831,1.7822265625
,60.1786346,1.81640625
,60.1830249,1.85546875
,60.1996977,1.875
,60.2386051,1.904296875
,60.2389089,1.9140625
,60.2863719,1.9287109375
,60.2866627,1.9189453125
,60.3069859,1.9140625
,60.3223398,1.89453125
,60.3649954,1.8798828125
,60.3654011,1.8603515625
,60.3801154,1.8603515625
,60.3985704,1.845703125
,60.4336116,1.8212890625
,60.4539731,1.8017578125
,60.459766,1.77734375
,60.4956433,1.7529296875
,60.5002336,1.728515625
,60.5356914,1.7138671875
,60.5573861,1.6943359375
,60.5577737,1.6796875
,60.5984814,1.6650390625
,60.5987215,1.650390625
,60.635653,1.630859375
,60.6608683,1.6259765625
,60.6613033,1.6064453125
,60.6988201,1.591796875
,60.7034083,1.591796875
,60.7199272,1.572265625
,60.7684502,1.572265625
,60.7686973,1.572265625
,60.7791189,1.591796875
,60.816227,1.6064453125
,60.836237,1.640625
,60.8414635,1.6748046875
,60.8775533,1.7236328125
,60.8806199,1.7626953125
,60.9027459,1.7724609375
,60.9183131,1.77734375
,60.9553621,1.8505859375
,60.9613523,1.89453125
,61.0042502,1.93359375
,61.0044949,1.9482421875
,61.0229894,1.97265625
,61.0639575,1.9775390625
,61.06438,1.962890625
,61.1129134,1.953125
,61.1133646,1.9384765625
,61.1184814,1.93359375
,61.1549582,1.9189453125
,61.1596375,1.9091796875
,61.1954183,1.8896484375
,61.2167352,1.875
,61.2225704,1.8505859375
,61.2658309,1.8212890625
,61.2660738,1.796875
,61.2792013,1.796875
,61.316524,1.77734375
,61.3213386,1.7626953125
,61.3574559,1.7529296875
,61.3630091,1.728515625
,61.4080706,1.708984375
,61.4083064,1.6845703125
,61.4246729,1.6796875
,61.4409251,1.6552734375
,61.4851505,1.6552734375
,61.4854227,1.6357421875
,61.5012133,1.6259765625
,61.5488989,1.611328125
,61.5492907,1.611328125
,61.5629052,1.6064453125
,61.6097662,1.6162109375
,61.6101596,1.630859375
,61.619088,1.6748046875
,61.654833,1.708984375
,61.6757987,1.767578125
,61.6823076,1.81640625
,61.7020828,1.845703125
,61.7512136,1.884765625
,61.7516048,1.9091796875
,61.7625402,1.9287109375
,61.7975054,1.9384765625
,61.8191285,1.953125
,61.8195186,1.943359375
,61.8609267,1.943359375
,61.8613172,1.9384765625
,61.9068599,1.9189453125
,61.9071112,1.8994140625
,61.9218246,1.8896484375
,61.9692353,1.8603515625
,61.9695818,1.8408203125
,61.9822685,1.81640625
,62.0163043,1.7822265625
,62.01930539999999,1.7626953125
,62.0618216,1.7431640625
,62.0621173,1.7236328125
,62.1098839,1.6943359375
,62.1102197,1.669921875
,62.12276129999999,1.640625
,62.173442800000004,1.62109375
,62.173683,1.591796875
,62.17994109999999,1.591796875
,62.200875499999995,1.572265625
,62.2206685,1.5625
,62.266072199999996,1.5478515625
,62.266317599999994,1.5380859375
,62.2868273,1.5234375
,62.302985199999995,1.5234375
,62.3231593,1.513671875
,62.3412005,1.50390625
,62.3764589,1.5234375
,62.3816087,1.5478515625
,62.4155294,1.58203125
,62.4360952,1.62109375
,62.4433092,1.6650390625
,62.479752899999994,1.7041015625
,62.4852334,1.7431640625
,62.5003136,1.7724609375
,62.5453301,1.81640625
,62.545570999999995,1.8017578125
,62.566040599999994,1.85546875
,62.5829059,1.8701171875
,62.623817,1.8798828125
,62.624215899999996,1.884765625
,62.670252399999995,1.8701171875
,62.670682799999994,1.85546875
,62.6841989,1.8310546875
,62.733404500000006,1.81640625
,62.7336461,1.787109375
,62.7411099,1.77734375
,62.778545199999996,1.7578125
,62.7835168,1.7431640625
,62.8273056,1.71875
,62.8275512,1.7138671875
,62.8454589,1.689453125
,62.865579499999996,1.6748046875
,62.880542399999996,1.650390625
,62.90198289999999,1.6455078125
,62.9440778,1.62109375
,62.9448026,1.6162109375
,62.966789899999995,1.6015625
,62.9839827,1.5771484375
,63.021210100000005,1.5625
,63.0215151,1.54296875
,63.070326699999995,1.5234375
,63.0707139,1.5087890625
,63.08141740000001,1.5087890625
,63.11700690000001,1.50390625
,63.1212165,1.4990234375
,63.15651149999999,1.4990234375
,63.1774667,1.513671875
,63.1844158,1.5478515625
,63.226143300000004,1.5869140625
,63.2265376,1.62109375
,63.2408557,1.6748046875
,63.2753926,1.728515625
,63.2968056,1.7578125
,63.304166699999996,1.796875
,63.351273199999994,1.81640625
,63.351513999999995,1.8505859375
,63.366343799999996,1.85546875
,63.384936499999995,1.8603515625
,63.40651269999999,1.845703125
,63.443551600000006,1.8017578125
,63.4439455,1.8017578125
,63.4808355,1.81640625
,63.481131700000006,1.8115234375
,63.5151645,1.806640625
,63.535487,1.8017578125
,63.542683499999995,1.787109375
,63.57748479999999,1.7626953125
,63.5975531,1.7578125
,63.604767800000005,1.7431640625
,63.6232191,1.71875
,63.65809900000001,1.7138671875
,63.663652,1.69921875
,63.69786070000001,1.6845703125
,63.703196500000004,1.669921875
,63.7229145,1.6552734375
,63.7583396,1.6357421875
,63.7812536,1.62109375
,63.781637700000005,1.6015625
,63.817361899999995,1.591796875
,63.837147599999994,1.5869140625
,63.842650899999995,1.591796875
,63.8778605,1.58203125
,63.89836819999999,1.572265625
,63.904019700000006,1.5771484375
,63.944552,1.572265625
,63.9739036,1.5869140625
,63.974186700000004,1.611328125
,63.98259470000001,1.6650390625
,64.0173133,1.708984375
,64.0232177,1.7626953125
,64.0588292,1.8017578125
,64.0639412,1.845703125
,64.1135094,1.875
,64.1137505,1.9140625
,64.1342926,1.93359375
,64.1450059,1.9580078125
,64.1634363,1.962890625
,64.2087279,1.962890625
,64.2089768,1.9482421875
,64.2247572,1.9482421875
,64.2435178,1.9384765625
,64.279311,1.9140625
,64.3006788,1.8994140625
,64.3055585,1.875
,64.3415505,1.8505859375
,64.3418893,1.8212890625
,64.3623569,1.81640625
,64.4123794,1.796875
,64.4127803,1.7822265625
,64.4263771,1.7626953125
,64.4453636,1.73828125
,64.4803567,1.7138671875
,64.5009771,1.69921875
,64.5045296,1.669921875
,64.5225457,1.66015625
,64.5579123,1.650390625
,64.5782155,1.6357421875
,64.5833467,1.6162109375
,64.6218402,1.6015625
,64.6264455,1.591796875
,64.6613779,1.572265625
,64.6672676,1.5625
,64.6841904,1.5478515625
,64.7236884,1.5576171875
,64.7239279,1.5673828125
,64.759751,1.6015625
,64.7653113,1.6357421875
,64.8027528,1.6845703125
,64.8073421,1.7236328125
,64.8272231,1.7578125
,64.8426558,1.7919921875
,64.8785902,1.865234375
,64.884399,1.9189453125
,64.9299474,1.9482421875
,64.9301858,1.97265625
,64.94431,1.9775390625
,64.9924936,1.97265625
,64.9930879,1.962890625
,65.006852,1.9580078125
,65.0263969,1.93359375
,65.0484557,1.8798828125
,65.0646131,1.8310546875
,65.0998653,1.8359375
,65.1032614,1.8408203125
,65.1427156,1.8359375
,65.1457178,1.8212890625
,65.1818781,1.796875
,65.2028521,1.7822265625
,65.2083524,1.7529296875
,65.245054,1.7333984375
,65.2454364,1.7041015625
,65.2639345,1.69921875
,65.3025782,1.6748046875
,65.3068263,1.66015625
,65.3266529,1.640625
,65.3460408,1.62109375
,65.3942213,1.6015625
,65.3946373,1.6015625
,65.4028596,1.5771484375
,65.4239053,1.58203125
,65.4574388,1.572265625
,65.4779346,1.572265625
,65.4854299,1.5576171875
,65.5322754,1.572265625
,65.5325189,1.591796875
,65.5535857,1.6162109375
,65.5682597,1.6552734375
,65.5850274,1.6943359375
,65.6051211,1.748046875
,65.625426,1.7919921875
,65.6721012,1.8408203125
,65.6724683,1.8798828125
,65.687939,1.9091796875
,65.723463,1.93359375
,65.7262117,1.943359375
,65.7437019,1.9384765625
,65.7827105,1.9482421875
,65.7831056,1.943359375
,65.8190326,1.93359375
,65.8392937,1.9287109375
,65.8465619,1.904296875
,65.8903801,1.884765625
,65.8906781,1.865234375
,65.9208411,1.85546875
,65.9284352,1.8310546875
,65.9517048,1.806640625
,65.9656278,1.77734375
,66.0008013,1.767578125
,66.0064563,1.7431640625
,66.042595,1.728515625
,66.046587,1.7041015625
,66.0819927,1.6796875
,66.0877585,1.6552734375
,66.138289,1.630859375
,66.138702,1.6015625
,66.1458182,1.6015625
,66.1861269,1.591796875
,66.1863891,1.572265625
,66.2229566,1.5576171875
,66.2281457,1.5380859375
,66.2785807,1.5185546875
,66.2788267,1.50390625
,66.2873343,1.4990234375
,66.3064318,1.4990234375
,66.3257392,1.5380859375
,66.3714534,1.5771484375
,66.3717545,1.6259765625
,66.3870218,1.6650390625
,66.4338812,1.708984375
,66.4341579,1.7431640625
,66.4465141,1.7822265625
,66.4955515,1.81640625
,66.4957535,1.8310546875
,66.5170487,1.85546875
,66.5261192,1.865234375
,66.5756488,1.8701171875
,66.5759932,1.8603515625
,66.6060807,1.8505859375
,66.6063169,1.8310546875
,66.6410277,1.8115234375
,66.6637616,1.796875
,66.6641458,1.796875
,66.7014848,1.77734375
,66.7302892,1.7626953125
,66.730527,1.7431640625
,66.749066,1.71875
,66.7678942,1.6845703125
,66.802118,1.669921875
,66.8226479,1.6455078125
,66.8272866,1.6162109375
,66.8716649,1.5966796875
,66.8719095,1.5673828125
,66.8916447,1.5576171875
,66.9075758,1.5478515625
,66.9284198,1.5478515625
,66.9660998,1.5380859375
,66.968663,1.5283203125
,67.0041125,1.513671875
,67.0091679,1.4990234375
,67.0259783,1.484375
,67.0751063,1.4892578125
,67.0753558,1.484375
,67.0874384,1.50390625
,67.1080435,1.552734375
,67.1451153,1.58203125
,67.1481147,1.630859375
,67.1851527,1.669921875
,67.1900033,1.71875
,67.2062898,1.7529296875
,67.240626,1.806640625
,67.2606193,1.8310546875
,67.2676866,1.85546875
,67.3069581,1.85546875
,67.3072214,1.85546875
,67.3548212,1.8408203125
,67.3552092,1.8310546875
,67.3847189,1.8115234375
,67.3849654,1.81640625
,67.4216378,1.8017578125
,67.426617,1.806640625
,67.4616493,1.796875
,67.4818399,1.77734375
,67.4883862,1.7578125
,67.5249717,1.7431640625
,67.5300706,1.728515625
,67.5497083,1.708984375
,67.5701583,1.650390625
,67.5873882,1.611328125
,67.6067534,1.6259765625
,67.6285569,1.630859375
,67.6489034,1.6259765625
,67.6837811,1.62109375
,67.7041777,1.62109375
,67.7094551,1.611328125
,67.7307608,1.6064453125
,67.7662458,1.6015625
,67.766548,1.5869140625
,67.8034453,1.5869140625
,67.8082945,1.5771484375
,67.8432756,1.5869140625
,67.8488926,1.5966796875
,67.8843627,1.6357421875
,67.905138,1.6650390625
,67.910556,1.71875
,67.9266386,1.7529296875
,67.9615626,1.8212890625
,67.9829607,1.865234375
,67.9877848,1.9091796875
,68.0241776,1.9384765625
,68.044471,1.962890625
,68.0491262,1.962890625
,68.0857383,1.9775390625
,68.0902867,1.97265625
,68.1075336,1.9580078125
,68.150361,1.9580078125
,68.1508103,1.9482421875
,68.1681321,1.93359375
,68.2028196,1.9189453125
,68.2231223,1.9091796875
,68.2304126,1.8896484375
,68.2682593,1.865234375
,68.2688184,1.8359375
,68.288256,1.8212890625
,68.337846,1.8017578125
,68.3382395,1.7822265625
,68.3489721,1.7626953125
,68.3839894,1.7431640625
,68.3884329,1.728515625
,68.4240815,1.69921875
,68.4437145,1.6796875
,68.4508423,1.66015625
,68.4860757,1.6455078125
,68.4864662,1.630859375
,68.5096272,1.6259765625
,68.5463439,1.611328125
,68.5516363,1.6064453125
,68.5695289,1.591796875
,68.6040188,1.591796875
,68.6244466,1.591796875
,68.6325674,1.6162109375
,68.6483288,1.6455078125
,68.6940365,1.69921875
,68.6942958,1.73828125
,68.711412,1.796875
,68.7302002,1.8359375
,68.7652805,1.865234375
,68.7707709,1.8994140625
,68.8059947,1.9189453125
,68.8106354,1.943359375
,68.8269552,1.9482421875
,68.8612422,1.9677734375
,68.881295,1.962890625
,68.8901051,1.962890625
,68.9108501,1.9482421875
,68.9583727,1.9384765625
,68.9586854,1.923828125
,68.9714357,1.923828125
,68.9888934,1.904296875
,69.0081686,1.89453125
,69.043327,1.8798828125
,69.0632961,1.85546875
,69.0690371,1.8310546875
,69.1134829,1.8017578125
,69.1137238,1.7822265625
,69.1342324,1.7529296875
,69.1514684,1.7236328125
,69.168977,1.6943359375
,69.2069553,1.6845703125
,69.20721,1.66015625
,69.2546809,1.6552734375
,69.2550664,1.6357421875
,69.2842792,1.62109375
,69.2911869,1.6015625
,69.3307697,1.58203125
,69.3311635,1.5673828125
,69.3790564,1.5576171875
,69.3793833,1.5576171875
,69.4093023,1.5576171875
,69.4095524,1.6015625
,69.4449395,1.6357421875
,69.4503885,1.6796875
,69.4866749,1.71875
,69.4913544,1.7724609375
,69.529588,1.8115234375
,69.5298351,1.85546875
,69.5799734,1.884765625
,69.580365,1.9189453125
,69.5895672,1.93359375
,69.6256997,1.9384765625
,69.6299043,1.93359375
,69.6635412,1.9189453125
,69.6846121,1.9091796875
,69.692667,1.884765625
,69.7271209,1.865234375
,69.7481052,1.8408203125
,69.7484457,1.8408203125
,69.7957867,1.8212890625
,69.7960319,1.8115234375
,69.8161581,1.787109375
,69.8303926,1.767578125
,69.8665796,1.73828125
,69.8871272,1.71875
,69.8873242,1.6845703125
,69.9349225,1.6748046875
,69.935311,1.650390625
,69.965366,1.630859375
,69.9705041,1.6015625
,70.0062514,1.5966796875
,70.0110297,1.5771484375
,70.0580366,1.552734375
,70.0587045,1.533203125
,70.0792645,1.50390625
,70.091974,1.4404296875
,70.1254419,1.396484375
,70.1287425,1.4208984375
,70.1660492,1.4404296875
,70.1873825,1.474609375
,70.192618,1.513671875
,70.2297203,1.5673828125
,70.2300434,1.611328125
,70.2758467,1.6650390625
,70.276115,1.7041015625
,70.3076101,1.7626953125
,70.3120544,1.8115234375
,70.3303258,1.8359375
,70.3673049,1.865234375
,70.3867829,1.8701171875
,70.3918074,1.875
,70.4274994,1.8603515625
,70.4336393,1.85546875
,70.4499282,1.8359375
,70.4868573,1.845703125
,70.4918674,1.8359375
,70.5380606,1.845703125
,70.5385779,1.8310546875
,70.5516919,1.8310546875
,70.5996727,1.806640625
,70.599914,1.7919921875
,70.6206909,1.7578125
,70.6308962,1.748046875
,70.6776642,1.728515625
,70.6779142,1.708984375
,70.6900125,1.6943359375
,70.7414686,1.66015625
,70.7418568,1.6357421875
,70.7539996,1.611328125
,70.7737859,1.591796875
,70.7887395,1.5673828125
,70.8245565,1.552734375
,70.8446901,1.54296875
,70.8500821,1.5283203125
,70.8863058,1.5087890625
,70.9059854,1.5087890625
,70.9137799,1.50390625
,70.9546399,1.5283203125
,70.9549535,1.572265625
,70.9903406,1.611328125
,70.9952103,1.66015625
,71.0116291,1.708984375
,71.063473,1.7822265625
,71.064096,1.8310546875
,71.073286,1.884765625
,71.1084395,1.9140625
,71.1133815,1.943359375
,71.1560499,1.953125
,71.1564351,1.962890625
,71.1766626,1.953125
,71.1913504,1.9580078125
,71.2257866,1.953125
,71.2318536,1.943359375
,71.2678746,1.923828125
,71.2729174,1.9189453125
,71.3082069,1.904296875
,71.3131906,1.8798828125
,71.3521276,1.85546875
,71.3525572,1.826171875
,71.3886601,1.8115234375
,71.3912367,1.787109375
,71.4263072,1.767578125
,71.4471258,1.73828125
,71.4524852,1.7236328125
,71.4916873,1.6943359375
,71.4920853,1.6748046875
,71.5279028,1.650390625
,71.5304021,1.6552734375
,71.5749374,1.640625
,71.5751756,1.6259765625
,71.5924312,1.611328125
,71.6374764,1.5869140625
,71.6377495,1.572265625
,71.6550779,1.5576171875
,71.6744605,1.5576171875
,71.6909948,1.5576171875
,71.7300278,1.5966796875
,71.7302656,1.6357421875
,71.7787863,1.689453125
,71.779081,1.7333984375
,71.8078186,1.787109375
,71.8129353,1.826171875
,71.8501462,1.865234375
,71.8547132,1.8896484375
,71.8926131,1.9140625
,71.8930063,1.923828125
,71.9431744,1.943359375
,71.9434199,1.953125
,71.9532074,1.9482421875
,71.9889918,1.93359375
,71.9939928,1.9140625
,72.0302894,1.89453125
,72.0347705,1.8798828125
,72.0557055,1.8701171875
,72.0714979,1.8505859375
,72.107545,1.845703125
,72.1122625,1.8310546875
,72.1483023,1.81640625
,72.1679632,1.796875
,72.1741677,1.7724609375
,72.2097039,1.7529296875
,72.2297025,1.7333984375
,72.2347847,1.7138671875
,72.2511943,1.6845703125
,72.2861391,1.6748046875
,72.3066486,1.650390625
,72.3142908,1.640625
,72.3532459,1.6162109375
,72.3535863,1.5966796875
,72.4004421,1.5771484375
,72.4007596,1.5625
,72.4097025,1.54296875
,72.444794,1.54296875
,72.4653417,1.5283203125
,72.4728699,1.54296875
,72.493739,1.5576171875
,72.5410404,1.5966796875
,72.5413468,1.630859375
,72.5541289,1.6845703125
,72.6022431,1.728515625
,72.6025558,1.7626953125
,72.6177832,1.7578125
,72.6331273,1.7919921875
,72.667914,1.8310546875
,72.6888609,1.8505859375
,72.695463,1.865234375
,72.7310993,1.865234375
,72.7335515,1.8603515625
,72.7695811,1.8408203125
,72.7898266,1.826171875
,72.7901427,1.8115234375
,72.825472,1.806640625
,72.8463194,1.796875
,72.8551419,1.7822265625
,72.8899311,1.7724609375
,72.8948429,1.748046875
,72.9314831,1.728515625
,72.9594109,1.7041015625
,72.9596604,1.689453125
,72.9714859,1.66015625
,73.0083955,1.650390625
,73.0129706,1.630859375
,73.0486506,1.62109375
,73.0686109,1.6064453125
,73.0736313,1.611328125
,73.1156314,1.591796875
,73.1158887,1.5869140625
,73.1341415,1.572265625
,73.1696916,1.5673828125
,73.1714588,1.5478515625
,73.211023,1.54296875
,73.2152291,1.5283203125
,73.2589672,1.5234375
,73.2593557,1.5283203125
,73.2763815,1.552734375
,73.32007,1.5869140625
,73.3203069,1.6259765625
,73.3324166,1.6845703125
,73.3704857,1.7138671875
,73.3731545,1.7529296875
,73.4139595,1.77734375
,73.4142266,1.806640625
,73.4339111,1.8212890625
,73.4675993,1.8310546875
,73.4895374,1.8212890625
,73.4964819,1.8115234375
,73.5406192,1.796875
,73.5408629,1.77734375
,73.5535025,1.77734375
,73.5919678,1.7626953125
,73.5965219,1.7626953125
,73.6345606,1.7431640625
,73.6348768,1.728515625
,73.6819644,1.708984375
,73.68221,1.6943359375
,73.7029042,1.6748046875
,73.7131231,1.6748046875
,73.7465236,1.66015625
,73.7669354,1.66015625
,73.7752337,1.6455078125
,73.8097947,1.640625
,73.8404449,1.6259765625
,73.8408393,1.6259765625
,73.8571673,1.62109375
,73.8750991,1.6015625
,73.9167912,1.6015625
,73.9170303,1.591796875
,73.9356486,1.5869140625
,73.9705748,1.5771484375
,73.9912082,1.5771484375
,73.9964168,1.572265625
,74.0314702,1.58203125
,74.0514648,1.6064453125
,74.0548133,1.6552734375
,74.0740787,1.69921875
,74.0951233,1.7626953125
,74.130238,1.8017578125
,74.1508674,1.8505859375
,74.1559809,1.8896484375
,74.1918425,1.9091796875
,74.213008,1.9287109375
,74.2134016,1.93359375
,74.2498999,1.9482421875
,74.2542084,1.89453125
,74.2907944,1.9091796875
,74.2952634,1.904296875
,74.3423583,1.8994140625
,74.3425978,1.8896484375
,74.3576572,1.884765625
,74.3920727,1.8701171875
,74.395979,1.8603515625
,74.4132122,1.8359375
,74.4499798,1.8212890625
,74.4705945,1.8017578125
,74.4753428,1.7919921875
,74.5143544,1.7724609375
,74.5146672,1.748046875
,74.560573,1.7236328125
,74.56082,1.7041015625
,74.5809348,1.689453125
,74.5939025,1.6748046875
,74.6298297,1.6796875
,74.6354159,1.669921875
,74.6699925,1.66015625
,74.702678,1.6455078125
,74.7031042,1.6357421875
,74.716136,1.6162109375
,74.7518285,1.611328125
,74.77258,1.6015625
,74.7746296,1.6259765625
,74.8103655,1.6650390625
,74.8166416,1.69921875
,74.8523205,1.7431640625
,74.8549526,1.7822265625
,74.9022409,1.826171875
,74.9024825,1.85546875
,74.9238485,1.89453125
,74.9330496,1.9189453125
,74.9681366,1.953125
,74.9876376,1.9677734375
,74.9949847,1.982421875
,75.0311317,1.9677734375
,75.0507595,1.9677734375
,75.0564378,1.953125
,75.0932401,1.9384765625
,75.0987713,1.923828125
,75.1196372,1.904296875
,75.1539118,1.875
,75.1543033,1.8798828125
,75.198956,1.884765625
,75.1992722,1.884765625
,75.2297117,1.8701171875
,75.2389639,1.85546875
,75.2752225,1.8359375
,75.279384,1.81640625
,75.3009124,1.7919921875
,75.3157836,1.767578125
,75.3527942,1.7578125
,75.3736088,1.748046875
,75.3784567,1.73828125
,75.3990712,1.7236328125
,75.4477396,1.708984375
,75.4481256,1.7041015625
,75.4601219,1.6845703125
,75.5067125,1.6650390625
,75.5071328,1.6455078125
,75.5150204,1.66015625
,75.5557506,1.66015625
,75.555987,1.689453125
,75.6013924,1.71875
,75.6016339,1.767578125
,75.6218731,1.796875
,75.6399721,1.85546875
,75.6556172,1.884765625
,75.6913152,1.93359375
,75.6964116,1.9677734375
,75.7428154,1.9970703125
,75.743218,2.0068359375
,75.7594048,2.021484375
,75.7959814,2.0166015625
,75.7995443,1.9970703125
,75.8350814,1.982421875
,75.8353204,1.962890625
,75.8576516,1.953125
,75.8932881,1.9384765625
,75.8961068,1.9287109375
,75.9327164,1.904296875
,75.9379156,1.8798828125
,75.9730097,1.8505859375
,75.9781799,1.8212890625
,75.9999877,1.787109375
,76.0332415,1.767578125
,76.0532725,1.7333984375
,76.0560214,1.7138671875
,76.0923824,1.69921875
,76.1139097,1.669921875
,76.1189244,1.650390625
,76.1557781,1.6259765625
,76.1590344,1.611328125
,76.1829145,1.591796875
,76.1994773,1.5771484375
,76.2324386,1.5576171875
,76.2369658,1.552734375
,76.2742433,1.533203125
,76.2789379,1.5283203125
,76.3152878,1.5185546875
,76.3207175,1.533203125
,76.3399443,1.5625
,76.3593225,1.6064453125
,76.3772606,1.640625
,76.4162862,1.69921875
,76.4164952,1.7529296875
,76.4399945,1.787109375
,76.4582342,1.826171875
,76.4794676,1.845703125
,76.5228028,1.875
,76.5231146,1.875
,76.5430568,1.8798828125
,76.5572044,1.8701171875
,76.5769672,1.8701171875
,76.6177352,1.8603515625
,76.6179793,1.85546875
,76.6382265,1.8359375
,76.672746,1.8310546875
,76.6933341,1.8115234375
,76.7010239,1.796875
,76.7430917,1.787109375
,76.7433439,1.7578125
,76.7613655,1.748046875
,76.7776803,1.6796875
,76.820438,1.6796875
,76.820721,1.669921875
,76.8395534,1.66015625
,76.8849911,1.640625
,76.8853988,1.6259765625
,76.9003373,1.6015625
,76.9463109,1.591796875
,76.9465495,1.5673828125
,76.9754687,1.572265625
,76.980353,1.5625
,77.0246502,1.552734375
,77.0248898,1.533203125
,77.041336,1.533203125
,77.0761159,1.533203125
,77.0810279,1.5380859375
,77.100333,1.572265625
,77.1164559,1.611328125
,77.1548793,1.669921875
,77.1570109,1.7236328125
,77.192871,1.787109375
,77.2132937,1.8408203125
,77.2216115,1.884765625
,77.2725222,1.923828125
,77.2727593,1.953125
,77.2771749,1.9677734375
,77.3175196,1.9873046875
,77.3177645,1.982421875
,77.3517578,1.9775390625
,77.3817506,1.97265625
,77.3821748,1.953125
,77.4183363,1.93359375
,77.4213576,1.904296875
,77.4583073,1.8994140625
,77.4587069,1.865234375
,77.4929087,1.8603515625
,77.4980728,1.8359375
,77.5359763,1.81640625
,77.5566931,1.7919921875
,77.5595818,1.7724609375
,77.5989394,1.7431640625
,77.6023931,1.7236328125
,77.6210682,1.69921875
,77.6564961,1.650390625
,77.6590794,1.640625
,77.6953304,1.6552734375
,77.6970453,1.650390625
,77.7389672,1.640625
,77.7392035,1.630859375
,77.7619812,1.611328125
,77.7967098,1.6015625
,77.8025005,1.58203125
,77.848008,1.572265625
,77.8484196,1.5673828125
,77.8598084,1.5869140625
,77.8958443,1.62109375
,77.9002525,1.66015625
,77.9397852,1.6943359375
,77.9401303,1.7529296875
,77.9765191,1.7919921875
,78.0029961,1.8310546875
,78.0033864,1.8896484375
,78.0192317,1.9091796875
,78.0659917,1.9580078125
,78.066232,1.97265625
,78.0800408,1.9970703125
,78.1008821,1.9873046875
,78.1367144,1.9873046875
,78.141912,1.9677734375
,78.1615609,1.9580078125
,78.1795093,1.93359375
,78.2226835,1.9384765625
,78.2230771,1.9189453125
,78.2418992,1.904296875
,78.2597098,1.8798828125
,78.294959,1.8603515625
,78.3166328,1.826171875
,78.3212686,1.806640625
,78.3570505,1.77734375
,78.3764901,1.748046875
,78.3767473,1.73828125
,78.4245629,1.71875
,78.4248285,1.7041015625
,78.4556241,1.689453125
,78.4604177,1.6796875
,78.5013608,1.66015625
,78.5018669,1.650390625
,78.5474783,1.6357421875
,78.5477246,1.62109375
,78.5591196,1.6015625
,78.5945694,1.6064453125
,78.6257665,1.591796875
,78.6261587,1.5869140625
,78.6423581,1.6015625
,78.6615798,1.6162109375
,78.704127,1.650390625
,78.7046782,1.689453125
,78.7389427,1.7431640625
,78.7391812,1.77734375
,78.7749146,1.8310546875
,78.7806596,1.8701171875
,78.8019578,1.904296875
,78.8385875,1.923828125
,78.8416438,1.9482421875
,78.8781697,1.9482421875
,78.8825548,1.943359375
,78.8991134,1.93359375
,78.9338572,1.9287109375
,78.9562011,1.9091796875
,78.9614052,1.904296875
,78.9817255,1.89453125
,79.00213,1.8701171875
,79.0364767,1.85546875
,79.0575237,1.8310546875
,79.0621039,1.8115234375
,79.0789359,1.7822265625
,79.0996063,1.767578125
,79.1359998,1.7431640625
,79.140737,1.7236328125
,79.1614158,1.69921875
,79.2018375,1.6845703125
,79.2320279,1.66015625
,79.2323283,1.6552734375
,79.2390613,1.6357421875
,79.27739,1.630859375
,79.2855048,1.5771484375
,79.299641,1.5234375
,79.3398655,1.533203125
,79.3697876,1.5283203125
,79.3701035,1.5283203125
,79.3814026,1.5087890625
,79.4181594,1.5087890625
,79.4230093,1.5087890625
,79.4590297,1.54296875
,79.4792254,1.5771484375
,79.479471,1.6455078125
,79.5151453,1.6845703125
,79.5350433,1.7333984375
,79.5423854,1.7626953125
,79.5630124,1.7919921875
,79.5987106,1.8115234375
,79.6183246,1.845703125
,79.6233001,1.8603515625
,79.6416501,1.8603515625
,79.6777126,1.8701171875
,79.683348,1.865234375
,79.7023472,1.845703125
,79.745883,1.8310546875
,79.7461824,1.8212890625
,79.7640727,1.796875
,79.8013965,1.7822265625
,79.801786,1.767578125
,79.840573,1.7578125
,79.8409968,1.73828125
,79.8615664,1.7236328125
,79.9010392,1.69921875
,79.9012806,1.6796875
,79.9217356,1.669921875
,79.9639418,1.640625
,79.9642609,1.62109375
,79.9841515,1.6015625
,80.0021387,1.6064453125
,80.0407937,1.591796875
,80.041045,1.58203125
,80.0866609,1.5625
,80.0869102,1.552734375
,80.1037776,1.533203125
,80.1509023,1.5283203125
,80.1514174,1.5087890625
,80.1821363,1.46484375
,80.1825302,1.46484375
,80.2187311,1.50390625
,80.2215841,1.5380859375
,80.259818,1.6064453125
,80.2899525,1.6650390625
,80.2902883,1.708984375
,80.3045891,1.767578125
,80.3503988,1.8115234375
,80.3507164,1.8505859375
,80.3618116,1.884765625
,80.3957618,1.9189453125
,80.4175554,1.9384765625
,80.4241445,1.9482421875
,80.4425927,1.943359375
,80.4932527,1.9287109375
,80.4936262,1.9091796875
,80.5225237,1.8994140625
,80.5228042,1.875
,80.5703564,1.8603515625
,80.5706717,1.8505859375
,80.5820041,1.826171875
,80.6186806,1.81640625
,80.6468146,1.7919921875
,80.6470829,1.7822265625
,80.6646755,1.7578125
,80.7084983,1.73828125
,80.7088196,1.708984375
,80.7286707,1.69921875
,80.7421839,1.6845703125
,80.7776544,1.6845703125
,80.7830534,1.6748046875
,80.8037139,1.66015625
,80.8240262,1.640625
,80.8451124,1.62109375
,80.862113,1.5966796875
,80.9023807,1.591796875
,80.902773,1.5869140625
,80.947513,1.5673828125
,80.9477635,1.5625
,80.9629173,1.5576171875
,81.0101911,1.5625
,81.0104314,1.58203125
,81.0314152,1.6259765625
,81.0464191,1.66015625
,81.0652787,1.708984375
,81.082142,1.7529296875
,81.1031188,1.806640625
,81.149948,1.845703125
,81.1503529,1.884765625
,81.1651343,1.904296875
,81.182963,1.923828125
,81.2204371,1.93359375
,81.2252572,1.9287109375
,81.2608818,1.9189453125
,81.2641686,1.904296875
,81.2996098,1.9140625
,81.3045405,1.904296875
,81.3524698,1.8994140625
,81.3527129,1.884765625
,81.3663457,1.875
,81.3864962,1.8505859375
,81.421539,1.8310546875
,81.4217792,1.8017578125
,81.4599141,1.7822265625
,81.4928179,1.767578125
,81.4931871,1.7431640625
,81.5041497,1.7236328125
,81.5395541,1.7138671875
,81.5444209,1.69921875
,81.5846282,1.6748046875
,81.5848978,1.66015625
,81.6188332,1.640625
,81.6207746,1.630859375
,81.6566049,1.6162109375
,81.678674,1.611328125
,81.6858033,1.5966796875
,81.727025,1.58203125
,81.7272233,1.5673828125
,81.7465865,1.552734375
,81.761934,1.533203125
,81.8067353,1.552734375
,81.8071265,1.5234375
,81.8251192,1.58203125
,81.8602491,1.6455078125
,81.8646215,1.6943359375
,81.8999051,1.748046875
,81.92086,1.7919921875
,81.9259491,1.8408203125
,81.9628225,1.8603515625
,81.9674348,1.89453125
,81.9843755,1.9091796875
,82.018632,1.93359375
,82.0239953,1.9287109375
,82.0612998,1.923828125
,82.066458,1.8994140625
,82.1012194,1.8798828125
,82.1055212,1.8603515625
,82.1419692,1.845703125
,82.1423598,1.81640625
,82.1783912,1.8115234375
,82.1993086,1.796875
,82.2047801,1.7724609375
,82.239841,1.7529296875
,82.2444779,1.73828125
,82.2829355,1.71875
,82.2860165,1.69921875
,82.3220457,1.689453125
,82.3223985,1.6650390625
,82.3577858,1.6552734375
,82.379148,1.640625
,82.3860389,1.62109375
,82.4268225,1.591796875
,82.4273456,1.572265625
,82.4633376,1.5478515625
,82.466522,1.5234375
,82.4870031,1.513671875
,82.5019376,1.4892578125
,82.5377959,1.484375
,82.5582467,1.474609375
,82.5654787,1.4892578125
,82.6169188,1.494140625
,82.6173144,1.5283203125
,82.6271289,1.5625
,82.6622683,1.6015625
,82.6656051,1.6357421875
,82.7027967,1.6748046875
,82.727112,1.708984375
,82.7275043,1.7578125
,82.7452895,1.7919921875
,82.7883194,1.8212890625
,82.788571,1.8310546875
,82.8058238,1.845703125
,82.8274921,1.8359375
,82.8639501,1.8212890625
,82.8687214,1.806640625
,82.8849367,1.787109375
,82.9217793,1.7822265625
,82.9268169,1.767578125
,82.9622424,1.7578125
,82.9645505,1.73828125
,82.9999121,1.71875
,83.0222888,1.69921875
,83.0290722,1.6748046875
,83.045099,1.6552734375
,83.064843,1.650390625
,83.0988671,1.640625
,83.1193619,1.62109375
,83.125922,1.6162109375
,83.1754794,1.5869140625
,83.1757238,1.572265625
,83.1862275,1.552734375
,83.2077784,1.533203125
,83.2256431,1.5087890625
,83.2599756,1.50390625
,83.2647244,1.494140625
,83.3011259,1.4892578125
,83.330194,1.484375
,83.3304415,1.494140625
,83.3469728,1.4990234375
,83.3672308,1.5185546875
,83.3838023,1.5478515625
,83.4236227,1.6064453125
,83.4240233,1.66015625
,83.444374,1.7236328125
,83.4856572,1.77734375
,83.5177739,1.81640625
,83.5181617,1.8505859375
,83.5277175,1.8798828125
,83.5634224,1.9091796875
,83.5690177,1.9189453125
,83.6106487,1.9287109375
,83.6110403,1.923828125
,83.6268786,1.9287109375
,83.6629103,1.923828125
,83.665883,1.923828125
,83.702815,1.9091796875
,83.7236945,1.8994140625
,83.7289202,1.8798828125
,83.7655836,1.85546875
,83.7690609,1.8408203125
,83.7859471,1.8115234375
,83.8284108,1.796875
,83.8289271,1.77734375
,83.8746787,1.767578125
,83.8750724,1.7431640625
,83.8884068,1.71875
,83.9092483,1.6943359375
,83.950358,1.6748046875
,83.9506757,1.650390625
,83.966331,1.6455078125
,84.0014533,1.6259765625
,84.0066061,1.62109375
,84.0427642,1.611328125
,84.0466733,1.6015625
,84.0841057,1.5869140625
,84.0876148,1.591796875
,84.1245244,1.58203125
,84.1249136,1.572265625
,84.1659765,1.5869140625
,84.1662348,1.6064453125
,84.1869963,1.650390625
,84.2080664,1.6796875
,84.2274334,1.71875
,84.2750402,1.748046875
,84.2752662,1.7822265625
,84.2878683,1.796875
,84.3082265,1.77734375
,84.3420068,1.7626953125
,84.3465567,1.8115234375
,84.3678193,1.8212890625
,84.4030153,1.8212890625
,84.4079429,1.81640625
,84.4462035,1.796875
,84.4464442,1.787109375
,84.4904082,1.767578125
,84.4906444,1.7578125
,84.5100238,1.73828125
,84.5269288,1.7333984375
,84.5625268,1.71875
,84.5682436,1.7041015625
,84.6150739,1.6796875
,84.6154698,1.6650390625
,84.628754,1.640625
,84.6502172,1.6259765625
,84.6665619,1.6015625
,84.7015326,1.5966796875
,84.7065378,1.5869140625
,84.7559657,1.58203125
,84.7562895,1.5771484375
,84.7711047,1.5673828125
,84.7892041,1.5576171875
,84.8243253,1.552734375
,84.8451335,1.5478515625
,84.8453703,1.5380859375
,84.8820485,1.552734375
,84.9016546,1.552734375
,84.9073766,1.5576171875
,84.9427496,1.5625
,84.947662,1.58203125
,84.9888415,1.6162109375
,84.9890994,1.6748046875
,85.0070029,1.7236328125
,85.0434279,1.787109375
,85.0464234,1.8505859375
,85.0831908,1.89453125
,85.1016992,1.9384765625
,85.1062562,1.962890625
,85.1470652,1.9970703125
,85.1767677,2.01171875
,85.1770581,2.0263671875
,85.1905507,2.01171875
,85.2121491,2.01171875
,85.2254756,1.9921875
,85.2593119,1.9921875
,85.2791769,1.97265625
,85.2874292,1.962890625
,85.322743,1.943359375
,85.3434305,1.9287109375
,85.3508427,1.8994140625
,85.3857225,1.904296875
,85.390253,1.8896484375
,85.4075504,1.865234375
,85.4417583,1.8505859375
,85.4622043,1.8310546875
,85.4679915,1.806640625
,85.5049396,1.7822265625
,85.5112541,1.7578125
,85.546318,1.728515625
,85.5492415,1.708984375
,85.5673652,1.6845703125
,85.6127608,1.669921875
,85.6131686,1.66015625
,85.6350955,1.640625
,85.6498862,1.6162109375
,85.6864393,1.5966796875
,85.6914412,1.5869140625
,85.7391512,1.5673828125
,85.7394651,1.5771484375
,85.748724,1.5869140625
,85.7847753,1.6455078125
,85.7894389,1.6845703125
,85.8088395,1.728515625
,85.8457415,1.7626953125
,85.8483889,1.8115234375
,85.8854586,1.8359375
,85.890558,1.875
,85.9067066,1.89453125
,85.9409481,1.923828125
,85.9629219,1.9287109375
,85.9702997,1.9287109375
,86.0167089,1.9091796875
,86.0169511,1.904296875
,86.0314897,1.8896484375
,86.0651208,1.875
,86.0700218,1.8603515625
,86.1069519,1.8408203125
,86.1116228,1.826171875
,86.1272018,1.8017578125
,86.1633528,1.796875
,86.1681077,1.7724609375
,86.2179913,1.748046875
,86.2186641,1.71875
,86.2471718,1.6943359375
,86.250123,1.66015625
,86.2862461,1.640625
,86.3113924,1.6064453125
,86.3116306,1.5966796875
,86.3299642,1.591796875
,86.3503968,1.5673828125
,86.3696393,1.5478515625
,86.4046397,1.5283203125
,86.4368158,1.5185546875
,86.4370701,1.4990234375
,86.4523833,1.4892578125
,86.468282,1.474609375
,86.515524,1.484375
,86.5157302,1.4892578125
,86.5280628,1.5234375
,86.5620397,1.5576171875
,86.5841925,1.6064453125
,86.5920061,1.650390625
,86.640497,1.689453125
,86.640734,1.7236328125
,86.6479153,1.77734375
,86.6882378,1.8115234375
,86.6885747,1.8212890625
,86.7245262,1.8310546875
,86.7306299,1.826171875
,86.7500778,1.8212890625
,86.7875031,1.8017578125
,86.812985,1.7919921875
,86.8134299,1.7626953125
,86.8503268,1.71875
,86.8507285,1.669921875
,86.8699043,1.6845703125
,86.907021,1.689453125
,86.9096898,1.69921875
,86.9447815,1.6943359375
,86.9656212,1.6943359375
,86.9705351,1.6943359375
,87.0125686,1.6748046875
,87.0129597,1.6650390625
,87.0329703,1.6455078125
,87.0500699,1.650390625
,87.0867645,1.6357421875
,87.0920611,1.6259765625
,87.1273295,1.6064453125
,87.1319638,1.5966796875
,87.1832095,1.58203125
,87.183486,1.5771484375
,87.1908336,1.5576171875
,87.2108152,1.5576171875
,87.2453578,1.5478515625
,87.250419,1.5478515625
,87.2935643,1.54296875
,87.293812,1.552734375
,87.3229849,1.58203125
,87.3328908,1.62109375
,87.3533643,1.669921875
,87.3690761,1.71875
,87.4157944,1.7724609375
,87.4160399,1.8212890625
,87.4359072,1.8701171875
,87.452825,1.8994140625
,87.4718619,1.9189453125
,87.5084739,1.9287109375
,87.5108292,1.9287109375
,87.5283925,1.9140625
,87.5637461,1.9189453125
,87.5848896,1.904296875
,87.5916746,1.89453125
,87.6278599,1.884765625
,87.632329,1.8603515625
,87.682756,1.8359375
,87.6831494,1.8115234375
,87.6939952,1.796875
,87.7440285,1.767578125
,87.7444195,1.748046875
,87.7512658,1.71875
,87.7915653,1.7138671875
,87.7919543,1.689453125
,87.8379107,1.6748046875
,87.8382285,1.6552734375
,87.8518802,1.650390625
,87.9003518,1.6259765625
,87.9005968,1.6162109375
,87.9211395,1.591796875
,87.9294239,1.6064453125
,87.9633483,1.6064453125
,87.9829183,1.6015625
,87.9905756,1.5966796875
,88.0275295,1.5869140625
,88.0321628,1.5771484375
,88.0742058,1.5673828125
,88.074598,1.58203125
,88.0917422,1.6064453125
,88.1356305,1.66015625
,88.1360251,1.7138671875
,88.1520905,1.767578125
,88.1990283,1.806640625
,88.19933,1.8505859375
,88.2133482,1.8798828125
,88.2609083,1.9091796875
,88.2615075,1.93359375
,88.2924998,1.93359375
,88.292742,1.943359375
,88.3387185,1.9384765625
,88.3389636,1.9384765625
,88.3522237,1.9189453125
,88.3888744,1.9091796875
,88.3955916,1.884765625
,88.4133779,1.865234375
,88.4317943,1.845703125
,88.4550219,1.8408203125
,88.4706894,1.77734375
,88.5065131,1.7822265625
,88.5268226,1.767578125
,88.5326421,1.7529296875
,88.5735704,1.7333984375
,88.5739627,1.71875
,88.594762,1.7041015625
,88.634783,1.6796875
,88.635025,1.6650390625
,88.6510458,1.6455078125
,88.6851015,1.640625
,88.7049687,1.630859375
,88.7118958,1.611328125
,88.7484944,1.591796875
,88.752859,1.5771484375
,88.8000658,1.552734375
,88.8004628,1.5283203125
,88.8105653,1.5087890625
,88.8464973,1.5087890625
,88.8524308,1.5087890625
,88.893583,1.533203125
,88.8938672,1.58203125
,88.9399155,1.6162109375
,88.9403047,1.6552734375
,88.9548582,1.689453125
,89.0030733,1.7333984375
,89.0035108,1.7578125
,89.0111869,1.796875
,89.0510913,1.81640625
,89.0808568,1.8359375
,89.0811296,1.8359375
,89.0944197,1.826171875
,89.1140834,1.81640625
,89.1497086,1.8115234375
,89.1501069,1.796875
,89.1853699,1.796875
,89.2055246,1.7822265625
,89.2108996,1.77734375
,89.2466236,1.767578125
,89.2668075,1.7431640625
,89.2735618,1.7333984375
,89.3087907,1.7138671875
,89.3138342,1.6943359375
,89.3378693,1.669921875
,89.3559314,1.62109375
,89.3721598,1.611328125
,89.3939274,1.62109375
,89.413579,1.62109375
,89.4344497,1.62109375
,89.4702627,1.6162109375
,89.5025403,1.6259765625
,89.5028481,1.6162109375
,89.5150941,1.6064453125
,89.5490449,1.6015625
,89.5710255,1.5771484375
,89.5712637,1.5771484375
,89.6142769,1.5673828125
,89.6146634,1.5771484375
,89.6453393,1.5771484375
,89.654285,1.6015625
,89.6900028,1.630859375
,89.6962341,1.6796875
,89.7123265,1.7138671875
,89.7484657,1.767578125
,89.7534596,1.806640625
,89.80065,1.845703125
,89.8010371,1.865234375
,89.8150318,1.8896484375
,89.8626055,1.8798828125
,89.8628427,1.884765625
,89.8766306,1.8701171875
,89.8917309,1.85546875
,89.9260808,1.8505859375
,89.9468714,1.8505859375
,89.9526283,1.845703125
,89.9745014,1.8359375
,90.0170755,1.8310546875
,90.0174648,1.8212890625
,90.0360105,1.8115234375
,90.0513636,1.796875
,90.0867167,1.796875
,90.1066135,1.787109375
,90.1117355,1.7822265625
,90.1572029,1.7626953125
,90.1574523,1.7529296875
,90.188542,1.748046875
,90.1950213,1.728515625
,90.2159242,1.71875
,90.2645834,1.7041015625
,90.2648245,1.69921875
,90.2719455,1.6845703125
,90.3124512,1.6845703125
,90.3127001,1.6748046875
,90.3591337,1.6650390625
,90.3593715,1.6455078125
,90.3751798,1.6357421875
,90.4199407,1.6162109375
,90.420178,1.6259765625
,90.4394693,1.6357421875
,90.4545912,1.6748046875
,90.4726769,1.7138671875
,90.5065392,1.7724609375
,90.526942,1.826171875
,90.5348559,1.85546875
,90.5572812,1.8896484375
,90.5762533,1.9140625
,90.6216231,1.9384765625
,90.6218621,1.953125
,90.6535218,1.9677734375
,90.6537572,1.962890625
,90.6998472,1.9580078125
,90.7000869,1.9384765625
,90.7161948,1.9189453125
,90.7609576,1.8994140625
,90.7612632,1.8896484375
,90.7729709,1.8701171875
,90.8095192,1.865234375
,90.812637,1.8603515625
,90.8536471,1.8408203125
,90.8740052,1.826171875
,90.8744066,1.806640625
,90.9096152,1.7919921875
,90.929913,1.767578125
,90.9353753,1.7529296875
,90.9528877,1.728515625
,90.9896029,1.71875
,90.9948959,1.6552734375
,91.0140755,1.6650390625
,91.0482175,1.66015625
,91.0695674,1.6552734375
,91.0769,1.6455078125
,91.1106448,1.630859375
,91.1317821,1.611328125
,91.1389381,1.6064453125
,91.1786747,1.5869140625
,91.1789223,1.5673828125
,91.1954999,1.572265625
,91.2323359,1.58203125
,91.2371006,1.6162109375
,91.2735896,1.6552734375
,91.2743035,1.708984375
,91.317965,1.748046875
,91.3183523,1.7919921875
,91.3480953,1.8212890625
,91.3540148,1.865234375
,91.3949296,1.884765625
,91.3951639,1.9140625
,91.4155102,1.9140625
,91.4580242,1.9189453125
,91.45827,1.9140625
,91.4951514,1.8994140625
,91.4957589,1.884765625
,91.5136937,1.8798828125
,91.5477453,1.8896484375
,91.5688137,1.884765625
,91.5758348,1.875
,91.6112099,1.8603515625
,91.6164453,1.845703125
,91.6537753,1.826171875
,91.6595646,1.8115234375
,91.6736251,1.787109375
,91.7257014,1.77734375
,91.7260958,1.767578125
,91.7352223,1.7529296875
,91.7861651,1.7236328125
,91.7864134,1.7236328125
,91.7971052,1.7041015625
,91.8156007,1.6796875
,91.8504628,1.66015625
,91.869564,1.640625
,91.8778281,1.5869140625
,91.895532,1.5771484375
,91.9330279,1.5869140625
,91.9375008,1.58203125
,91.9741013,1.5771484375
,91.9784192,1.5673828125
,92.0130576,1.572265625
,92.0176616,1.591796875
,92.0543782,1.640625
,92.0732508,1.6748046875
,92.0756611,1.728515625
,92.1268215,1.787109375
,92.127283,1.8115234375
,92.1365847,1.845703125
,92.1737827,1.865234375
,92.1755475,1.884765625
,92.2214258,1.884765625
,92.2217555,1.8896484375
,92.234992,1.875
,92.2682938,1.875
,92.2884373,1.8603515625
,92.2971223,1.85546875
,92.334407,1.8310546875
,92.339012,1.826171875
,92.3740565,1.8017578125
,92.3764799,1.787109375
,92.3933277,1.7578125
,92.4373063,1.7626953125
,92.4375989,1.748046875
,92.456251,1.728515625
,92.5001916,1.7138671875
,92.500694,1.69921875
,92.5172807,1.6845703125
,92.5380445,1.669921875
,92.5725867,1.669921875
,92.5931782,1.6650390625
,92.5959325,1.6650390625
,92.6420721,1.66015625
,92.6425037,1.6552734375
,92.6558529,1.6455078125
,92.6905478,1.6455078125
,92.7115403,1.6357421875
,92.7192044,1.6259765625
,92.754616,1.6259765625
,92.7599263,1.6162109375
,92.7973383,1.630859375
,92.7979154,1.6552734375
,92.8172198,1.7138671875
,92.8590631,1.7529296875
,92.8593423,1.8017578125
,92.9052616,1.8359375
,92.9055124,1.8798828125
,92.9186187,1.904296875
,92.9606399,1.93359375
,92.9608772,1.9384765625
,92.9770205,1.962890625
,93.0135291,1.9580078125
,93.0163849,1.962890625
,93.0536354,1.943359375
,93.0582753,1.943359375
,93.0791081,1.9287109375
,93.1000995,1.9091796875
,93.1474039,1.8896484375
,93.147792,1.875
,93.1568809,1.8701171875
,93.209161,1.85546875
,93.2095513,1.845703125
,93.2182496,1.8310546875
,93.2573292,1.8115234375
,93.2577237,1.7919921875
,93.2945376,1.7724609375
,93.2954213,1.748046875
,93.3160146,1.748046875
,93.3504626,1.728515625
,93.3708009,1.7236328125
,93.3778632,1.71875
,93.4146129,1.69921875
,93.4455491,1.6845703125
,93.445943,1.669921875
,93.4605871,1.6650390625
,93.4751356,1.6455078125
,93.5101068,1.6455078125
,93.5296305,1.591796875
,93.5384497,1.6064453125
,93.5740787,1.6259765625
,93.5786091,1.6748046875
,93.6286262,1.708984375
,93.6290421,1.7578125
,93.6414444,1.8017578125
,93.6766172,1.845703125
,93.6769468,1.8701171875
,93.7120447,1.9287109375
,93.7330365,1.962890625
,93.7381943,1.982421875
,93.774298,1.9921875
,93.779156,1.9921875
,93.8147481,1.982421875
,93.8192659,1.97265625
,93.8561555,1.962890625
,93.8564928,1.943359375
,93.8927925,1.93359375
,93.8975508,1.923828125
,93.9432949,1.9091796875
,93.9436556,1.8896484375
,93.9594239,1.884765625
,93.9811845,1.865234375
,94.015946,1.8408203125
,94.0190994,1.8310546875
,94.0534603,1.8017578125
,94.0565801,1.7919921875
,94.098871,1.77734375
,94.0991893,1.767578125
,94.1199051,1.748046875
,94.160963,1.7333984375
,94.1613518,1.7138671875
,94.1963482,1.69921875
,94.1965947,1.6796875
,94.2311498,1.6796875
,94.2517687,1.6650390625
,94.2598704,1.6552734375
,94.301339,1.640625
,94.3020665,1.630859375
,94.3208182,1.6162109375
,94.3405112,1.6357421875
,94.3600725,1.6650390625
,94.3964442,1.6943359375
,94.4021353,1.7333984375
,94.41881,1.767578125
,94.4533916,1.806640625
,94.4740186,1.8408203125
,94.4817361,1.8701171875
,94.5001279,1.884765625
,94.5346999,1.89453125
,94.5544138,1.89453125
,94.5594373,1.884765625
,94.578552,1.865234375
,94.6267138,1.875
,94.6271219,1.8603515625
,94.6376238,1.8505859375
,94.672754,1.8408203125
,94.6934581,1.81640625
,94.698595,1.8017578125
,94.7359696,1.7724609375
,94.7657068,1.7626953125
,94.7660121,1.73828125
,94.7796883,1.728515625
,94.814834,1.708984375
,94.8204359,1.6943359375
,94.8574343,1.669921875
,94.8576781,1.6552734375
,94.8981591,1.6259765625
,94.9272236,1.611328125
,94.9275066,1.5869140625
,94.9371008,1.5771484375
,94.9748561,1.5576171875
,94.9780135,1.552734375
,95.0128017,1.5380859375
,95.0336812,1.5185546875
,95.041455,1.5087890625
,95.0604486,1.4892578125
,95.1013576,1.4794921875
,95.1016017,1.4794921875
,95.1183978,1.5185546875
,95.1546618,1.5576171875
,95.1598708,1.6064453125
,95.1957316,1.6455078125
,95.2013752,1.6796875
,95.2360515,1.708984375
,95.2417327,1.7431640625
,95.2866534,1.7626953125
,95.2869047,1.7724609375
,95.3026958,1.787109375
,95.3198375,1.77734375
,95.3702967,1.7822265625
,95.3705386,1.77734375
,95.380706,1.77734375
,95.4164468,1.7578125
,95.4209875,1.7529296875
,95.4588877,1.7333984375
,95.4612995,1.7236328125
,95.4976254,1.7041015625
,95.4980196,1.7041015625
,95.5340368,1.6845703125
,95.5388252,1.6748046875
,95.5742493,1.6552734375
,95.5944146,1.640625
,95.6015455,1.6162109375
,95.6380636,1.6259765625
,95.6427997,1.6259765625
,95.6579753,1.6162109375
,95.6959649,1.630859375
,95.7005359,1.6259765625
,95.7357085,1.62109375
,95.7401809,1.611328125
,95.775322,1.6064453125
,95.7956226,1.5966796875
,95.8041412,1.5869140625
,95.8200839,1.5771484375
,95.870482,1.58203125
,95.870801,1.5771484375
,95.8807074,1.6015625
,95.9166346,1.6259765625
,95.9215968,1.669921875
,95.9580443,1.7236328125
,95.9625474,1.7626953125
,95.9981488,1.806640625
,96.0041109,1.8359375
,96.0234104,1.8408203125
,96.0413848,1.8310546875
,96.0613128,1.884765625
,96.0796615,1.904296875
,96.1215367,1.923828125
,96.1217808,1.9189453125
,96.1555182,1.9287109375
,96.1756815,1.9140625
,96.183428,1.9091796875
,96.1982428,1.8896484375
,96.2470565,1.884765625
,96.2473922,1.8701171875
,96.2780449,1.8701171875
,96.2824662,1.8603515625
,96.3183737,1.8359375
,96.3254815,1.81640625
,96.3443536,1.7919921875
,96.379694,1.7724609375
,96.3800739,1.7578125
,96.4171406,1.7529296875
,96.4214254,1.7431640625
,96.4422854,1.728515625
,96.463386,1.708984375
,96.4839558,1.6943359375
,96.5024888,1.6748046875
,96.5543334,1.669921875
,96.5547331,1.650390625
,96.5615085,1.650390625
,96.5805236,1.650390625
,96.6149608,1.6357421875
,96.6360917,1.6259765625
,96.6408135,1.6162109375
,96.6761621,1.6357421875
,96.6964003,1.650390625
,96.7035675,1.689453125
,96.7191437,1.7236328125
,96.7714474,1.77734375
,96.7718209,1.81640625
,96.7809153,1.865234375
,96.8157563,1.8994140625
,96.836286,1.93359375
,96.8435906,1.9482421875
,96.8637616,1.9580078125
,96.8837716,1.9482421875
,96.9275175,1.953125
,96.9279075,1.9482421875
,96.9404652,1.923828125
,96.9878548,1.9189453125
,96.9881019,1.9091796875
,97.0093432,1.8994140625
,97.0237501,1.884765625
,97.0664341,1.875
,97.0668606,1.85546875
,97.0862564,1.8310546875
,97.10096,1.806640625
,97.1353067,1.796875
,97.1568707,1.7822265625
,97.1621461,1.7724609375
,97.1984962,1.748046875
,97.2036983,1.728515625
,97.2518277,1.71875
,97.2521102,1.6943359375
,97.2632687,1.6796875
,97.2805205,1.66015625
,97.3173597,1.66015625
,97.3218519,1.650390625
,97.3425497,1.6455078125
,97.3770845,1.6259765625
,97.3971463,1.611328125
,97.404162,1.5966796875
,97.4373076,1.5966796875
,97.4577914,1.58203125
,97.4601666,1.5966796875
,97.5041497,1.62109375
,97.5044021,1.66015625
,97.5219008,1.6943359375
,97.5581142,1.748046875
,97.5782771,1.796875
,97.5839705,1.8310546875
,97.6276568,1.8603515625
,97.6279066,1.884765625
,97.6417057,1.9140625
,97.6798245,1.93359375
,97.6802205,1.953125
,97.7144212,1.953125
,97.734444,1.943359375
,97.7439608,1.93359375
,97.7788293,1.9140625
,97.7850368,1.8896484375
,97.8231916,1.8798828125
,97.8235811,1.8603515625
,97.8439984,1.85546875
,97.8789861,1.8505859375
,97.881471,1.8310546875
,97.9176387,1.806640625
,97.9243167,1.7822265625
,97.9612496,1.7724609375
,97.9639661,1.748046875
,97.999149,1.7333984375
,98.0198323,1.708984375
,98.0225846,1.7041015625
,98.0689211,1.6943359375
,98.0692991,1.6943359375
,98.0835541,1.6796875
,98.1188108,1.669921875
,98.1236648,1.6552734375
,98.1608086,1.6455078125
,98.1610489,1.6259765625
,98.1921123,1.640625
,98.2038484,1.6357421875
,98.2537372,1.630859375
,98.2539924,1.6357421875
,98.2642742,1.6455078125
,98.314793,1.6748046875
,98.315075,1.7138671875
,98.3253478,1.7724609375
,98.3428022,1.8115234375
,98.3825028,1.865234375
,98.3828927,1.904296875
,98.4026559,1.9384765625
,98.4431857,1.9580078125
,98.4435811,1.9775390625
,98.4635734,1.9775390625
,98.4994463,1.9677734375
,98.5217068,1.9677734375
,98.5262999,1.953125
,98.5460869,1.8994140625
,98.5623692,1.85546875
,98.5979074,1.875
,98.6185827,1.8701171875
,98.6237958,1.8701171875
,98.6595616,1.85546875
,98.6647779,1.8408203125
,98.7009741,1.8212890625
,98.7203684,1.81640625
,98.7206687,1.7919921875
,98.7710334,1.77734375
,98.7714342,1.7578125
,98.8030684,1.7333984375
,98.8034531,1.7041015625
,98.8480249,1.6845703125
,98.8482652,1.66015625
,98.880563,1.630859375
,98.8872747,1.6015625
,98.9031482,1.572265625
,98.9380183,1.5576171875
,98.9596671,1.54296875
,98.9640131,1.533203125
,99.0033121,1.5087890625
,99.0240577,1.494140625
,99.0257636,1.474609375
,99.0607824,1.46484375
,99.0610214,1.4599609375
,99.0822816,1.50390625
,99.1282576,1.54296875
,99.1284974,1.591796875
,99.1441635,1.650390625
,99.1819934,1.689453125
,99.1845054,1.728515625
,99.2207112,1.767578125
,99.2536791,1.8017578125
,99.2540712,1.8212890625
,99.2631577,1.8505859375
,99.2844083,1.8603515625
,99.3209348,1.865234375
