Time,PPG_Signal
0.7137138,1.09375
0.7183149,1.11328125
0.7520974,1.1474609375
0.7732552,1.2060546875
0.7803533,1.259765625
0.8256248,1.318359375
0.825982,1.3525390625
0.8550611,1.396484375
0.8624415,1.4208984375
0.8804716,1.435546875
0.897758,1.4501953125
0.9489975,1.455078125
0.9493464,1.455078125
0.9698265,1.4453125
0.9822612,1.435546875
1.0178491,1.4111328125
1.0209779,1.3916015625
1.0549662,1.3671875
1.0603907,1.34765625
1.0959959,1.337890625
1.1002634,1.328125
1.1488298,1.3037109375
1.1492237,1.2890625
1.1607202,1.279296875
1.1959442,1.259765625
1.2249294,1.25
1.2252023,1.2353515625
1.2386743,1.2353515625
1.2585338,1.2158203125
1.2941181,1.2109375
1.3139907,1.1962890625
1.3208405,1.1865234375
1.3626656,1.171875
1.3629963,1.1669921875
1.3832811,1.15234375
1.402859,1.1572265625
1.4171304,1.11328125
1.4533888,1.1279296875
1.4732944,1.1181640625
1.4792939,1.1328125
1.5146722,1.1328125
1.5477659,1.1279296875
1.5481603,1.1279296875
1.5618541,1.1181640625
1.5965124,1.11328125
1.6267998,1.1083984375
1.627153,1.1279296875
1.6392971,1.162109375
1.6759035,1.2158203125
1.6967652,1.2744140625
1.700973,1.3330078125
1.7357879,1.3720703125
1.7570342,1.416015625
1.7574302,1.4453125
1.7913372,1.4697265625
1.811279,1.484375
1.8206613,1.484375
1.8624359,1.484375
1.8627663,1.4697265625
1.8924867,1.455078125
1.9028634,1.42578125
1.937663,1.4013671875
1.9378721,1.376953125
1.972295,1.3720703125
1.9938018,1.3623046875
2.0003322,1.357421875
2.0349278,1.3427734375
2.0551566,1.328125
2.0622113,1.3134765625
2.1072467,1.2939453125
2.1076376,1.2744140625
2.1201003,1.26953125
2.1684718,1.259765625
2.168809,1.2451171875
2.1829923,1.23046875
2.2008132,1.220703125
2.247931,1.2060546875
2.248261,1.1962890625
2.2687951,1.1865234375
2.2819785,1.1767578125
2.3157697,1.142578125
2.3198906,1.11328125
2.3555386,1.123046875
2.3749667,1.123046875
2.380377,1.1328125
2.4148587,1.1328125
2.4357384,1.1328125
2.4421793,1.1328125
2.481614,1.1181640625
2.5019743,1.1083984375
2.50239,1.1083984375
2.5439277,1.1328125
2.5444206,1.1669921875
2.5917575,1.220703125
2.5920314,1.279296875
2.6040445,1.3330078125
2.638067,1.376953125
2.6421631,1.416015625
2.684616,1.4404296875
2.6848743,1.46484375
2.7007352,1.474609375
2.720531,1.4794921875
2.7550772,1.474609375
2.775218,1.4697265625
2.7815457,1.455078125
2.8147915,1.4306640625
2.8356565,1.40625
2.8396259,1.3818359375
2.8805678,1.3671875
2.8808413,1.3525390625
2.9010525,1.3427734375
2.9355604,1.3232421875
2.9593997,1.30859375
2.9616188,1.2890625
2.9964895,1.2744140625
3.0212305,1.259765625
3.0215779,1.2548828125
3.0691794,1.2451171875
3.0699908,1.2353515625
3.081081,1.2255859375
3.1307562,1.2109375
3.1309655,1.201171875
3.1510502,1.1865234375
3.163505,1.181640625
3.2090194,1.171875
3.2092532,1.162109375
3.2221669,1.1474609375
3.2690333,1.1474609375
3.2695039,1.1328125
3.2832009,1.1328125
3.3179227,1.1181640625
3.3226532,1.11328125
3.3569002,1.103515625
3.378511,1.103515625
3.3787534,1.09375
3.4161214,1.1181640625
3.4201734,1.1474609375
3.452983,1.1962890625
3.4749412,1.25
3.4844471,1.3037109375
3.5190786,1.34765625
3.5230592,1.3818359375
3.5551187,1.416015625
3.5760112,1.435546875
3.5812951,1.46484375
3.6159416,1.474609375
3.6359054,1.4697265625
3.6419715,1.4599609375
3.6764598,1.4453125
3.6965254,1.4208984375
3.7025813,1.396484375
3.7343634,1.3818359375
3.7550122,1.357421875
3.7610484,1.3525390625
3.7959695,1.337890625
3.8158734,1.3330078125
3.8218746,1.318359375
3.8644771,1.3037109375
3.8647151,1.2841796875
3.8994694,1.2744140625
3.9174895,1.2548828125
3.922313,1.2548828125
3.9572493,1.240234375
3.961271,1.2353515625
3.9938788,1.220703125
4.0133275,1.2060546875
4.0247478,1.19140625
4.0659077,1.1865234375
4.0663268,1.181640625
4.1111903,1.1669921875
4.1116838,1.162109375
4.1215709,1.1474609375
4.1574915,1.1474609375
4.1774848,1.1376953125
4.1823778,1.1328125
4.2164245,1.123046875
4.2501597,1.1181640625
4.2503559,1.103515625
4.2653709,1.0986328125
4.2800947,1.103515625
4.314348,1.1376953125
4.344742,1.181640625
4.3450668,1.240234375
4.3905945,1.30859375
4.3908653,1.3525390625
4.4061042,1.396484375
4.4258227,1.4208984375
4.4611301,1.4453125
4.4614966,1.46484375
4.4948345,1.4794921875
4.5164635,1.484375
4.5248109,1.484375
4.5593458,1.4697265625
4.5634036,1.46484375
4.5989904,1.4453125
4.6183989,1.42578125
4.6208457,1.40625
4.656006,1.4013671875
4.6860578,1.38671875
4.6864048,1.3818359375
4.7200211,1.3671875
4.7222512,1.3427734375
4.7546399,1.328125
4.7767782,1.30859375
4.7857769,1.2939453125
4.8067513,1.279296875
4.8256499,1.25
4.8424086,1.2158203125
4.8865991,1.220703125
4.8869235,1.2158203125
4.9083528,1.2109375
4.925855,1.201171875
4.9462932,1.1962890625
4.9815441,1.181640625
4.9857077,1.171875
5.0195712,1.162109375
5.0451838,1.1474609375
5.0455455,1.1474609375
5.0790089,1.142578125
5.0830487,1.142578125
5.1168008,1.1328125
5.1379624,1.123046875
5.1446221,1.11328125
5.1796352,1.11328125
5.1994683,1.123046875
5.2013451,1.171875
5.2462018,1.220703125
5.2465364,1.2890625
5.2663016,1.337890625
5.3006121,1.38671875
5.3270861,1.416015625
5.327439,1.455078125
5.3695825,1.4794921875
5.3699166,1.484375
5.3855994,1.494140625
5.4203019,1.494140625
5.4246249,1.484375
5.4593624,1.46484375
5.4813216,1.4453125
5.4855092,1.4208984375
5.5255417,1.4013671875
5.5258719,1.3818359375
5.5458063,1.3671875
5.5805445,1.3525390625
5.5824487,1.34765625
5.6161137,1.337890625
5.635996,1.3232421875
5.6452205,1.30859375
5.6796863,1.2890625
5.7005373,1.26953125
5.706571,1.25
5.7398407,1.240234375
5.7607984,1.220703125
5.7650824,1.2158203125
5.8051427,1.201171875
5.8053951,1.19140625
5.843387,1.181640625
5.8454238,1.1767578125
5.8799859,1.162109375
5.9066387,1.15234375
5.9071135,1.1376953125
5.9223218,1.142578125
5.9550485,1.1279296875
5.97489,1.1279296875
5.9871869,1.123046875
6.0312154,1.11328125
6.0315605,1.1083984375
6.0473385,1.11328125
6.0826338,1.1376953125
6.1039954,1.1767578125
6.1041993,1.240234375
6.1417743,1.298828125
6.1719629,1.3427734375
6.1723103,1.376953125
6.1869152,1.40625
6.2347316,1.4208984375
6.2349312,1.4306640625
6.2549696,1.435546875
6.263515,1.4404296875
6.2982416,1.435546875
6.3185339,1.416015625
6.3251106,1.4013671875
6.3732974,1.376953125
6.3736209,1.3671875
6.38831,1.3427734375
6.4232558,1.3330078125
6.423608,1.3134765625
6.4582324,1.3134765625
6.4801532,1.2939453125
6.4856209,1.2890625
6.5320594,1.26953125
6.532386,1.259765625
6.5473883,1.25
6.5663459,1.2353515625
6.6096377,1.2158203125
6.6100024,1.2158203125
6.6302207,1.2109375
6.6452043,1.1962890625
6.681693,1.1962890625
6.6861952,1.19140625
6.7191472,1.181640625
6.7385589,1.171875
6.748475,1.162109375
6.7958107,1.15234375
6.796011,1.1474609375
6.804867,1.1328125
6.8416513,1.1279296875
6.8720797,1.123046875
6.8724102,1.123046875
6.8867935,1.1181640625
6.934781,1.123046875
6.9350398,1.15234375
6.9483497,1.19140625
6.9825619,1.2451171875
7.0113988,1.298828125
7.0119031,1.3671875
7.0442692,1.4111328125
7.0444943,1.4453125
7.0904997,1.4599609375
7.0907545,1.474609375
7.1107716,1.4794921875
7.1442099,1.4892578125
7.1448574,1.4794921875
7.1797943,1.4794921875
7.1861717,1.4599609375
7.2212093,1.4404296875
7.242657,1.4111328125
7.2471561,1.396484375
7.2946882,1.376953125
7.294895,1.3525390625
7.3078317,1.337890625
7.325354,1.318359375
7.3671911,1.30859375
7.3852259,1.298828125
7.3855585,1.2890625
7.4200981,1.2744140625
7.4462622,1.259765625
7.4466418,1.240234375
7.4804207,1.2255859375
7.5096664,1.2109375
7.5099783,1.1962890625
7.5265315,1.1767578125
7.570388,1.171875
7.5708061,1.1669921875
7.605008,1.1474609375
7.6052171,1.1376953125
7.6423961,1.1328125
7.6616911,1.1279296875
7.6678221,1.123046875
7.702459,1.1181640625
7.7246253,1.103515625
7.7248241,1.103515625
7.769561,1.0986328125
7.7698946,1.103515625
7.7915296,1.103515625
7.8075428,1.1376953125
7.8460198,1.1865234375
7.8797676,1.25
7.880113,1.298828125
7.8870437,1.3623046875
7.9255654,1.4111328125
7.9257834,1.4404296875
7.9701467,1.46484375
7.9704115,1.474609375
7.9916313,1.484375
8.009105,1.4794921875
8.0501022,1.4794921875
8.0503643,1.46484375
8.0657651,1.4501953125
8.1130179,1.42578125
8.113277,1.4013671875
8.132723,1.376953125
8.1482701,1.3671875
8.1848695,1.34765625
8.189135,1.328125
8.2226851,1.3134765625
8.2524982,1.2939453125
8.252704,1.259765625
8.2674127,1.2255859375
8.313835,1.2353515625
8.3141821,1.2255859375
8.3300562,1.220703125
8.3746933,1.2109375
8.3750751,1.2109375
8.3885709,1.1962890625
8.4221949,1.19140625
8.4447422,1.1767578125
8.4452533,1.1767578125
8.4792537,1.1669921875
8.5111783,1.1572265625
8.5115327,1.142578125
8.5455651,1.1376953125
8.5504511,1.1279296875
8.5707477,1.1181640625
8.5909224,1.1083984375
8.6061139,1.0986328125
8.6420114,1.0986328125
8.6483444,1.0986328125
8.6834922,1.11328125
8.7121082,1.1474609375
8.7123123,1.201171875
8.7454646,1.25
8.7496527,1.30859375
8.7666952,1.3525390625
8.8009771,1.4013671875
8.822258,1.4306640625
8.8262257,1.455078125
8.865553,1.474609375
8.8945274,1.474609375
8.894818,1.4794921875
8.9112439,1.46484375
8.9585036,1.4501953125
8.9587559,1.42578125
8.9669743,1.4111328125
9.0039236,1.3916015625
9.0240422,1.3720703125
9.0291211,1.3525390625
9.0492735,1.3427734375
9.0987923,1.318359375
9.0991913,1.3037109375
9.1287533,1.2841796875
9.130849,1.2744140625
9.1458035,1.2548828125
9.1912523,1.25
9.1916505,1.2451171875
9.2125331,1.23046875
9.2293929,1.2158203125
9.2688801,1.201171875
9.2692281,1.1865234375
9.3028562,1.171875
9.3253857,1.1669921875
9.3257197,1.15234375
9.3768891,1.1474609375
9.3772229,1.142578125
9.4054539,1.1376953125
9.4093062,1.1279296875
9.4419253,1.123046875
9.4614455,1.1083984375
9.4701959,1.103515625
9.5041786,1.0986328125
9.5287874,1.0888671875
9.5289907,1.0986328125
9.5631594,1.1181640625
9.5895934,1.171875
9.5899612,1.2255859375
9.6230956,1.2841796875
9.6528427,1.3330078125
9.6532886,1.376953125
9.6685712,1.40625
9.7028471,1.4404296875
9.7081928,1.4599609375
9.7424423,1.4794921875
9.7615453,1.4794921875
9.7706425,1.474609375
9.8064146,1.455078125
9.8111312,1.4453125
9.8472041,1.4208984375
9.8474609,1.396484375
9.8816702,1.38671875
9.9015604,1.3671875
9.9078388,1.357421875
9.9417587,1.337890625
9.9633561,1.328125
9.9709363,1.30859375
10.0072423,1.2939453125
10.0407535,1.2744140625
10.0410133,1.259765625
10.04775,1.2451171875
10.0823277,1.240234375
10.1040821,1.2255859375
10.11234,1.2158203125
10.1317213,1.2060546875
10.1661173,1.19140625
10.1702065,1.181640625
10.2059986,1.1669921875
10.2272248,1.1572265625
10.2275669,1.1474609375
10.2644985,1.142578125
10.288866,1.1328125
10.2891441,1.1279296875
10.3369889,1.11328125
10.3373239,1.1083984375
10.3663079,1.09375
10.3725007,1.0888671875
10.3886484,1.083984375
10.4298073,1.1181640625
10.4300223,1.162109375
10.4645724,1.23046875
10.4686032,1.2939453125
10.5031982,1.3427734375
10.5250678,1.38671875
10.5317398,1.416015625
10.5665739,1.4404296875
10.5875612,1.455078125
10.5877705,1.4794921875
10.6221794,1.484375
10.6441559,1.484375
10.6502891,1.4697265625
10.6947212,1.455078125
10.6949595,1.4306640625
10.7115875,1.416015625
10.7294791,1.396484375
10.7716777,1.38671875
10.7720005,1.3818359375
10.8170117,1.328125
10.8173695,1.328125
10.8300827,1.318359375
10.8632495,1.3134765625
10.8844947,1.298828125
10.8920728,1.2939453125
10.9315567,1.2744140625
10.9318039,1.2646484375
10.9542674,1.2451171875
10.9711039,1.240234375
11.0129676,1.2255859375
11.0131654,1.2158203125
11.0312151,1.201171875
11.0661006,1.19140625
11.0876156,1.171875
11.0940229,1.1669921875
11.1282979,1.162109375
11.1286437,1.1474609375
11.1623782,1.142578125
11.1987647,1.1376953125
11.1990866,1.1328125
11.2113681,1.123046875
11.2484994,1.123046875
11.2530105,1.11328125
11.2876141,1.1279296875
11.2879537,1.1474609375
11.308031,1.2060546875
11.3403234,1.259765625
11.3603481,1.318359375
11.3706791,1.3671875
11.402854,1.4013671875
11.4253072,1.4306640625
11.4331344,1.4453125
11.4520965,1.4599609375
11.4875718,1.46484375
11.492496,1.4794921875
11.5107562,1.4794921875
11.5514481,1.46484375
11.551782,1.4453125
11.5720688,1.4208984375
11.6041943,1.396484375
11.6246367,1.376953125
11.6326549,1.3525390625
11.6659744,1.318359375
11.6699649,1.279296875
11.702085,1.2841796875
11.7234996,1.2744140625
11.7319747,1.2744140625
11.7757157,1.26953125
11.7760735,1.2548828125
11.7927065,1.240234375
11.8263888,1.2255859375
11.8531054,1.2158203125
11.8535405,1.201171875
11.8718657,1.1962890625
11.9138658,1.1865234375
11.9140651,1.1767578125
11.9465969,1.162109375
11.9667793,1.1572265625
11.9728072,1.142578125
12.0066708,1.142578125
12.0398892,1.1279296875
12.0400877,1.1279296875
12.0506618,1.1279296875
12.0839909,1.1181640625
12.1049387,1.1181640625
12.1173853,1.1181640625
12.1342422,1.1376953125
12.1706024,1.1669921875
12.1724849,1.2158203125
12.1923939,1.259765625
12.2281567,1.318359375
12.235965,1.357421875
12.2525492,1.396484375
12.2875147,1.416015625
12.2916344,1.435546875
12.3267849,1.4404296875
12.3608778,1.4404296875
12.3613986,1.4306640625
12.3707927,1.42578125
12.4054025,1.4111328125
12.4266961,1.38671875
12.4334982,1.3671875
12.4707639,1.34765625
12.4709605,1.328125
12.5171399,1.3134765625
12.5174911,1.298828125
12.5467884,1.2841796875
12.5538604,1.26953125
12.5706313,1.25
12.6070035,1.240234375
12.6291137,1.23046875
12.6334338,1.2158203125
12.6676704,1.201171875
12.6724446,1.1865234375
12.7069397,1.1767578125
12.7340534,1.1669921875
12.7342618,1.162109375
12.7698369,1.1572265625
12.770218,1.1669921875
12.8112683,1.1669921875
12.8324544,1.171875
12.8327661,1.1669921875
12.8675342,1.162109375
12.8898975,1.15234375
12.8968465,1.1474609375
12.9193157,1.1376953125
12.9325779,1.1376953125
12.9774612,1.1279296875
12.9776605,1.1376953125
12.9940197,1.15234375
13.0396087,1.2060546875
13.0398569,1.2646484375
13.0543434,1.318359375
13.087605,1.3671875
13.1092221,1.40625
13.11187,1.4453125
13.150154,1.46484375
13.1547283,1.484375
13.1954382,1.4892578125
13.1957578,1.494140625
13.2318001,1.4892578125
13.2371813,1.474609375
13.2524437,1.4599609375
13.3026919,1.4501953125
13.3029241,1.4306640625
13.3114901,1.416015625
13.3608124,1.40625
13.3612111,1.38671875
13.3906432,1.3671875
13.3947912,1.34765625
13.4275566,1.328125
13.4476634,1.3037109375
13.4576293,1.2890625
13.4726178,1.2646484375
13.5071251,1.259765625
13.5275638,1.240234375
13.5341582,1.2353515625
13.570268,1.2158203125
13.5733452,1.2060546875
13.6107081,1.19140625
13.6151914,1.181640625
13.6483566,1.162109375
13.6524484,1.162109375
13.6856475,1.15234375
13.7049837,1.142578125
13.7141305,1.1376953125
13.7484388,1.1328125
13.7772681,1.123046875
13.7774758,1.11328125
13.8124756,1.11328125
13.8126959,1.1083984375
13.8560796,1.1328125
13.8563095,1.162109375
13.8864392,1.2158203125
13.8929277,1.26953125
13.9273107,1.328125
13.9484607,1.3671875
13.9565012,1.4013671875
13.991211,1.4306640625
13.9914372,1.4501953125
14.0265426,1.4697265625
14.0559874,1.4794921875
14.0562635,1.484375
14.0892411,1.474609375
14.1117777,1.4599609375
14.1165608,1.435546875
14.1355401,1.416015625
14.1566062,1.3916015625
14.1767424,1.3525390625
14.1953305,1.3232421875
14.2139098,1.328125
14.2482173,1.318359375
14.2702545,1.30859375
14.2748465,1.2890625
14.3099677,1.2841796875
14.330561,1.2744140625
14.3372041,1.25
14.3727435,1.2353515625
14.397748,1.2158203125
14.3981226,1.2109375
14.413746,1.1962890625
14.4468754,1.1865234375
14.4666039,1.1767578125
14.4742843,1.1669921875
14.5087719,1.15234375
14.539602,1.1474609375
14.5400946,1.1328125
14.5532181,1.1376953125
14.58839,1.1279296875
14.6106028,1.123046875
14.6153869,1.1279296875
14.6418582,1.1181640625
14.6770325,1.11328125
14.6773308,1.1083984375
14.7155325,1.1328125
14.7157729,1.162109375
14.7352178,1.220703125
14.7837428,1.2744140625
14.7840288,1.3330078125
14.7959266,1.3671875
14.8461246,1.40625
14.8465915,1.4306640625
14.8575851,1.455078125
14.874545,1.455078125
14.9093399,1.4697265625
14.9136236,1.46484375
14.9478727,1.4599609375
14.9675734,1.4453125
14.9759579,1.4208984375
15.0209989,1.396484375
15.0215335,1.376953125
15.0370136,1.357421875
15.070686,1.3427734375
15.092337,1.3330078125
15.0926027,1.3134765625
15.1315527,1.3037109375
15.1610029,1.2890625
15.1613299,1.2744140625
15.1765584,1.2548828125
15.2019247,1.2451171875
15.2224869,1.220703125
15.2384954,1.2060546875
15.2732579,1.1962890625
15.2737428,1.171875
15.3117033,1.1669921875
15.3167019,1.1572265625
15.335862,1.15234375
15.3721817,1.142578125
15.3773703,1.1328125
15.4133604,1.123046875
15.4178132,1.1181640625
15.4352234,1.103515625
15.471117,1.103515625
15.475087,1.0986328125
15.4963287,1.0986328125
15.5398872,1.09375
15.5401699,1.1083984375
15.5591532,1.1328125
15.594434,1.19140625
15.598772,1.2451171875
15.6158707,1.2939453125
15.6510887,1.34765625
15.6559091,1.38671875
15.6946913,1.416015625
15.6967521,1.4404296875
15.7310856,1.4599609375
15.7612465,1.46484375
15.7615858,1.4599609375
15.7756427,1.4501953125
15.8247693,1.4404296875
15.8249665,1.4208984375
15.8361993,1.40625
15.8719938,1.3818359375
15.8760215,1.3671875
15.9103236,1.3525390625
15.9292379,1.3330078125
15.937595,1.318359375
15.9704883,1.298828125
15.9928554,1.279296875
15.9931788,1.2548828125
16.0290582,1.25
16.0578389,1.2353515625
16.0583359,1.220703125
16.1047162,1.2060546875
16.1051153,1.1962890625
16.1171128,1.181640625
16.1512433,1.171875
16.1828652,1.1572265625
16.1831441,1.1572265625
16.1946483,1.1474609375
16.229747,1.15234375
16.2500826,1.15234375
16.2568648,1.1376953125
16.2918167,1.1279296875
16.3137022,1.1181640625
16.3183937,1.11328125
16.3355725,1.0986328125
16.3833821,1.1083984375
16.3837234,1.1181640625
16.4037229,1.15234375
16.41787,1.1962890625
16.4517912,1.259765625
16.4721976,1.30859375
16.4780606,1.3623046875
16.5113144,1.3916015625
16.5173298,1.4306640625
16.5362794,1.4599609375
16.5719752,1.474609375
16.5759827,1.4892578125
16.6084548,1.4892578125
16.6295516,1.4892578125
16.6377314,1.4794921875
16.6722427,1.4599609375
16.6964075,1.4404296875
16.7005821,1.4208984375
16.7160653,1.3720703125
16.750488,1.3671875
16.7701316,1.34765625
16.7767167,1.3330078125
16.8116069,1.318359375
16.8319045,1.298828125
16.8388475,1.2744140625
16.8732538,1.26953125
16.8952734,1.259765625
16.8956339,1.2451171875
16.9311732,1.240234375
16.9597914,1.23046875
16.9602142,1.220703125
16.9945847,1.2060546875
16.9988546,1.1962890625
17.0196841,1.1865234375
17.0550147,1.1767578125
17.0748314,1.162109375
17.0770799,1.162109375
17.1113528,1.1572265625
17.130981,1.1572265625
17.1381537,1.1474609375
17.1720649,1.1376953125
17.1923623,1.1328125
17.2011472,1.123046875
17.2411517,1.1181640625
17.2415263,1.11328125
17.2558058,1.1474609375
17.2893287,1.181640625
17.319535,1.2451171875
17.3201028,1.2939453125
17.3386785,1.34765625
17.3810491,1.38671875
17.3812458,1.42578125
17.4122497,1.4453125
17.4165537,1.474609375
17.4564987,1.484375
17.4568363,1.494140625
17.4777357,1.484375
17.5099346,1.484375
17.5325476,1.46484375
17.539278,1.4404296875
17.5744312,1.416015625
17.5965088,1.396484375
17.6005865,1.34765625
17.6176142,1.3134765625
17.6531155,1.318359375
17.6808341,1.30859375
17.681186,1.2939453125
17.7153844,1.2841796875
17.7198244,1.26953125
17.7561056,1.25
17.7603989,1.2353515625
17.7773094,1.2158203125
17.8118251,1.2060546875
17.8324773,1.201171875
17.8387634,1.1865234375
17.873161,1.1767578125
17.899269,1.162109375
17.899659,1.162109375
17.9453435,1.1474609375
17.9456558,1.1474609375
17.9567503,1.1376953125
17.991167,1.1376953125
18.0099489,1.1279296875
18.0184248,1.123046875
18.0554206,1.11328125
18.0870909,1.1083984375
18.0874125,1.1083984375
18.1046506,1.123046875
18.1177622,1.15234375
18.1522196,1.220703125
18.1717264,1.2841796875
18.1792168,1.328125
18.2008783,1.3671875
18.2465784,1.396484375
18.2469874,1.4208984375
18.2615502,1.4306640625
18.2807935,1.4404296875
18.2990144,1.435546875
18.3416424,1.435546875
18.3422632,1.42578125
18.375212,1.4111328125
18.3793805,1.3916015625
18.4193605,1.3818359375
18.4357088,1.3623046875
18.4419139,1.34765625
18.4829666,1.3330078125
18.4832439,1.318359375
18.5287899,1.298828125
18.5291548,1.2841796875
18.5388773,1.2744140625
18.5721024,1.259765625
18.5940996,1.2451171875
18.6012185,1.23046875
18.6368043,1.2158203125
18.6412614,1.201171875
18.6595781,1.19140625
18.6939803,1.171875
18.6969497,1.171875
18.7317145,1.162109375
18.7527876,1.1572265625
18.7615178,1.142578125
18.8057453,1.1376953125
18.8060471,1.1328125
18.8210803,1.123046875
18.8696647,1.11328125
18.8699107,1.103515625
18.9003512,1.103515625
18.9005528,1.1083984375
18.9207165,1.11328125
18.9548996,1.123046875
18.959617,1.162109375
18.9936844,1.2060546875
19.0213954,1.2646484375
19.0216073,1.3134765625
19.0379308,1.3720703125
19.0705789,1.40625
19.0906675,1.4404296875
19.0986312,1.46484375
19.1453866,1.474609375
19.1457187,1.484375
19.1760904,1.484375
19.182863,1.4794921875
19.1975959,1.4599609375
19.2369983,1.4453125
19.257732,1.42578125
19.2596426,1.40625
19.2996612,1.38671875
19.3295909,1.3720703125
19.329942,1.357421875
19.341585,1.3427734375
19.3740883,1.3232421875
19.4072667,1.3037109375
19.4076564,1.279296875
19.4191027,1.279296875
19.454321,1.26953125
19.4750509,1.2548828125
19.4812044,1.25
19.5155841,1.2353515625
19.5354219,1.2255859375
19.5424975,1.2060546875
19.5783713,1.1962890625
19.5789274,1.181640625
19.6142102,1.1767578125
19.6339205,1.1669921875
19.6411053,1.1572265625
19.6869577,1.1474609375
19.6871992,1.142578125
19.7035112,1.1328125
19.7222369,1.1181640625
19.7584044,1.1181640625
19.7588054,1.103515625
19.7942032,1.1083984375
19.8159077,1.11328125
19.8219784,1.15234375
19.8570212,1.1962890625
19.8611025,1.259765625
19.8948504,1.3037109375
19.9177663,1.3525390625
19.917989,1.3818359375
19.9514834,1.42578125
19.971988,1.455078125
19.9803461,1.474609375
20.0150439,1.4794921875
20.0358825,1.4794921875
20.0417319,1.46484375
20.0748304,1.4501953125
20.0951947,1.4306640625
20.0993908,1.40625
20.1325266,1.3916015625
20.1538264,1.3427734375
20.1612791,1.3427734375
20.1951457,1.3330078125
20.2167597,1.328125
20.2206317,1.30859375
20.2531599,1.2939453125
20.2728444,1.279296875
20.2830525,1.2646484375
20.3170694,1.25
20.3219325,1.240234375
20.356432,1.23046875
20.3640984,1.220703125
20.3834375,1.2109375
20.401616,1.1962890625
20.4239201,1.1865234375
20.4717418,1.1767578125
20.4720148,1.1669921875
20.4795846,1.1572265625
20.5143705,1.162109375
20.5348192,1.15234375
20.5423677,1.1474609375
20.5832839,1.1376953125
20.5835561,1.1328125
20.6272027,1.1181640625
20.6277445,1.11328125
20.6393858,1.1083984375
20.6723262,1.1279296875
20.6927786,1.162109375
20.7006641,1.220703125
20.7355617,1.279296875
20.7669787,1.3232421875
20.7673402,1.3623046875
20.7844916,1.3916015625
20.8199024,1.416015625
20.8201632,1.4306640625
20.8617235,1.4453125
20.8621628,1.4501953125
20.882234,1.4501953125
20.9162631,1.435546875
20.9358404,1.4208984375
20.9432177,1.396484375
20.9868761,1.3818359375
20.9871292,1.3623046875
21.0059834,1.328125
21.0487754,1.3232421875
21.0490179,1.30859375
21.0612211,1.3037109375
21.0972356,1.2939453125
21.1277152,1.279296875
21.1280439,1.2646484375
21.1451379,1.25
21.1802207,1.23046875
21.1842315,1.2158203125
21.2197009,1.1962890625
21.2200483,1.19140625
21.2658472,1.181640625
21.2661815,1.171875
21.2855288,1.162109375
21.3260865,1.15234375
21.326389,1.142578125
21.3431616,1.1376953125
21.3775391,1.1279296875
21.398717,1.11328125
21.4059763,1.1181640625
21.4230714,1.1083984375
21.4581285,1.103515625
21.4631336,1.09375
21.4988597,1.0986328125
21.5278721,1.1181640625
21.528114,1.162109375
21.5425753,1.2109375
21.5888784,1.279296875
21.5890809,1.328125
21.6026841,1.376953125
21.6488957,1.40625
21.6492007,1.435546875
21.6705374,1.4599609375
21.685544,1.4697265625
21.7214366,1.4697265625
21.7216367,1.4599609375
21.7572709,1.4599609375
21.7613507,1.4404296875
21.7955134,1.4208984375
21.8194273,1.396484375
21.823508,1.376953125
21.8668844,1.357421875
21.8672154,1.3427734375
21.8969736,1.3232421875
21.9060583,1.30859375
21.9204559,1.2890625
21.9525487,1.279296875
21.9750034,1.259765625
21.9851236,1.2548828125
22.019812,1.25
22.0240058,1.23046875
22.0567821,1.220703125
22.077018,1.2060546875
22.0866104,1.1962890625
22.101872,1.181640625
22.1379583,1.1767578125
22.1589945,1.1669921875
22.1630365,1.162109375
22.1958314,1.1474609375
22.2161651,1.142578125
22.224046,1.1279296875
22.2595023,1.1181640625
22.2832958,1.1083984375
22.2835687,1.1083984375
22.3302603,1.1083984375
22.3304627,1.103515625
22.3514647,1.11328125
22.3653086,1.1376953125
22.408306,1.1865234375
22.408733,1.240234375
22.4262367,1.3037109375
22.4424924,1.3427734375
22.4775049,1.396484375
22.4980256,1.42578125
22.5026189,1.4599609375
22.5363722,1.474609375
22.5569906,1.4892578125
22.5653329,1.4892578125
22.6000495,1.4892578125
22.6003891,1.4697265625
22.6223151,1.46484375
22.6585074,1.4404296875
22.6849594,1.4208984375
22.6851979,1.4013671875
22.7207936,1.3818359375
22.7256233,1.3671875
22.7643599,1.34765625
22.7645685,1.3330078125
22.8090542,1.3134765625
22.8093855,1.2939453125
22.8287589,1.26953125
22.8432058,1.2646484375
22.8769898,1.25
22.8972077,1.240234375
22.9053985,1.2255859375
22.9402448,1.2109375
22.9623854,1.201171875
22.9665066,1.181640625
23.0169828,1.171875
23.0173965,1.162109375
23.0239986,1.171875
23.0606188,1.162109375
23.064906,1.1572265625
23.1030379,1.1474609375
23.1047594,1.1376953125
23.1512149,1.123046875
23.1515539,1.11328125
23.1816545,1.103515625
23.1837307,1.1083984375
23.2271546,1.1181640625
23.2274864,1.1474609375
23.2472457,1.19140625
23.2797292,1.2548828125
23.286468,1.3037109375
23.3214875,1.3427734375
23.3504604,1.3818359375
23.3506729,1.40625
23.3644083,1.435546875
23.399178,1.4501953125
23.4031662,1.46484375
23.4367744,1.4599609375
23.4578579,1.455078125
23.4664566,1.435546875
23.5021009,1.416015625
23.5023578,1.3916015625
23.5363179,1.3818359375
23.5563621,1.3330078125
23.562955,1.3330078125
23.5971868,1.328125
23.6321496,1.3134765625
23.6323702,1.298828125
23.6471114,1.2841796875
23.6823472,1.26953125
23.6863362,1.2548828125
23.7183701,1.2353515625
23.7400528,1.220703125
23.7455211,1.2109375
23.7647439,1.1962890625
23.8017784,1.181640625
23.8057515,1.1669921875
23.8431181,1.1572265625
23.8475167,1.142578125
23.893174,1.1328125
23.8933733,1.11328125
23.9066464,1.1181640625
23.9414954,1.11328125
23.945627,1.0986328125
23.9803595,1.09375
23.9846847,1.083984375
24.0201476,1.0791015625
24.0468853,1.07421875
24.0472585,1.0888671875
24.0640952,1.123046875
24.1088184,1.181640625
24.1091291,1.240234375
24.1418339,1.3037109375
24.1480021,1.34765625
24.1669442,1.3916015625
24.2018836,1.416015625
24.2240659,1.4404296875
24.2294623,1.46484375
24.2433298,1.46484375
24.2800715,1.4794921875
24.2880266,1.4697265625
24.3069232,1.4599609375
24.3427511,1.435546875
24.344798,1.416015625
24.3800338,1.3916015625
24.4040887,1.376953125
24.4080709,1.3525390625
24.4447529,1.318359375
24.4645969,1.3037109375
24.4648103,1.298828125
24.4969667,1.2841796875
24.5174162,1.2744140625
24.5256055,1.259765625
24.5581567,1.25
24.5790009,1.2353515625
24.5881507,1.2158203125
24.622652,1.2060546875
24.6522975,1.19140625
24.6526694,1.181640625
24.6663883,1.171875
24.7033402,1.1669921875
24.7075572,1.15234375
24.7456335,1.1474609375
24.7483086,1.1376953125
24.7842227,1.1279296875
24.7846551,1.11328125
24.8172657,1.11328125
24.8375828,1.103515625
24.8455459,1.0986328125
24.8790724,1.0986328125
24.8988041,1.0986328125
24.9089024,1.1181640625
24.9542039,1.15234375
24.9545546,1.2109375
24.9643982,1.2646484375
24.9982377,1.3330078125
25.0318256,1.376953125
25.0321709,1.416015625
25.0453587,1.4453125
25.0802734,1.474609375
25.1097499,1.4892578125
25.1099598,1.50390625
25.1266788,1.50390625
25.1619918,1.50390625
25.1661269,1.4892578125
25.201637,1.474609375
25.2059969,1.4501953125
25.2421575,1.4208984375
25.2652071,1.4013671875
25.2707926,1.376953125
25.289256,1.357421875
25.3264896,1.337890625
25.3285214,1.3232421875
25.3625575,1.3037109375
25.3677213,1.2939453125
25.4044282,1.279296875
25.4087753,1.2646484375
25.4495664,1.25
25.4500722,1.2353515625
25.4684924,1.220703125
25.511543,1.2060546875
25.5118532,1.1962890625
25.5305226,1.1767578125
25.545366,1.1767578125
25.5802338,1.1669921875
25.6020766,1.162109375
25.6085926,1.15234375
25.6435899,1.142578125
25.649185,1.1279296875
25.7001178,1.1181640625
25.700315,1.1083984375
25.7068247,1.1083984375
25.72718,1.103515625
25.7631481,1.11328125
25.7673796,1.142578125
25.8019032,1.19140625
25.8230212,1.240234375
25.8292872,1.3037109375
25.8713411,1.34765625
25.8717015,1.376953125
25.8968446,1.4111328125
25.9109654,1.435546875
25.9274389,1.4599609375
25.9727294,1.46484375
25.9730888,1.4697265625
26.0026402,1.455078125
26.0107534,1.435546875
26.0260984,1.4111328125
26.0632232,1.3916015625
26.0839507,1.337890625
26.0858654,1.337890625
26.1200308,1.328125
26.1411719,1.318359375
26.150468,1.3134765625
26.1843335,1.2939453125
26.1883778,1.279296875
26.220986,1.259765625
26.2419924,1.2451171875
26.2458334,1.2255859375
26.2814175,1.2158203125
26.3036731,1.201171875
26.3100119,1.19140625
26.344846,1.1767578125
26.3487711,1.171875
26.3831191,1.1572265625
26.4071491,1.15234375
26.4073869,1.142578125
26.4527839,1.1376953125
26.4535038,1.1328125
26.4746588,1.1328125
26.4887968,1.1279296875
26.5236099,1.11328125
26.5297934,1.1083984375
26.5618323,1.09375
26.5822235,1.0888671875
26.5861919,1.09375
26.6179682,1.1376953125
26.6391651,1.1865234375
26.6473018,1.25
26.6806152,1.3037109375
26.7017265,1.3525390625
26.7107138,1.38671875
26.7459519,1.416015625
26.7463675,1.4306640625
26.7811697,1.455078125
26.8013698,1.4794921875
26.8076579,1.474609375
26.857137,1.474609375
26.8574065,1.46484375
26.8694817,1.4501953125
26.9014859,1.42578125
26.924315,1.4013671875
26.9308177,1.3818359375
26.9540331,1.3427734375
26.9677531,1.3134765625
27.0118555,1.318359375
27.0121182,1.3134765625
27.0319709,1.3037109375
27.0648037,1.2841796875
27.0687885,1.26953125
27.1019717,1.25
27.1237049,1.2451171875
27.1321634,1.2353515625
27.1491205,1.220703125
27.1857887,1.2109375
27.1906327,1.201171875
27.2098698,1.19140625
27.2476895,1.1767578125
27.247925,1.1669921875
27.2851588,1.15234375
27.3146315,1.1376953125
27.3148337,1.1279296875
27.3283534,1.123046875
27.3768568,1.1181640625
27.3771243,1.11328125
27.3986466,1.103515625
27.4085113,1.0986328125
27.4552027,1.0986328125
27.4556389,1.103515625
27.4857886,1.142578125
27.4875264,1.1865234375
27.5212972,1.2548828125
27.5425,1.3134765625
27.5488921,1.3671875
27.5972526,1.40625
27.597567,1.4404296875
27.6273442,1.4599609375
27.6316678,1.484375
27.6477778,1.484375
27.6872619,1.494140625
27.6876047,1.4892578125
27.7080017,1.4794921875
27.7428539,1.4599609375
27.7655197,1.4404296875
27.7695391,1.416015625
27.805522,1.396484375
27.8261351,1.376953125
27.8319358,1.357421875
27.8669183,1.337890625
27.8879126,1.318359375
27.8882157,1.3134765625
27.9230215,1.298828125
27.952538,1.2841796875
27.9527429,1.2646484375
27.9699131,1.25
28.0031356,1.23046875
28.0251026,1.2158203125
28.0299124,1.1962890625
28.067158,1.1865234375
28.0717375,1.181640625
28.0907543,1.171875
28.115056,1.1669921875
28.1337533,1.1572265625
28.1509518,1.1474609375
28.1926236,1.1376953125
28.192957,1.1279296875
28.2227607,1.1083984375
28.2292103,1.1083984375
28.2646764,1.103515625
28.2862403,1.0986328125
28.29133,1.0986328125
28.3130665,1.123046875
28.3611857,1.162109375
28.3614605,1.2158203125
28.3671539,1.2646484375
28.409081,1.3232421875
28.4093051,1.3671875
28.4291687,1.396484375
28.4648157,1.4208984375
28.4867431,1.435546875
28.4908281,1.4453125
28.5252161,1.4404296875
28.5491641,1.435546875
28.5493629,1.416015625
28.5831644,1.4111328125
28.6033838,1.3916015625
28.6095207,1.3720703125
28.6449169,1.34765625
28.6728751,1.337890625
28.6731497,1.318359375
28.7055016,1.3037109375
28.7254102,1.2890625
28.7329193,1.2744140625
28.765474,1.2548828125
28.7856788,1.2353515625
28.7893695,1.23046875
28.8216423,1.2158203125
28.843214,1.2109375
28.8517655,1.1962890625
28.8882578,1.1865234375
28.8912528,1.171875
28.9352114,1.1669921875
28.9355493,1.15234375
28.9568478,1.15234375
28.9702973,1.142578125
29.0136706,1.1376953125
29.0140022,1.1279296875
29.0353005,1.123046875
29.0542966,1.1083984375
29.092155,1.0986328125
29.0925067,1.09375
29.1389145,1.0888671875
29.1391486,1.103515625
29.1514227,1.1376953125
29.1881102,1.201171875
29.1922579,1.2646484375
29.2266081,1.3232421875
29.2490158,1.3720703125
29.2513606,1.416015625
29.292504,1.4501953125
29.2927729,1.484375
29.3268246,1.4990234375
29.3313108,1.513671875
29.3681316,1.5234375
29.3720804,1.513671875
29.4056931,1.50390625
29.4248094,1.4794921875
29.4349965,1.4599609375
29.4554802,1.435546875
29.4753467,1.3916015625
29.4894393,1.357421875
29.539211,1.357421875
29.5394518,1.3427734375
29.5599154,1.337890625
29.5718057,1.3134765625
29.6172768,1.298828125
29.6175654,1.279296875
29.6380925,1.26953125
29.6496259,1.25
29.6836687,1.25
29.7038719,1.240234375
29.7121674,1.220703125
29.7442914,1.2060546875
29.7677945,1.1865234375
29.7744736,1.171875
29.8098025,1.1572265625
29.8144232,1.15234375
29.8314458,1.1376953125
29.8668215,1.1376953125
29.8731624,1.1328125
29.9060756,1.1328125
29.9138936,1.1181640625
29.9494564,1.1181640625
29.9534614,1.1083984375
30.0046937,1.1083984375
30.0050312,1.1181640625
30.0351953,1.1376953125
30.0354032,1.1962890625
30.0525484,1.25
30.0865523,1.3134765625
30.1069951,1.357421875
30.1129247,1.4013671875
30.1468008,1.4306640625
30.1715876,1.4599609375
30.1722045,1.474609375
30.2187819,1.4990234375
30.2190246,1.50390625
30.2330805,1.50390625
30.2820579,1.4892578125
30.2824035,1.4697265625
30.3019482,1.4404296875
30.3143098,1.42578125
30.3485536,1.4013671875
30.3750781,1.376953125
30.3753195,1.3330078125
30.392165,1.3232421875
30.4265957,1.3134765625
30.449422,1.298828125
30.4534288,1.2890625
30.4889144,1.26953125
30.5114141,1.2548828125
30.5145298,1.2353515625
30.5585917,1.220703125
30.5588129,1.201171875
30.5788195,1.201171875
30.5917785,1.19140625
30.6260621,1.181640625
30.6465851,1.1767578125
30.6526522,1.171875
30.6874532,1.1572265625
30.7070077,1.1474609375
30.715943,1.1376953125
30.733891,1.1279296875
30.7766714,1.1279296875
30.7769224,1.1181640625
30.808952,1.11328125
30.8131779,1.1083984375
30.8477001,1.1083984375
30.8701551,1.1083984375
30.8741628,1.1328125
30.8922433,1.171875
30.9120388,1.240234375
30.9467632,1.2939453125
30.9667966,1.34765625
30.9745585,1.3916015625
31.0107416,1.416015625
31.0149508,1.4404296875
31.0498342,1.4501953125
31.0699337,1.4599609375
31.0724067,1.4599609375
31.1062128,1.46484375
31.1357769,1.455078125
31.1399935,1.4404296875
31.1540568,1.4111328125
31.1989432,1.38671875
31.199146,1.3720703125
31.2147139,1.3623046875
31.2508227,1.34765625
31.2716005,1.328125
31.2756959,1.3134765625
31.3092097,1.2841796875
31.3132741,1.2744140625
31.3543956,1.2548828125
31.3547283,1.25
31.3834643,1.23046875
31.3963905,1.2158203125
31.43133,1.201171875
31.4627913,1.1865234375
31.4630711,1.171875
31.473572,1.171875
31.5197192,1.1572265625
31.5205067,1.15234375
31.5478687,1.142578125
31.5554317,1.1328125
31.5949456,1.1181640625
31.5953057,1.1181640625
31.6186703,1.103515625
31.63273,1.0888671875
31.6697405,1.0888671875
31.6740472,1.083984375
31.6955466,1.083984375
31.7304469,1.09375
31.7345042,1.1376953125
31.7671862,1.19140625
31.787616,1.25
31.7928187,1.3037109375
31.8360159,1.3525390625
31.8363323,1.3916015625
31.8645802,1.42578125
31.875854,1.4404296875
31.8950564,1.455078125
31.9294178,1.46484375
31.9500105,1.455078125
31.9566774,1.4453125
31.9742612,1.4208984375
32.021392,1.40625
32.0218092,1.38671875
32.0326903,1.3720703125
32.0660615,1.3525390625
32.0856014,1.3427734375
32.0959908,1.328125
32.1172128,1.318359375
32.1594108,1.2939453125
32.1597146,1.279296875
32.1743817,1.2548828125
32.1954191,1.2451171875
32.240451,1.2255859375
32.2406698,1.220703125
32.2544658,1.2109375
32.2908272,1.19140625
32.3199296,1.1767578125
32.3201359,1.162109375
32.3366889,1.15234375
32.3551477,1.1328125
32.3964434,1.1328125
32.3968093,1.123046875
32.4300575,1.1181640625
32.452789,1.1083984375
32.4576955,1.0986328125
32.4932126,1.0888671875
32.4974624,1.083984375
32.5142737,1.07421875
32.5550057,1.083984375
32.5554913,1.1181640625
32.5919331,1.1572265625
32.5963621,1.220703125
32.6304099,1.279296875
32.6354265,1.337890625
32.6792942,1.3818359375
32.6795533,1.42578125
32.6948798,1.4501953125
32.7401459,1.4794921875
32.7403832,1.4990234375
32.7547733,1.5185546875
32.7890054,1.5185546875
32.8094705,1.513671875
32.8167427,1.494140625
32.8641549,1.474609375
32.8644839,1.4453125
32.8850091,1.40625
32.8992222,1.3720703125
32.9143696,1.3427734375
32.9485491,1.34765625
32.9690212,1.337890625
32.9756373,1.3330078125
33.0126428,1.318359375
33.0357116,1.30859375
33.0377418,1.2939453125
33.0720142,1.279296875
33.0940743,1.259765625
33.0942786,1.25
33.1325932,1.2353515625
33.1536722,1.2255859375
33.1588662,1.2109375
33.1765874,1.1962890625
33.2251269,1.181640625
33.2254715,1.162109375
33.2472944,1.1474609375
33.2543341,1.1376953125
33.3046499,1.142578125
33.3049977,1.1376953125
33.3245301,1.1328125
33.3375011,1.123046875
33.3807438,1.1181640625
33.3810731,1.103515625
33.4027698,1.103515625
33.4154241,1.1083984375
33.4494484,1.1474609375
33.46995,1.1962890625
33.4769853,1.259765625
33.5119942,1.30859375
33.5354869,1.3671875
33.5374288,1.4111328125
33.5698643,1.4404296875
33.5897487,1.4697265625
33.5936814,1.484375
33.6267745,1.50390625
33.646358,1.50390625
33.6544302,1.50390625
33.6899038,1.4892578125
33.7317811,1.4697265625
33.7322451,1.4453125
33.7372432,1.4208984375
33.773509,1.396484375
33.7935221,1.3818359375
33.7937249,1.357421875
33.840509,1.3427734375
33.8407152,1.3330078125
33.8609681,1.30859375
33.8789583,1.298828125
33.9160019,1.279296875
33.9162042,1.26953125
33.9606897,1.2451171875
33.9610238,1.2353515625
33.9833981,1.2109375
33.9968135,1.2060546875
34.0174789,1.19140625
34.0368578,1.1865234375
34.083998,1.171875
34.0843325,1.162109375
34.1062458,1.15234375
34.1191317,1.1376953125
34.1359885,1.1181640625
34.1770991,1.123046875
34.1773063,1.1181640625
34.1975392,1.11328125
34.2317142,1.103515625
34.2551189,1.09375
34.2596865,1.0888671875
34.294737,1.09375
34.2990193,1.123046875
34.3335105,1.1669921875
34.3338586,1.23046875
34.3706,1.2890625
34.3928992,1.3427734375
34.3971787,1.376953125
34.4332785,1.4111328125
34.4587357,1.435546875
34.4591427,1.455078125
34.4915674,1.4697265625
34.5144471,1.46484375
34.5147908,1.46484375
34.551618,1.4501953125
34.5714966,1.435546875
34.5776592,1.40625
34.6098011,1.38671875
34.6305789,1.357421875
34.6389306,1.3427734375
34.6742515,1.3232421875
34.6960564,1.30859375
34.696332,1.2890625
34.7376407,1.279296875
34.737998,1.259765625
34.7593453,1.240234375
34.7780012,1.220703125
34.8136825,1.2109375
34.8460009,1.1962890625
34.8462157,1.1767578125
34.8610058,1.162109375
34.8765063,1.142578125
34.9146831,1.1376953125
34.9149557,1.123046875
34.9539826,1.1181640625
34.9744695,1.1083984375
34.979414,1.103515625
35.0181385,1.09375
35.0510007,1.0888671875
35.0514015,1.0791015625
35.0557008,1.083984375
35.092468,1.0791015625
35.112669,1.07421875
35.1198721,1.0791015625
35.1555726,1.09375
35.1608358,1.1376953125
35.1939443,1.19140625
35.2143964,1.259765625
35.2173878,1.3134765625
35.2654643,1.3671875
35.2657249,1.4013671875
35.2797287,1.4306640625
35.3143493,1.455078125
35.3185982,1.4794921875
35.3546204,1.4892578125
35.3598645,1.494140625
35.3759622,1.4892578125
35.4113048,1.474609375
35.4190923,1.455078125
35.4388463,1.4404296875
35.4797568,1.416015625
35.4801062,1.3916015625
35.5283682,1.3720703125
35.5287045,1.3525390625
35.5403365,1.328125
35.5894426,1.3037109375
35.5900638,1.2939453125
35.609791,1.2744140625
35.6168972,1.26953125
35.652904,1.259765625
35.6845077,1.2451171875
35.6848552,1.23046875
35.7002128,1.220703125
35.7220661,1.201171875
35.7406044,1.19140625
35.7916072,1.181640625
35.7918715,1.1669921875
35.7980235,1.162109375
35.8381734,1.15234375
35.8692098,1.1474609375
35.8694219,1.1376953125
35.8792716,1.1279296875
35.9114972,1.11328125
35.9325483,1.103515625
35.9369918,1.09375
35.9696582,1.0986328125
35.9898735,1.0986328125
35.9998647,1.11328125
36.035246,1.1474609375
36.0394946,1.2060546875
36.0721944,1.259765625
36.0923145,1.3232421875
36.1018485,1.3720703125
36.1168139,1.40625
36.1502161,1.4453125
36.1703646,1.4697265625
36.1797886,1.4892578125
36.228594,1.4990234375
36.2288571,1.50390625
36.2418693,1.4990234375
36.2622755,1.4794921875
36.2814212,1.4599609375
36.3025434,1.4111328125
36.3184368,1.3720703125
36.3507244,1.3720703125
36.3731008,1.3671875
36.3786819,1.357421875
36.4118868,1.34765625
36.4456436,1.328125
36.4458385,1.3134765625
36.4638301,1.2939453125
36.4987194,1.279296875
36.4989219,1.259765625
36.532998,1.2451171875
36.5537573,1.23046875
36.5598062,1.220703125
36.5925019,1.201171875
36.6143624,1.19140625
36.6207371,1.1767578125
36.6585488,1.1669921875
36.6588807,1.1474609375
36.6901205,1.1474609375
36.7001459,1.1328125
36.7384942,1.1328125
36.7673967,1.123046875
36.7676326,1.11328125
36.783061,1.1083984375
36.8180226,1.0986328125
36.8222926,1.083984375
36.8394685,1.07421875
36.8907055,1.0791015625
36.8911269,1.0888671875
36.8994879,1.1279296875
36.9341299,1.1767578125
36.9537042,1.240234375
36.9626402,1.2939453125
36.9969372,1.3525390625
36.9971518,1.38671875
37.0315445,1.42578125
37.0528437,1.4599609375
37.0598557,1.474609375
37.1076861,1.484375
37.1080228,1.4794921875
37.1361937,1.474609375
37.1411583,1.455078125
37.1744015,1.435546875
37.1962022,1.40625
37.2043884,1.3818359375
37.2192107,1.357421875
37.2554611,1.3525390625
37.259919,1.337890625
37.3018464,1.328125
37.3202342,1.30859375
37.3204484,1.2890625
37.3566236,1.2646484375
37.3755522,1.2646484375
37.3843898,1.2548828125
37.3990135,1.2353515625
37.4368485,1.23046875
37.441313,1.2158203125
37.4912974,1.201171875
37.4916734,1.1865234375
37.5104349,1.181640625
37.5226096,1.171875
37.5554288,1.1572265625
37.5764854,1.142578125
37.5784501,1.142578125
37.6115724,1.1328125
37.6338721,1.1279296875
37.64136,1.1181640625
37.6770804,1.1083984375
37.6812384,1.103515625
37.7148981,1.0888671875
37.7396883,1.0791015625
37.7400446,1.0791015625
37.7748441,1.103515625
37.7794517,1.1474609375
37.8189402,1.2109375
37.8357295,1.2646484375
37.8411935,1.3232421875
37.875311,1.3671875
37.8973898,1.40625
37.8977204,1.42578125
37.9374351,1.455078125
37.9418253,1.4697265625
37.9759936,1.4794921875
37.9799214,1.474609375
38.0152459,1.4697265625
38.0352741,1.455078125
38.0415903,1.42578125
38.0758255,1.4013671875
38.0938294,1.376953125
38.1029509,1.357421875
38.1204085,1.337890625
38.1623796,1.328125
38.1626177,1.30859375
38.2105272,1.2890625
38.2108254,1.26953125
38.222622,1.25
38.2574629,1.2353515625
38.2779139,1.220703125
38.280622,1.201171875
38.3148465,1.1962890625
38.3474873,1.1865234375
38.3476875,1.171875
38.362486,1.1572265625
38.384465,1.142578125
38.425357,1.142578125
38.4255604,1.1328125
38.460089,1.1279296875
38.4605328,1.11328125
38.4936821,1.11328125
38.5138167,1.0986328125
38.5227983,1.0986328125
38.5641323,1.083984375
38.5644706,1.083984375
38.5866143,1.0693359375
38.6059935,1.07421875
38.6212673,1.083984375
38.6572769,1.1328125
38.6624869,1.201171875
38.7028464,1.2646484375
38.7030374,1.3330078125
38.7233518,1.3818359375
38.758487,1.42578125
38.7895905,1.4599609375
38.7899964,1.4892578125
38.804988,1.50390625
38.8242401,1.494140625
38.8578096,1.4794921875
38.8622399,1.494140625
38.8986947,1.4892578125
38.9028015,1.4794921875
38.937003,1.455078125
38.9610263,1.435546875
38.9632568,1.416015625
38.9990214,1.3916015625
39.0216101,1.3720703125
39.0218973,1.34765625
39.0550214,1.3330078125
39.0851781,1.318359375
39.0854938,1.3037109375
39.1180756,1.279296875
39.1246385,1.259765625
39.1617824,1.240234375
39.1666079,1.23046875
39.1823167,1.2109375
39.2249841,1.2060546875
39.22539,1.19140625
39.2598139,1.181640625
39.2641769,1.1669921875
39.301382,1.1572265625
39.3032638,1.1474609375
39.3377207,1.1279296875
39.3641559,1.1181640625
39.3644777,1.0986328125
39.3817215,1.0986328125
39.4246924,1.09375
39.4250261,1.103515625
39.4444894,1.0986328125
39.4651568,1.09375
39.5008937,1.0888671875
39.5047689,1.0986328125
39.5217033,1.1181640625
39.5579907,1.1767578125
39.5605929,1.240234375
39.6095437,1.3037109375
39.6098783,1.3671875
39.6298398,1.40625
39.6446964,1.4404296875
39.6879121,1.46484375
39.6881108,1.4892578125
39.733067,1.4990234375
39.733604,1.4990234375
39.7426072,1.4892578125
39.7813909,1.4794921875
39.8100927,1.4599609375
39.8102862,1.4404296875
39.826063,1.416015625
39.8715951,1.396484375
39.8717983,1.3720703125
39.8845823,1.3525390625
39.9199314,1.3330078125
39.9203385,1.3330078125
39.9702456,1.3232421875
39.9705788,1.30859375
39.9908453,1.2939453125
40.0067146,1.279296875
40.048118,1.2646484375
40.0483184,1.2451171875
40.0817307,1.2353515625
40.0821067,1.2158203125
40.1142061,1.2060546875
40.1344132,1.19140625
40.1439839,1.1767578125
40.188321,1.162109375
40.1885295,1.1572265625
40.2212308,1.142578125
40.2266351,1.1328125
40.2607175,1.1279296875
40.2626568,1.11328125
40.2956855,1.1083984375
40.3176411,1.0986328125
40.3235434,1.0986328125
40.3594899,1.0888671875
40.3795584,1.083984375
40.3863068,1.083984375
40.4212218,1.1083984375
40.4216411,1.1474609375
40.4542139,1.220703125
40.4739473,1.2744140625
40.4845128,1.3330078125
40.5315779,1.3671875
40.531876,1.4013671875
40.5465628,1.4208984375
40.5816859,1.435546875
40.5869299,1.4453125
40.6252126,1.4404296875
40.6254639,1.435546875
40.6715349,1.4208984375
40.6721856,1.40625
40.6839435,1.38671875
40.7192742,1.3623046875
40.7396399,1.3427734375
40.7459462,1.3232421875
40.780954,1.30859375
40.8095968,1.2939453125
40.8098933,1.279296875
40.8234962,1.2744140625
40.8593016,1.259765625
40.8877966,1.25
40.8880089,1.2353515625
40.9051645,1.220703125
40.9494506,1.201171875
40.9498563,1.181640625
40.9794247,1.1767578125
40.9820037,1.162109375
41.0169037,1.1669921875
41.0414214,1.162109375
41.0432678,1.162109375
41.0782767,1.1474609375
41.0978646,1.142578125
41.1086645,1.1279296875
41.1435068,1.123046875
41.1438546,1.1083984375
41.1778295,1.1083984375
41.1992925,1.0986328125
41.2046614,1.103515625
41.2438818,1.09375
41.245793,1.0888671875
41.2779999,1.103515625
41.2983947,1.1376953125
41.3066856,1.201171875
41.3408019,1.2646484375
41.3491784,1.3330078125
41.3644784,1.3525390625
41.3992559,1.40625
41.4193551,1.4453125
41.4253877,1.474609375
41.4581367,1.494140625
41.4791473,1.5185546875
41.4874013,1.5234375
41.5213143,1.5234375
41.5397866,1.513671875
41.5448144,1.484375
41.5793084,1.474609375
41.6016851,1.4501953125
41.6055918,1.435546875
41.638967,1.4111328125
41.6591282,1.3916015625
41.668126,1.3720703125
41.7115241,1.3525390625
41.7120434,1.328125
41.7259885,1.3232421875
41.7745407,1.3037109375
41.7748315,1.2890625
41.7870455,1.26953125
41.8228847,1.2548828125
41.8269555,1.23046875
41.8612513,1.220703125
41.8804825,1.2060546875
41.8842592,1.1865234375
41.9216645,1.181640625
41.9435094,1.171875
41.9453539,1.162109375
41.9797553,1.15234375
42.0019385,1.1474609375
42.0083497,1.1328125
42.0425635,1.1279296875
42.0429062,1.11328125
42.077403,1.11328125
42.0973078,1.1083984375
42.1052663,1.1083984375
42.1402396,1.0986328125
42.1605,1.11328125
42.1672284,1.1572265625
42.1991775,1.2060546875
42.2204401,1.26953125
42.228832,1.318359375
42.2503914,1.34765625
42.2659525,1.3671875
42.3023767,1.416015625
42.3264155,1.4453125
42.3268167,1.4697265625
42.3588882,1.484375
42.3810588,1.4892578125
42.388691,1.474609375
42.4091153,1.46484375
42.4258713,1.4453125
42.4454427,1.4306640625
42.4800589,1.4111328125
42.5003006,1.4013671875
42.5068185,1.38671875
42.552591,1.3671875
42.5529046,1.34765625
42.582575,1.328125
42.5888641,1.30859375
42.6049599,1.2841796875
42.6404068,1.279296875
42.6749069,1.2646484375
42.6751065,1.2548828125
42.6886744,1.23046875
42.7084926,1.2158203125
42.7485896,1.201171875
42.7792517,1.19140625
42.7794973,1.171875
42.7872163,1.162109375
42.8055479,1.1572265625
42.8412334,1.142578125
42.8460827,1.1376953125
42.8803596,1.1279296875
42.9028502,1.1181640625
42.9102621,1.1083984375
42.9458507,1.0986328125
42.946211,1.0791015625
42.9933919,1.07421875
42.9938196,1.064453125
43.0144632,1.0791015625
43.0275577,1.103515625
43.0615864,1.15234375
43.0822494,1.2060546875
43.0896358,1.26953125
43.1325562,1.3134765625
43.1327658,1.357421875
43.1509203,1.38671875
43.1661769,1.4013671875
43.2118111,1.42578125
43.2121429,1.435546875
43.2430638,1.4404296875
43.2461817,1.435546875
43.288615,1.4208984375
43.2889544,1.4013671875
43.3182939,1.3818359375
43.32612,1.357421875
43.3603317,1.3427734375
43.3805817,1.328125
43.3868287,1.318359375
43.4208186,1.3037109375
43.4422009,1.2890625
43.4493126,1.279296875
43.4862666,1.259765625
43.4909892,1.2451171875
43.5060268,1.2353515625
43.5460104,1.2353515625
43.5608598,1.2255859375
43.5693671,1.220703125
43.6098172,1.2060546875
43.6101697,1.1962890625
43.6446221,1.1767578125
43.6715187,1.171875
43.6717659,1.15234375
43.6864903,1.15234375
43.7225337,1.142578125
43.7496658,1.1376953125
43.7502312,1.1279296875
43.7741658,1.1279296875
43.7906095,1.1181640625
43.8087479,1.1083984375
43.8429273,1.103515625
43.8666031,1.0986328125
43.8668487,1.1083984375
43.9002291,1.142578125
43.9222885,1.201171875
43.9288564,1.259765625
43.9816821,1.3232421875
43.9820701,1.3671875
44.0008092,1.4111328125
44.0108023,1.4453125
44.060946,1.474609375
44.0611561,1.4892578125
44.0676194,1.5087890625
44.0875437,1.5185546875
44.1265368,1.513671875
44.1268863,1.5087890625
44.1635772,1.4892578125
44.1840455,1.4697265625
44.1898952,1.4404296875
44.2239639,1.4111328125
44.2471756,1.38671875
44.2475329,1.376953125
44.2800457,1.357421875
44.302009,1.3427734375
44.3103805,1.3232421875
44.3459185,1.30859375
44.3499096,1.2841796875
44.3823302,1.26953125
44.4169188,1.2451171875
44.4171474,1.2451171875
44.4271614,1.2353515625
44.4612155,1.2158203125
44.4820297,1.201171875
44.4888345,1.1865234375
44.5238814,1.171875
44.5460984,1.162109375
44.5516468,1.15234375
44.5692279,1.1376953125
44.5875639,1.1328125
44.6219661,1.123046875
44.6421816,1.1181640625
44.6489364,1.1083984375
44.682615,1.103515625
44.7027221,1.0986328125
44.7107162,1.0888671875
44.743744,1.0888671875
44.7642231,1.0986328125
44.773406,1.11328125
44.7893637,1.1474609375
44.8105187,1.2353515625
44.8451543,1.2939453125
44.8490867,1.34765625
44.8817683,1.38671875
44.9015769,1.416015625
44.91232,1.435546875
44.9472196,1.455078125
44.9475376,1.4599609375
44.9802991,1.4794921875
45.000794,1.474609375
45.0089799,1.46484375
45.0446721,1.4404296875
45.0675722,1.42578125
45.0725272,1.4013671875
45.0931118,1.3818359375
45.1289438,1.3623046875
45.1292194,1.3427734375
45.1675426,1.337890625
45.1973543,1.3232421875
45.1975992,1.30859375
45.2092825,1.2939453125
45.2407708,1.2744140625
45.2617118,1.2548828125
45.2718178,1.2353515625
45.2883491,1.2158203125
45.3248414,1.2109375
45.3290442,1.1962890625
45.3684798,1.1865234375
45.3990326,1.181640625
45.3992953,1.162109375
45.4122252,1.1572265625
45.4518587,1.1474609375
45.4521737,1.142578125
45.470587,1.123046875
45.509564,1.1279296875
45.5136749,1.1181640625
45.5303131,1.11328125
45.5735833,1.103515625
45.5737867,1.1083984375
45.5910722,1.1083984375
45.6282996,1.123046875
45.6329469,1.1572265625
45.6816299,1.19140625
45.6818332,1.25
45.6909576,1.328125
45.726546,1.3818359375
45.7292294,1.4208984375
45.7637727,1.455078125
45.7873302,1.474609375
45.7916066,1.484375
45.825914,1.484375
45.849726,1.4794921875
45.8499588,1.46484375
45.8944184,1.4501953125
45.8947514,1.4306640625
45.9141547,1.4111328125
45.9475983,1.38671875
45.9518531,1.3671875
45.9874593,1.34765625
46.0101375,1.3232421875
46.0157133,1.3134765625
46.031196,1.2890625
46.0509594,1.279296875
46.0713996,1.2646484375
46.1127474,1.2548828125
46.1169172,1.2353515625
46.1318523,1.220703125
46.1770385,1.201171875
46.1772412,1.1865234375
46.1900456,1.1669921875
46.2397389,1.1669921875
46.2399523,1.15234375
46.2505508,1.1474609375
46.3007087,1.1376953125
46.300906,1.1279296875
46.330479,1.1181640625
46.3323413,1.1181640625
46.3786999,1.1083984375
46.3791151,1.0986328125
46.4100645,1.103515625
46.410324,1.103515625
46.4570656,1.1083984375
46.4573062,1.1083984375
46.4727805,1.1328125
46.5084438,1.1669921875
46.5123524,1.220703125
46.5471685,1.2744140625
46.5686967,1.3330078125
46.5690265,1.3720703125
46.6029625,1.42578125
46.6249191,1.4501953125
46.6323934,1.474609375
46.6720471,1.494140625
46.6722586,1.494140625
46.717797,1.494140625
46.7181421,1.4794921875
46.7349929,1.46484375
46.7552736,1.435546875
46.770849,1.4208984375
46.8097717,1.40625
46.8103714,1.38671875
46.8461508,1.3671875
46.8663138,1.34765625
46.8733132,1.328125
46.9072618,1.30859375
46.9298395,1.2939453125
46.930129,1.2841796875
46.9784409,1.2744140625
46.9787869,1.2646484375
47.0080746,1.2548828125
47.0121249,1.23046875
47.0468897,1.220703125
47.0671612,1.201171875
47.0737631,1.1865234375
47.0895883,1.171875
47.1261865,1.171875
47.1458887,1.162109375
47.1498587,1.1572265625
47.1872167,1.1474609375
47.2074548,1.142578125
47.2113732,1.1328125
47.2451368,1.123046875
47.2698762,1.1083984375
47.2702153,1.1083984375
47.3192349,1.1083984375
47.3195548,1.0693359375
47.3504869,1.09375
47.3508917,1.1328125
47.384093,1.19140625
47.4052026,1.25
47.4158973,1.30859375
47.4345885,1.3525390625
47.4736444,1.396484375
47.473971,1.42578125
47.4938236,1.4599609375
47.5122738,1.4794921875
47.5328189,1.494140625
47.5529966,1.494140625
47.6026567,1.484375
47.6030544,1.46484375
47.6141959,1.455078125
47.663712,1.435546875
47.6640282,1.40625
47.6835774,1.396484375
47.6915348,1.376953125
47.7398003,1.3671875
47.7400049,1.34765625
47.7549433,1.3330078125
47.7890613,1.3134765625
47.7931482,1.2890625
47.8271927,1.26953125
47.831474,1.2548828125
47.8672463,1.240234375
47.8862165,1.23046875
47.8924147,1.2109375
47.9241184,1.1962890625
47.9448662,1.1865234375
47.9533166,1.1669921875
47.986978,1.1572265625
48.0229944,1.1376953125
48.0231935,1.1376953125
48.0317803,1.1328125
48.0670448,1.1279296875
48.0889585,1.1181640625
48.0945975,1.11328125
48.1309819,1.0986328125
48.1354641,1.0986328125
48.1547038,1.0791015625
48.1748701,1.0498046875
48.1928159,1.025390625
48.2132007,1.0595703125
48.2534737,1.103515625
48.2538094,1.1767578125
48.2726993,1.25
48.30784,1.30859375
48.3278564,1.3623046875
48.3352449,1.396484375
48.3784031,1.42578125
48.378736,1.4453125
48.408078,1.4697265625
48.4119962,1.474609375
48.4564242,1.474609375
48.4566967,1.46484375
48.4822647,1.4453125
48.4942208,1.4208984375
48.5414177,1.4013671875
48.5417585,1.376953125
48.5752096,1.3623046875
48.5756358,1.3525390625
48.5931089,1.328125
48.6371883,1.30859375
48.6375242,1.2939453125
48.6661481,1.2841796875
48.6763546,1.259765625
48.7148281,1.2451171875
48.7151872,1.2255859375
48.749688,1.220703125
48.7515693,1.201171875
48.7895948,1.19140625
48.8058917,1.1767578125
48.8127507,1.1669921875
48.8482007,1.15234375
48.8683349,1.1376953125
48.8702681,1.123046875
48.9173779,1.123046875
48.9177158,1.1181640625
48.9390527,1.103515625
48.955658,1.103515625
48.9751459,1.09375
49.011969,1.083984375
49.0163748,1.0791015625
49.058103,1.07421875
49.0584135,1.07421875
49.0918076,1.0888671875
49.0921171,1.123046875
49.1258651,1.19140625
49.1532266,1.25
49.1534305,1.318359375
49.198016,1.3671875
49.1983596,1.4111328125
49.231464,1.4453125
49.2366832,1.4599609375
49.2703618,1.474609375
49.2923819,1.474609375
49.2926158,1.4794921875
49.3377832,1.474609375
49.3381961,1.4599609375
49.3571857,1.4404296875
49.3905877,1.4208984375
49.3955198,1.396484375
49.4310402,1.3720703125
49.4510148,1.34765625
49.4527762,1.337890625
49.4869591,1.3232421875
49.5058782,1.30859375
49.5144587,1.2939453125
49.5490302,1.2841796875
49.5711417,1.2646484375
49.5753359,1.2451171875
49.6107603,1.23046875
49.6328892,1.2158203125
49.6330942,1.2109375
49.679515,1.201171875
49.6797893,1.1962890625
49.70927,1.19140625
49.7156625,1.1865234375
49.7498699,1.171875
49.7700149,1.1669921875
49.7724891,1.15234375
49.8062543,1.15234375
49.8259959,1.142578125
49.8342522,1.1376953125
49.8696116,1.1328125
49.8918176,1.1181640625
49.8943866,1.11328125
49.9305008,1.1083984375
49.9364191,1.1279296875
49.969458,1.162109375
50.0077764,1.220703125
50.0081767,1.279296875
50.0132472,1.3427734375
50.0473168,1.38671875
50.0691989,1.4306640625
50.076643,1.455078125
50.1142382,1.484375
50.116929,1.494140625
50.1547489,1.50390625
50.1549768,1.4990234375
50.1927691,1.5087890625
50.1954952,1.4990234375
50.2386239,1.474609375
50.2389337,1.4453125
50.2711319,1.4208984375
50.275693,1.396484375
50.3166088,1.3720703125
50.3169448,1.3525390625
50.3390488,1.328125
50.3554205,1.318359375
50.3737749,1.3037109375
50.4079797,1.2841796875
50.4408667,1.26953125
50.4411805,1.2548828125
50.4583056,1.2353515625
50.4937894,1.220703125
50.498198,1.2060546875
50.513923,1.1865234375
50.5640124,1.181640625
50.5643503,1.1669921875
50.5942572,1.162109375
50.5961141,1.142578125
50.6296677,1.1376953125
50.6495073,1.1279296875
50.6574993,1.123046875
50.6897755,1.11328125
50.6989211,1.123046875
50.7135766,1.083984375
50.7479052,1.0986328125
50.7700277,1.0986328125
50.7775649,1.103515625
50.8123874,1.103515625
50.8164206,1.1328125
50.8578369,1.1767578125
50.8581565,1.23046875
50.8799418,1.2939453125
50.8951016,1.3427734375
50.9276833,1.3916015625
50.9519353,1.4306640625
50.9560322,1.4599609375
50.9925964,1.4794921875
51.0142421,1.4892578125
51.0161845,1.4892578125
51.0511882,1.484375
51.0742173,1.4697265625
51.0745854,1.4599609375
51.1216757,1.4404296875
51.121913,1.416015625
51.1424395,1.396484375
51.1554925,1.376953125
51.1885792,1.3525390625
51.2079604,1.3330078125
51.2191442,1.318359375
51.2361093,1.2939453125
51.2782453,1.2841796875
51.2785202,1.2646484375
51.2974097,1.2548828125
51.3396929,1.2353515625
51.3398929,1.220703125
51.3751355,1.201171875
51.4014643,1.181640625
51.4017116,1.1669921875
51.4141499,1.1669921875
51.4461512,1.1474609375
51.4687209,1.142578125
51.4773488,1.1328125
51.5270306,1.1181640625
51.527346,1.11328125
51.5398575,1.103515625
51.5828703,1.09375
51.5832582,1.0791015625
51.6155871,1.0498046875
51.6157893,1.044921875
51.6490831,1.0546875
51.6691046,1.0595703125
51.6792965,1.083984375
51.6984835,1.1181640625
51.7389483,1.1865234375
51.7391497,1.25
51.7602602,1.3134765625
51.7794158,1.3720703125
51.7963645,1.4013671875
51.8301034,1.435546875
51.8510855,1.4599609375
51.8573536,1.4794921875
51.8896935,1.484375
51.9105116,1.4892578125
51.9190341,1.4794921875
51.9548715,1.46484375
51.9859497,1.4404296875
51.9863515,1.42578125
51.9978282,1.40625
52.0181009,1.38671875
52.0620503,1.376953125
52.0622526,1.3623046875
52.0786405,1.3427734375
52.1224691,1.3232421875
52.1228003,1.30859375
52.1451315,1.2841796875
52.1576944,1.26953125
52.200613,1.2548828125
52.2008602,1.240234375
52.233598,1.220703125
52.2375822,1.2109375
52.2710555,1.1962890625
52.2935177,1.1865234375
52.2937862,1.1767578125
52.3294332,1.171875
52.359045,1.1669921875
52.3592422,1.1669921875
52.4042085,1.1572265625
52.4044126,1.1474609375
52.4196806,1.142578125
52.4546654,1.1279296875
52.4589944,1.11328125
52.4957009,1.0986328125
52.5009582,1.09375
52.5175656,1.083984375
52.5581345,1.0986328125
52.5584228,1.1181640625
52.5889892,1.1669921875
52.5995167,1.220703125
52.6327833,1.2890625
52.6562814,1.337890625
52.6616007,1.38671875
52.67777,1.416015625
52.7138662,1.455078125
52.7181978,1.4697265625
52.7530847,1.494140625
52.7728608,1.50390625
52.7793568,1.4990234375
52.8011362,1.4892578125
52.8437609,1.474609375
52.8484549,1.4501953125
52.8568275,1.42578125
52.8908478,1.40625
52.9118893,1.38671875
52.916736,1.3671875
52.950597,1.3525390625
52.9729611,1.3330078125
52.980045,1.3134765625
53.0296972,1.2939453125
53.0298924,1.2744140625
53.0497822,1.2646484375
53.0559715,1.259765625
53.0923501,1.240234375
53.1251404,1.2255859375
53.1255361,1.2109375
53.1392388,1.201171875
53.187583,1.1865234375
53.1878124,1.1767578125
53.2075497,1.162109375
53.2172809,1.162109375
53.2645229,1.15234375
53.2648377,1.1474609375
53.2845919,1.1376953125
53.3008825,1.1328125
53.3377277,1.1181640625
53.3380906,1.1083984375
53.3881878,1.09375
53.3883931,1.0888671875
53.4076408,1.083984375
53.4180762,1.083984375
53.4521618,1.103515625
53.47241,1.142578125
53.4793174,1.2060546875
53.5001803,1.2646484375
53.5377454,1.328125
53.541995,1.3671875
53.5875235,1.40625
53.5877431,1.4306640625
53.5977948,1.455078125
53.6319941,1.46484375
53.6642925,1.474609375
53.6645419,1.4697265625
53.6812395,1.4599609375
53.7215633,1.4453125
53.7219243,1.4208984375
53.7669706,1.4013671875
53.7672656,1.376953125
53.7780121,1.376953125
53.8280994,1.3671875
53.8285188,1.3525390625
53.8593555,1.3330078125
53.8596767,1.318359375
53.9033216,1.2890625
53.903823,1.2744140625
53.9249316,1.2548828125
53.9377032,1.25
53.9794683,1.2353515625
53.9798014,1.220703125
54.0019976,1.2060546875
54.0203117,1.1962890625
54.0560155,1.1865234375
54.0612748,1.1669921875
54.0953727,1.162109375
54.1172171,1.1474609375
54.1236433,1.1181640625
54.1392758,1.0888671875
54.1741323,1.0986328125
54.1787557,1.09375
54.2128143,1.0888671875
54.2428544,1.07421875
54.2431744,1.0693359375
54.2875366,1.0595703125
54.287787,1.064453125
54.2991061,1.07421875
54.3347202,1.1279296875
54.3646346,1.1962890625
54.3648386,1.2548828125
54.3793235,1.318359375
54.4156589,1.3623046875
54.4377011,1.40625
54.4427196,1.435546875
54.4715689,1.455078125
54.490828,1.4697265625
54.4997082,1.484375
54.5322922,1.4794921875
54.5523577,1.474609375
54.5622343,1.455078125
54.5989029,1.435546875
54.6036081,1.4111328125
54.6216154,1.3916015625
54.6451244,1.3720703125
54.6598494,1.3671875
54.7050596,1.3525390625
54.7053738,1.3330078125
54.7210776,1.318359375
54.7645534,1.298828125
54.7649305,1.279296875
54.7824196,1.2646484375
54.8165986,1.2548828125
54.8192099,1.240234375
54.8548432,1.23046875
54.85909,1.220703125
54.8935531,1.2060546875
54.915573,1.19140625
54.9224856,1.1865234375
54.9421341,1.171875
54.9816353,1.162109375
54.9819667,1.1572265625
55.0024245,1.142578125
55.0447152,1.1376953125
55.0450449,1.123046875
55.0650366,1.123046875
55.0796094,1.11328125
55.1219854,1.1083984375
55.1221977,1.0986328125
55.1546758,1.09375
55.17456,1.0888671875
55.1814744,1.103515625
55.2163201,1.1376953125
55.2205464,1.2060546875
55.2548699,1.26953125
55.2758096,1.3330078125
55.279909,1.376953125
55.3153882,1.42578125
55.3379493,1.455078125
55.3441634,1.474609375
55.3788772,1.4892578125
55.3791022,1.494140625
55.413298,1.494140625
55.4476014,1.484375
55.4477985,1.4697265625
55.4638663,1.4453125
55.4847884,1.4208984375
55.5036413,1.3916015625
55.5246875,1.3720703125
55.5395687,1.3525390625
55.5763972,1.3427734375
55.5806588,1.328125
55.6179079,1.3134765625
55.6393054,1.30859375
55.6437583,1.2841796875
55.6808632,1.26953125
55.6828412,1.2451171875
55.7153117,1.23046875
55.737135,1.2158203125
55.7394913,1.2158203125
55.7804447,1.201171875
55.8092847,1.1962890625
55.8096738,1.1865234375
55.821941,1.181640625
55.8560183,1.171875
55.8761576,1.162109375
55.8823749,1.1474609375
55.9181472,1.1376953125
55.9384348,1.1279296875
55.9401157,1.1279296875
55.9741986,1.1279296875
55.9942266,1.1181640625
56.0022817,1.1083984375
56.0362504,1.0986328125
56.0685022,1.09375
56.068924,1.0888671875
56.0855866,1.103515625
56.1006179,1.1376953125
56.1349635,1.201171875
56.155394,1.259765625
56.1627716,1.3232421875
56.210174,1.3720703125
56.2105134,1.416015625
56.2242103,1.4404296875
56.2717033,1.46484375
56.2719108,1.4794921875
56.2803628,1.4794921875
56.3207277,1.484375
56.3506058,1.474609375
56.3509548,1.4599609375
56.3630223,1.435546875
56.3951643,1.40625
56.4163244,1.3818359375
56.4227957,1.3623046875
56.4391826,1.337890625
56.4756391,1.3330078125
56.4953759,1.3134765625
56.5030611,1.3037109375
56.5367919,1.2841796875
56.5696124,1.2744140625
56.5699253,1.2548828125
56.5855147,1.2451171875
56.6291311,1.23046875
56.6293331,1.201171875
56.6451526,1.19140625
56.6618546,1.142578125
56.6815304,1.1474609375
56.7151855,1.142578125
56.7422545,1.1376953125
56.7426001,1.1328125
56.7804437,1.1279296875
56.7856547,1.1181640625
56.8310257,1.1083984375
56.8313596,1.0986328125
56.8522534,1.103515625
56.8634535,1.0986328125
56.9064516,1.0986328125
56.9066506,1.0986328125
56.9533284,1.09375
56.9540853,1.1083984375
56.9651418,1.142578125
57.0014597,1.201171875
57.001809,1.2548828125
57.0457189,1.318359375
57.0460348,1.3671875
57.0649208,1.416015625
57.0996245,1.4404296875
57.1046119,1.46484375
57.140665,1.4794921875
57.1644492,1.4892578125
57.1647623,1.4892578125
57.182528,1.484375
57.2275694,1.4697265625
57.2279023,1.4501953125
57.2476191,1.42578125
57.2801896,1.4013671875
57.2847908,1.3818359375
57.3179806,1.3623046875
57.3406287,1.3427734375
57.3409098,1.3232421875
57.3755332,1.318359375
57.3984095,1.3037109375
57.4024772,1.2890625
57.4363597,1.2744140625
57.4574493,1.259765625
57.4639727,1.2451171875
57.4969296,1.23046875
57.5192454,1.2109375
57.5272918,1.171875
57.5694087,1.142578125
57.5696409,1.142578125
57.5826858,1.1474609375
57.6311237,1.142578125
57.6312674,1.142578125
57.6622085,1.1328125
57.6651999,1.1328125
57.7091012,1.1279296875
57.7093763,1.123046875
57.7401905,1.1083984375
57.74551,1.11328125
57.7613098,1.103515625
57.7995013,1.103515625
57.8195005,1.103515625
57.8260058,1.1376953125
57.8614787,1.1767578125
57.8654165,1.2451171875
57.9090711,1.30859375
57.9094047,1.357421875
57.9293561,1.4111328125
57.9444658,1.4501953125
57.9639465,1.4794921875
57.9834617,1.4990234375
58.0156517,1.50390625
58.0497773,1.5087890625
58.0500507,1.4990234375
58.0641443,1.484375
58.0986374,1.4697265625
58.102538,1.4453125
58.1348416,1.42578125
58.1556107,1.4013671875
58.163603,1.3818359375
58.1960789,1.3720703125
58.2162068,1.34765625
58.2260558,1.328125
58.2433753,1.30859375
58.2840585,1.298828125
58.2843906,1.2841796875
58.3132621,1.2744140625
58.324945,1.2548828125
58.3571063,1.2451171875
58.3900165,1.23046875
58.3903323,1.2158203125
58.405467,1.201171875
58.4375969,1.19140625
58.4592102,1.1767578125
58.4632106,1.171875
58.4969526,1.162109375
58.5189457,1.1572265625
58.525245,1.1474609375
58.5610794,1.1328125
58.5880552,1.1279296875
58.5883482,1.1181640625
58.6218084,1.1083984375
58.6503318,1.0986328125
58.6507533,1.0986328125
58.6641405,1.0986328125
58.6996278,1.1083984375
58.7055917,1.1328125
58.7384439,1.1865234375
58.7592335,1.2451171875
58.7654072,1.3037109375
58.7990028,1.3525390625
58.818919,1.396484375
58.823958,1.435546875
58.8576727,1.455078125
58.8784575,1.4697265625
58.8857068,1.4794921875
58.9258445,1.484375
58.9261098,1.474609375
58.9478785,1.4599609375
58.964275,1.435546875
58.9849886,1.4208984375
59.0212987,1.4013671875
59.0255205,1.3818359375
59.0613157,1.357421875
59.0812003,1.337890625
59.0865406,1.318359375
59.1067597,1.298828125
59.1236664,1.279296875
59.1584135,1.2646484375
59.1628284,1.2548828125
59.196377,1.240234375
59.2183355,1.2255859375
59.2275461,1.2060546875
59.2687828,1.1962890625
59.2691894,1.181640625
59.302089,1.1767578125
59.3236954,1.162109375
59.3278174,1.15234375
59.345242,1.1376953125
59.3787422,1.1328125
59.4012713,1.1181640625
59.4070071,1.11328125
59.445804,1.0986328125
59.4503073,1.09375
59.4681394,1.0888671875
59.5106281,1.083984375
59.5110285,1.0791015625
59.5240159,1.0693359375
59.5580206,1.0791015625
59.577196,1.0986328125
59.5857577,1.15234375
59.6342911,1.2060546875
59.6346347,1.26953125
59.6552616,1.3232421875
59.6680794,1.376953125
59.6867944,1.4013671875
59.705741,1.4404296875
59.7417561,1.4599609375
59.7464069,1.4794921875
59.7670881,1.484375
59.8038221,1.484375
59.8058031,1.4697265625
59.8394718,1.4501953125
59.8680592,1.4208984375
59.8683415,1.4013671875
59.8849022,1.3818359375
59.9197802,1.3720703125
59.9402958,1.3623046875
59.9455975,1.34765625
59.9918506,1.337890625
59.9924455,1.3232421875
60.0133268,1.30859375
60.0282247,1.2890625
60.0501597,1.25
60.0650578,1.2158203125
60.1003047,1.220703125
60.1064998,1.220703125
60.1281524,1.2109375
60.1707392,1.2060546875
60.1710276,1.1962890625
60.2172152,1.19140625
60.2174639,1.1767578125
60.2310326,1.171875
60.2451012,1.15234375
60.2943059,1.15234375
60.2945074,1.1376953125
60.317357,1.1376953125
60.327825,1.123046875
60.3620683,1.11328125
60.3840251,1.0986328125
60.3905867,1.0986328125
60.4063668,1.0888671875
60.4427481,1.123046875
60.444911,1.162109375
60.4821401,1.2158203125
60.5161277,1.279296875
60.5163337,1.337890625
60.527669,1.38671875
60.5630074,1.42578125
60.5692814,1.455078125
60.6033191,1.474609375
60.6036054,1.494140625
60.6396788,1.50390625
60.6598914,1.50390625
60.6659805,1.4990234375
60.6981955,1.4794921875
60.7203184,1.455078125
60.7290872,1.4306640625
60.7639325,1.40625
60.786061,1.3818359375
60.7863357,1.3671875
60.820252,1.34765625
60.8408537,1.337890625
60.8470102,1.318359375
60.8863363,1.298828125
60.9076998,1.279296875
60.9080269,1.2646484375
60.9480359,1.2451171875
60.9498184,1.2109375
60.9666661,1.201171875
61.0033396,1.201171875
61.0075194,1.1962890625
61.0437719,1.19140625
61.0480607,1.1767578125
61.0977231,1.171875
61.0980617,1.1669921875
61.1288231,1.15234375
61.1291752,1.142578125
61.1745994,1.1328125
61.1750109,1.1328125
61.1894536,1.1279296875
61.2243309,1.1279296875
61.2288658,1.11328125
61.2628974,1.103515625
61.283103,1.0888671875
61.2888896,1.083984375
61.3208326,1.09375
61.3258665,1.1376953125
61.3605305,1.19140625
61.3809892,1.2548828125
61.3875269,1.318359375
61.4238395,1.357421875
61.4454622,1.3916015625
61.4494725,1.416015625
61.4842875,1.4306640625
61.5075755,1.4404296875
61.507789,1.4501953125
61.5553236,1.4453125
61.555645,1.435546875
61.5848988,1.416015625
61.5891214,1.4013671875
61.622716,1.376953125
61.6422368,1.357421875
61.6475409,1.3330078125
61.6814065,1.3232421875
61.687632,1.30859375
61.7236528,1.298828125
61.7555826,1.279296875
61.7559185,1.2646484375
61.7695827,1.25
61.8039984,1.2353515625
61.8259978,1.2158203125
61.8303373,1.1962890625
61.8651633,1.1865234375
61.887199,1.171875
61.8874068,1.1669921875
61.9293078,1.1572265625
61.9295227,1.15234375
61.9618408,1.142578125
61.9840104,1.15234375
61.9914637,1.1474609375
62.01118,1.142578125
62.0478819,1.1474609375
62.048225,1.1328125
62.0862159,1.1376953125
62.1157774,1.1328125
62.1161297,1.1376953125
62.1305034,1.1328125
62.1796511,1.1328125
62.1800049,1.1474609375
62.1907597,1.1865234375
62.2072454,1.240234375
62.2558544,1.3134765625
62.2560605,1.3623046875
62.2673042,1.4111328125
62.301534,1.4453125
62.3217138,1.474609375
62.3287356,1.4892578125
62.3526477,1.5087890625
62.3879662,1.513671875
62.3882299,1.50390625
62.4220027,1.4990234375
62.4522801,1.484375
62.4526342,1.4599609375
62.4714491,1.4404296875
62.5123831,1.4208984375
62.5167902,1.40625
62.5331672,1.38671875
62.5479274,1.3671875
62.5921118,1.3525390625
62.5924393,1.3037109375
62.6106185,1.298828125
62.6518271,1.2841796875
62.652305,1.2744140625
62.6848099,1.259765625
62.6911531,1.240234375
62.7272409,1.220703125
62.7315993,1.2060546875
62.7669745,1.19140625
62.7876876,1.1767578125
62.7881032,1.171875
62.8357732,1.162109375
62.8361069,1.15234375
62.8572216,1.1376953125
62.872063,1.1328125
62.9080484,1.1181640625
62.9130767,1.1083984375
62.9292765,1.09375
62.9495788,1.09375
62.989886,1.083984375
62.9900922,1.0888671875
63.0222937,1.0888671875
63.0435208,1.0888671875
63.0507486,1.1181640625
63.0846917,1.162109375
63.1049139,1.220703125
63.1075479,1.2841796875
63.1415215,1.3525390625
63.1623737,1.4013671875
63.1685047,1.4453125
63.2006174,1.46484375
63.2211532,1.4892578125
63.2301945,1.494140625
63.2681279,1.50390625
63.2684108,1.50390625
63.3026733,1.4990234375
63.309303,1.484375
63.3492023,1.455078125
63.3804806,1.4306640625
63.3807073,1.40625
63.3916344,1.38671875
63.4409724,1.357421875
63.4412715,1.337890625
63.4509125,1.3134765625
63.4834876,1.2744140625
63.5046029,1.259765625
63.5110477,1.2646484375
63.5309146,1.25
63.5810285,1.240234375
63.5814237,1.2255859375
63.5912627,1.2109375
63.6250863,1.1962890625
63.6584552,1.19140625
63.6586673,1.181640625
63.6693334,1.1669921875
63.7024324,1.1669921875
63.7233881,1.15234375
63.73102,1.1474609375
63.7658578,1.1376953125
63.7996001,1.1328125
63.7998419,1.1181640625
63.8149197,1.1083984375
63.8298384,1.09375
63.8777272,1.09375
63.8780169,1.0791015625
63.8900722,1.07421875
63.9375661,1.0693359375
63.9380132,1.0888671875
63.953589,1.1328125
63.9725954,1.1865234375
64.0138957,1.25
64.0142508,1.3037109375
64.0459672,1.3671875
64.0501198,1.40625
64.0932585,1.4404296875
64.0935382,1.4599609375
64.1253838,1.4697265625
64.1342331,1.4697265625
64.1531259,1.46484375
64.1706205,1.4453125
64.2079358,1.435546875
64.2082959,1.416015625
64.2467304,1.396484375
64.2517941,1.3720703125
64.289075,1.3623046875
64.2933879,1.3427734375
64.3277126,1.3232421875
64.3317029,1.3037109375
64.3684495,1.279296875
64.3886724,1.259765625
64.3906178,1.240234375
64.43468,1.23046875
64.4350228,1.2109375
64.4567171,1.1962890625
64.4721902,1.181640625
64.510529,1.171875
64.5272789,1.1572265625
64.5334363,1.15234375
64.5679442,1.1376953125
64.5723724,1.1328125
64.6070398,1.1328125
64.6117857,1.123046875
64.6455027,1.1181640625
64.6656086,1.11328125
64.671511,1.1083984375
64.7047937,1.09375
64.7258722,1.0888671875
64.7301349,1.0791015625
64.7777354,1.0888671875
64.7779838,1.0888671875
64.8071365,1.1181640625
64.8112693,1.162109375
64.8452366,1.2255859375
64.8702406,1.2841796875
64.8723034,1.3427734375
64.9059201,1.3818359375
64.9100051,1.4404296875
64.947178,1.4697265625
64.9673823,1.484375
64.9723295,1.4990234375
65.0094313,1.4990234375
65.0288389,1.4990234375
65.034002,1.484375
65.066926,1.474609375
65.0877809,1.4453125
65.0905633,1.42578125
65.1276359,1.40625
65.1472413,1.38671875
65.1514902,1.3623046875
65.185603,1.34765625
65.220287,1.328125
65.2206935,1.30859375
65.2333896,1.2939453125
65.2669144,1.26953125
65.2891538,1.2548828125
65.2895187,1.2353515625
65.323735,1.23046875
65.3450425,1.2158203125
65.3524069,1.2109375
65.386738,1.201171875
65.4067831,1.19140625
65.4139711,1.1767578125
65.4484963,1.171875
65.4713693,1.15234375
65.4717556,1.1474609375
65.5077221,1.142578125
65.5141047,1.1376953125
65.5329234,1.1279296875
65.5764316,1.1279296875
65.5768469,1.123046875
65.6059648,1.1181640625
65.6141503,1.1083984375
65.631034,1.103515625
65.6638531,1.1083984375
65.6850603,1.1328125
65.6911834,1.181640625
65.7252139,1.2353515625
65.7479758,1.298828125
65.7553064,1.34765625
65.7907091,1.3916015625
65.7909492,1.4208984375
65.8254515,1.4599609375
65.8460763,1.484375
65.8521934,1.4990234375
65.8849672,1.5087890625
65.9050056,1.50390625
65.9130877,1.494140625
65.9464989,1.4697265625
65.9666521,1.4453125
65.9769158,1.4208984375
65.9968602,1.376953125
66.012607,1.3427734375
66.0585739,1.3427734375
66.0589292,1.337890625
66.0910224,1.3330078125
66.0951293,1.3232421875
66.1292164,1.3134765625
66.148671,1.2939453125
66.1561887,1.279296875
66.1717156,1.2548828125
66.2072156,1.2548828125
66.2133058,1.240234375
66.2468565,1.220703125
66.2756439,1.2109375
66.2760536,1.1962890625
66.3104075,1.1865234375
66.3143934,1.171875
66.3526949,1.1669921875
66.3530244,1.1572265625
66.3747572,1.162109375
66.3934779,1.15234375
66.4299808,1.1474609375
66.4522028,1.1376953125
66.4524591,1.1328125
66.4896694,1.123046875
66.5099842,1.1083984375
66.5165431,1.103515625
66.5336077,1.09375
66.5672715,1.1083984375
66.5882801,1.142578125
66.5932027,1.201171875
66.6279718,1.2548828125
66.6490831,1.318359375
66.6564322,1.357421875
66.6958344,1.4013671875
66.6961453,1.42578125
66.7135931,1.4599609375
66.7476251,1.4697265625
66.7686113,1.4794921875
66.7740868,1.4794921875
66.8094365,1.4697265625
66.8366563,1.455078125
66.8369817,1.4404296875
66.8718683,1.4208984375
66.8769623,1.3916015625
66.9120197,1.3671875
66.9124892,1.34765625
66.9343397,1.337890625
66.9716283,1.318359375
66.9764986,1.3037109375
67.0124298,1.2939453125
67.0150322,1.2841796875
67.0592641,1.26953125
67.0594639,1.25
67.0901026,1.23046875
67.0945584,1.2255859375
67.1149654,1.2158203125
67.1630522,1.2060546875
67.1633158,1.19140625
67.1836877,1.1767578125
67.195948,1.162109375
67.2408935,1.142578125
67.2413141,1.1328125
67.2531278,1.1181640625
67.2886732,1.11328125
67.2929799,1.0986328125
67.3262043,1.09375
67.3478722,1.0791015625
67.3561145,1.07421875
67.39762,1.0595703125
67.3979612,1.0595703125
67.4120557,1.064453125
67.4457942,1.1083984375
67.4755214,1.1572265625
67.4757153,1.23046875
67.5118985,1.2939453125
67.5160479,1.337890625
67.5530225,1.376953125
67.5835335,1.4013671875
67.5839568,1.4208984375
67.5929429,1.4306640625
67.630188,1.4501953125
67.6340785,1.4501953125
67.6771661,1.4501953125
67.6774462,1.4306640625
67.6994467,1.4111328125
67.7173752,1.38671875
67.7510917,1.3671875
67.7560846,1.3427734375
67.7912826,1.328125
67.8134697,1.3134765625
67.8138174,1.2939453125
67.8656732,1.2841796875
67.8660258,1.2744140625
67.8765835,1.2646484375
67.8973431,1.25
67.9193479,1.240234375
67.9533712,1.220703125
67.9576597,1.201171875
67.9740356,1.19140625
68.0076985,1.19140625
68.0286018,1.1767578125
68.0387834,1.1669921875
68.0575874,1.1572265625
68.0935351,1.142578125
68.0989913,1.1279296875
68.1175569,1.1376953125
68.1509776,1.1328125
68.173345,1.1279296875
68.1735661,1.1279296875
68.2106153,1.1279296875
68.230845,1.123046875
68.2346848,1.1181640625
68.2669212,1.1181640625
68.2887379,1.1181640625
68.2992266,1.1474609375
68.3141379,1.1865234375
68.3591202,1.2548828125
68.3593259,1.3134765625
68.3806168,1.376953125
68.3965582,1.416015625
68.4363131,1.4501953125
68.4366689,1.4794921875
68.4736085,1.4892578125
68.4778559,1.4990234375
68.4954787,1.4990234375
68.5451312,1.50390625
68.5455584,1.46484375
68.5543985,1.4599609375
68.5913881,1.4404296875
68.596015,1.4208984375
68.6390319,1.4013671875
68.6392434,1.38671875
68.6752695,1.3671875
68.6771622,1.3525390625
68.6962117,1.3330078125
68.7333564,1.318359375
68.7335579,1.298828125
68.7781756,1.2890625
68.7784937,1.2744140625
68.7982076,1.2548828125
68.8313282,1.240234375
68.8535932,1.2255859375
68.8599762,1.2109375
68.8752303,1.19140625
68.9180865,1.19140625
68.9183063,1.181640625
68.9514858,1.1767578125
68.9729265,1.1669921875
68.9777608,1.1572265625
69.0131606,1.1474609375
69.0172349,1.142578125
69.0512362,1.1279296875
69.0561311,1.123046875
69.0755495,1.123046875
69.1109217,1.11328125
69.1331293,1.1083984375
69.1381172,1.103515625
69.1819962,1.11328125
69.1822728,1.123046875
69.2161135,1.1669921875
69.2163132,1.2158203125
69.2501719,1.2890625
69.2715255,1.3427734375
69.2757047,1.3916015625
69.3100499,1.4208984375
69.3392138,1.4453125
69.3396612,1.46484375
69.3747887,1.4794921875
69.3797916,1.4794921875
69.4009884,1.4599609375
69.4202207,1.435546875
69.4372604,1.42578125
69.4721058,1.416015625
69.4760273,1.396484375
69.5108302,1.376953125
69.5339824,1.357421875
69.5379527,1.337890625
69.5723554,1.318359375
69.5927607,1.298828125
69.5948391,1.279296875
69.6308595,1.26953125
69.6583738,1.2548828125
69.6585731,1.2451171875
69.6920372,1.2255859375
69.7145366,1.2109375
69.7199862,1.201171875
69.7420069,1.181640625
69.7765551,1.1669921875
69.7768148,1.15234375
69.8214832,1.15234375
69.8245532,1.142578125
69.8387966,1.1376953125
69.8849836,1.1279296875
69.8853323,1.123046875
69.8992518,1.1083984375
69.9340717,1.1083984375
69.9344692,1.0986328125
69.9763474,1.0986328125
69.9766782,1.0888671875
69.9978149,1.083984375
70.0431426,1.0791015625
70.0435361,1.0888671875
70.0718236,1.11328125
70.0778361,1.15234375
70.1256558,1.2158203125
70.1263253,1.26953125
70.1565475,1.3330078125
70.1567778,1.3818359375
70.1908062,1.4306640625
70.2132616,1.455078125
70.2210764,1.474609375
70.2400195,1.4794921875
70.2738968,1.4794921875
70.2791427,1.46484375
70.3149807,1.4501953125
70.3436712,1.4306640625
70.3439097,1.416015625
70.3578313,1.4013671875
70.3943267,1.376953125
70.3985035,1.3623046875
70.4354919,1.3427734375
70.4549879,1.328125
70.4592897,1.30859375
70.4942441,1.2890625
70.5165155,1.2646484375
70.5168049,1.2548828125
70.5611358,1.2353515625
70.5614693,1.2255859375
70.5815754,1.2060546875
70.6253451,1.1962890625
70.6255437,1.1767578125
70.6418742,1.1669921875
70.6569701,1.15234375
70.6926313,1.1572265625
70.7197203,1.1572265625
70.7200714,1.15234375
70.7530048,1.1474609375
70.7754752,1.1376953125
70.7802654,1.1328125
70.8172916,1.1279296875
70.8193475,1.123046875
70.8537103,1.1083984375
70.8557398,1.1083984375
70.904766,1.103515625
70.9050969,1.1083984375
70.9250586,1.1279296875
70.9389711,1.171875
70.9739333,1.2255859375
70.9941112,1.2890625
71.0003505,1.34765625
71.0345502,1.38671875
71.0397524,1.42578125
71.0773669,1.455078125
71.0776624,1.4794921875
71.1126745,1.4892578125
71.1342643,1.4990234375
71.141929,1.4892578125
71.1602348,1.474609375
71.1951854,1.4501953125
71.215464,1.4306640625
71.2176321,1.40625
71.255851,1.396484375
71.2599374,1.3818359375
71.2945633,1.3671875
71.2995823,1.34765625
71.3343964,1.337890625
71.3615433,1.3232421875
71.3617538,1.3037109375
71.3993903,1.2890625
71.3997487,1.2646484375
71.4336484,1.2548828125
71.4379871,1.240234375
71.4720488,1.23046875
71.5016905,1.2158203125
71.5020654,1.2060546875
71.5361855,1.19140625
71.5644748,1.181640625
71.5648711,1.1669921875
71.5781215,1.171875
71.6135991,1.162109375
71.6194867,1.15234375
71.656445,1.1474609375
71.6605081,1.1376953125
71.6947202,1.1279296875
71.7191519,1.11328125
71.7209724,1.1083984375
71.7380576,1.103515625
71.7703687,1.11328125
71.7901502,1.123046875
71.7992556,1.1669921875
71.8336514,1.2109375
71.8545605,1.2744140625
71.8608094,1.3232421875
71.8930196,1.3671875
71.9138982,1.396484375
71.9223799,1.435546875
71.9546848,1.4208984375
71.9597422,1.455078125
71.9998962,1.4697265625
72.0000913,1.474609375
72.0361981,1.4697265625
72.0637213,1.4501953125
72.0640671,1.42578125
72.1078096,1.396484375
72.108113,1.3720703125
72.1179162,1.34765625
72.1501063,1.3330078125
72.1736074,1.318359375
72.1804553,1.298828125
72.235369,1.2890625
72.2355668,1.2841796875
72.2424541,1.2744140625
72.2785227,1.2646484375
72.2828217,1.25
72.3004693,1.23046875
72.3354817,1.2255859375
72.3396763,1.2060546875
72.3729424,1.201171875
72.392885,1.181640625
72.4023877,1.171875
72.4362561,1.1572265625
72.4574091,1.1572265625
72.459495,1.1376953125
72.4934907,1.142578125
72.5158596,1.1328125
72.5198022,1.1328125
72.5517268,1.123046875
72.5782691,1.11328125
72.5801158,1.0986328125
72.6252084,1.0986328125
72.6255387,1.09375
72.6556476,1.0888671875
72.6596105,1.1181640625
72.6942423,1.162109375
72.7182242,1.2255859375
72.7223865,1.279296875
72.7645843,1.337890625
72.7648959,1.376953125
72.7839746,1.4111328125
72.8047161,1.42578125
72.8402253,1.4208984375
72.840426,1.4306640625
72.8875481,1.4453125
72.8877518,1.4404296875
72.903254,1.42578125
72.922331,1.4111328125
72.9654182,1.3818359375
72.9656759,1.3623046875
72.9854901,1.3427734375
73.0203485,1.328125
73.0205453,1.30859375
73.0570516,1.298828125
73.0768881,1.2841796875
73.0821449,1.26953125
73.119997,1.25
73.1416416,1.240234375
73.1472198,1.220703125
73.1643483,1.2060546875
73.1798251,1.1865234375
73.2285632,1.1767578125
73.2289621,1.1669921875
73.2413341,1.162109375
73.2762304,1.1572265625
73.2983064,1.142578125
73.3005853,1.1376953125
73.336784,1.1279296875
73.3586657,1.123046875
73.3588662,1.1083984375
73.4003755,1.11328125
73.4205957,1.1083984375
73.4208558,1.1083984375
73.4600019,1.09375
73.4810554,1.09375
73.481375,1.0888671875
73.5221007,1.1083984375
73.5225126,1.142578125
73.5450299,1.2060546875
73.5617718,1.2744140625
73.5821032,1.328125
73.6303587,1.3720703125
73.6307642,1.40625
73.6441385,1.435546875
73.6634365,1.455078125
73.706769,1.46484375
73.706997,1.4697265625
73.7270887,1.4697265625
73.7405168,1.455078125
73.7749647,1.4501953125
73.8018607,1.4306640625
73.802221,1.4111328125
73.8386245,1.3916015625
73.8620373,1.376953125
73.8622745,1.3525390625
73.8942368,1.337890625
73.9206701,1.3232421875
73.9248625,1.3037109375
73.9433297,1.2939453125
73.9623567,1.279296875
73.9835823,1.26953125
74.026927,1.25
74.0274864,1.240234375
74.0435797,1.2255859375
74.0799037,1.2158203125
74.0802714,1.201171875
74.1144652,1.19140625
74.1364899,1.181640625
74.1566229,1.1767578125
74.1645391,1.1669921875
74.1841178,1.1572265625
74.219121,1.1474609375
74.223086,1.1328125
74.2554341,1.123046875
74.2768349,1.11328125
74.2818815,1.1279296875
74.3160567,1.1279296875
74.3369484,1.1328125
74.344107,1.1328125
74.3806262,1.162109375
74.3825545,1.201171875
74.4189857,1.2646484375
74.4217575,1.318359375
74.4584177,1.3818359375
74.4605102,1.38671875
74.4942318,1.435546875
74.5148886,1.4599609375
74.5218281,1.494140625
74.5437997,1.5087890625
74.5798932,1.513671875
74.6012694,1.513671875
74.6057128,1.4990234375
74.6410303,1.4794921875
74.6414911,1.4501953125
74.6891171,1.4208984375
74.6894639,1.4013671875
74.7192261,1.376953125
74.7246199,1.357421875
74.7647737,1.3330078125
74.7650182,1.3134765625
74.7996815,1.298828125
74.8182256,1.279296875
74.8226762,1.26953125
74.8574498,1.259765625
74.8800496,1.2451171875
74.8845425,1.2353515625
74.9347479,1.2255859375
74.9351124,1.2158203125
74.9466639,1.201171875
74.9827832,1.1865234375
74.9831026,1.1767578125
75.0032122,1.1767578125
75.0275634,1.1669921875
75.0447316,1.162109375
75.0801245,1.1474609375
75.0840386,1.1376953125
75.1183211,1.123046875
75.1494568,1.11328125
75.1497966,1.0986328125
75.1616527,1.103515625
75.1959214,1.0986328125
75.2169706,1.09375
75.2241607,1.103515625
75.2604448,1.1328125
75.2889244,1.1865234375
75.2892919,1.2451171875
75.3224477,1.30859375
75.3266926,1.26953125
75.3477147,1.19140625
75.3653798,1.142578125
75.3838349,1.142578125
75.4203284,1.1376953125
75.4244529,1.1474609375
75.456534,1.142578125
75.4784643,1.142578125
75.4870127,1.2158203125
75.5373961,1.2890625
75.5376042,1.328125
75.544347,1.3525390625
75.5825576,1.376953125
75.5827646,1.3818359375
75.6274596,1.3818359375
75.6278156,1.3720703125
75.6628374,1.3671875
75.6650129,1.3525390625
75.6984919,1.337890625
75.7196824,1.318359375
75.7239126,1.30859375
75.7670106,1.2939453125
75.7672282,1.279296875
75.8115424,1.259765625
75.8117417,1.25
75.8258513,1.240234375
75.8575918,1.220703125
75.880819,1.2060546875
75.881157,1.1865234375
75.9152669,1.181640625
75.9361786,1.171875
75.9440985,1.162109375
75.9846527,1.1474609375
75.9848525,1.1328125
76.0157763,1.1181640625
76.0258108,1.1083984375
76.0593347,1.0986328125
76.0637324,1.1083984375
76.1093106,1.1279296875
76.1095637,1.171875
76.1254529,1.240234375
76.1710783,1.2939453125
76.1712929,1.3525390625
76.1864995,1.3916015625
76.2237078,1.4306640625
76.2278395,1.4501953125
76.2642674,1.4697265625
76.2646,1.474609375
76.2966079,1.484375
76.3048621,1.484375
76.3416375,1.484375
76.345548,1.4697265625
76.3794683,1.4501953125
76.4020869,1.42578125
76.4068366,1.40625
76.4417494,1.3818359375
76.4420382,1.376953125
76.4803142,1.3671875
76.501374,1.34765625
76.5059199,1.3330078125
76.5412684,1.3134765625
76.5453016,1.2939453125
76.5778383,1.2744140625
76.5981059,1.259765625
76.6022491,1.25
76.635987,1.240234375
76.6609348,1.2255859375
76.6660263,1.2158203125
76.6992048,1.2060546875
76.7192364,1.201171875
76.7251581,1.1865234375
76.7705636,1.1767578125
76.7708299,1.1669921875
76.7840735,1.1572265625
76.8186855,1.1572265625
76.8402317,1.15234375
76.8470675,1.15234375
76.8828302,1.142578125
76.8848959,1.142578125
76.9190844,1.1279296875
76.9412725,1.1376953125
76.9416089,1.1572265625
76.9817409,1.220703125
76.9862844,1.279296875
77.0226405,1.3427734375
77.0269908,1.3818359375
77.0469523,1.42578125
77.0909303,1.455078125
77.0911975,1.4892578125
77.1089184,1.50390625
77.1531768,1.5087890625
77.1535014,1.5087890625
77.1650468,1.4990234375
77.1973317,1.4892578125
77.2174373,1.474609375
77.2268173,1.455078125
77.2776679,1.42578125
77.2779971,1.40625
77.2888045,1.3818359375
77.3099075,1.3671875
77.3258059,1.34765625
77.3520692,1.3427734375
77.3712574,1.3330078125
77.3854001,1.318359375
77.4198136,1.298828125
77.4441143,1.2744140625
77.4466872,1.259765625
77.4823505,1.2451171875
77.5068143,1.2353515625
77.5072074,1.2158203125
77.5387703,1.2109375
77.5603629,1.1962890625
77.5672792,1.1865234375
77.6156095,1.1767578125
77.6158149,1.1669921875
77.6285466,1.15234375
77.675804,1.142578125
77.676019,1.1279296875
77.6838325,1.1279296875
77.7173844,1.1181640625
77.7374853,1.1181640625
77.7457502,1.1083984375
77.7815501,1.0986328125
77.8148198,1.09375
77.8150624,1.0986328125
77.8282235,1.1328125
77.8508548,1.181640625
77.8690221,1.220703125
77.8846156,1.259765625
77.9201492,1.328125
77.9402772,1.3720703125
77.9489633,1.4111328125
77.9913549,1.435546875
77.9916152,1.455078125
78.0092328,1.46484375
78.047556,1.4697265625
78.0477729,1.46484375
78.0665363,1.4453125
78.101739,1.4306640625
78.1218536,1.40625
78.1286162,1.38671875
78.1725783,1.3671875
78.1727905,1.34765625
78.2056438,1.328125
78.2076666,1.30859375
78.2401188,1.2841796875
78.2604929,1.26953125
78.2660299,1.2548828125
78.2989975,1.240234375
78.3199138,1.220703125
78.3282974,1.201171875
78.3603091,1.1767578125
78.3897169,1.1767578125
78.3899206,1.162109375
78.4054723,1.1474609375
78.4399927,1.15234375
78.4606585,1.1474609375
78.473526,1.142578125
78.488041,1.1328125
78.5230345,1.1279296875
78.5497714,1.123046875
78.5501228,1.1181640625
78.56585,1.1083984375
78.6001211,1.11328125
78.6297842,1.1083984375
78.6300164,1.1083984375
78.6492952,1.103515625
78.6845749,1.1083984375
78.6885803,1.1376953125
78.7220701,1.1767578125
78.742092,1.2353515625
78.7490703,1.2890625
78.7986382,1.34765625
78.7988354,1.38671875
78.8196037,1.42578125
78.8289731,1.4501953125
78.8482952,1.4697265625
78.8959975,1.474609375
78.8988956,1.474609375
78.9152242,1.4599609375
78.93205,1.4453125
78.9485985,1.4208984375
78.9676896,1.4111328125
79.0036127,1.38671875
79.0081819,1.376953125
79.0448076,1.357421875
79.0491299,1.3330078125
79.0844017,1.30859375
79.0894802,1.2890625
79.1247211,1.26953125
79.1542317,1.2548828125
79.1544477,1.2451171875
79.1679993,1.23046875
79.2022817,1.2158203125
79.2241684,1.2060546875
79.2314397,1.19140625
79.2492547,1.1767578125
79.2855924,1.171875
79.285993,1.1572265625
79.318776,1.1572265625
79.339065,1.1572265625
79.3493263,1.1474609375
79.3843784,1.1474609375
79.3885486,1.142578125
79.4225252,1.142578125
79.4420385,1.1328125
79.4503377,1.1328125
79.4839994,1.123046875
79.4881587,1.1279296875
79.5222327,1.1181640625
79.5291756,1.123046875
79.5634797,1.1328125
79.5675621,1.171875
79.6019252,1.2158203125
79.6220075,1.2744140625
79.6309104,1.3232421875
79.6629094,1.376953125
79.6972929,1.416015625
79.6975843,1.435546875
79.7078182,1.4697265625
79.7408406,1.4794921875
79.7630451,1.4892578125
79.7708891,1.4892578125
79.8200023,1.484375
79.8203556,1.4599609375
79.8298873,1.4404296875
79.8661755,1.4111328125
79.867946,1.396484375
79.9032261,1.376953125
79.9287105,1.3671875
79.9289474,1.34765625
79.9746229,1.328125
79.9749407,1.318359375
79.9951096,1.2939453125
80.0274755,1.2744140625
80.027889,1.2548828125
80.0641997,1.2451171875
80.0683554,1.23046875
80.102618,1.220703125
80.1325528,1.2060546875
80.1328626,1.1962890625
80.1678866,1.181640625
80.1722841,1.1767578125
80.1870883,1.162109375
80.221727,1.1572265625
80.2421136,1.15234375
80.249404,1.1474609375
80.2877778,1.1376953125
80.2917618,1.1376953125
80.3108082,1.1279296875
80.3505319,1.1181640625
80.3507722,1.1083984375
80.3703854,1.09375
80.3928793,1.09375
80.4086123,1.0595703125
80.4564673,1.103515625
80.4737237,1.1572265625
80.4740047,1.2255859375
80.4927144,1.2841796875
80.510966,1.337890625
80.5601354,1.3818359375
80.5605524,1.4208984375
80.5815906,1.4404296875
80.5887878,1.4697265625
80.630501,1.4892578125
80.6471516,1.494140625
80.649077,1.4892578125
80.6855599,1.474609375
80.7084554,1.4599609375
80.7103185,1.4306640625
80.7443989,1.4111328125
80.7647201,1.3818359375
80.7687907,1.3720703125
80.8029745,1.34765625
80.8227044,1.3330078125
80.8307578,1.30859375
80.8638081,1.2890625
80.8855406,1.26953125
80.8921513,1.2548828125
80.9098373,1.2353515625
80.9443771,1.2353515625
80.9483255,1.220703125
80.9807848,1.2060546875
81.000738,1.1962890625
81.0111742,1.181640625
81.043174,1.171875
81.0654736,1.162109375
81.0719161,1.15234375
81.0885226,1.142578125
81.1241934,1.142578125
81.1587675,1.1376953125
81.1590815,1.1328125
81.1700784,1.1279296875
81.2201418,1.123046875
81.2203471,1.1181640625
81.232355,1.1083984375
81.2693343,1.0986328125
81.2758005,1.083984375
81.2948605,1.064453125
81.3108691,1.0888671875
81.346093,1.15234375
81.350176,1.2109375
81.3842566,1.2744140625
81.4068429,1.3232421875
81.4136429,1.3671875
81.451544,1.396484375
81.4518378,1.4306640625
81.4932736,1.4453125
81.493632,1.46484375
81.5111474,1.46484375
81.5462689,1.455078125
81.5502667,1.435546875
81.5837075,1.416015625
81.604088,1.396484375
81.6124621,1.3720703125
81.646985,1.3525390625
81.6676009,1.328125
81.6718355,1.3134765625
81.7076421,1.298828125
81.7117995,1.2841796875
81.7609621,1.2646484375
81.7613511,1.2451171875
81.7834998,1.2255859375
81.7950083,1.2109375
81.8109988,1.1962890625
81.8470497,1.1865234375
81.8523977,1.171875
81.8868514,1.1572265625
81.8914952,1.1474609375
81.9265082,1.1376953125
81.9544682,1.1279296875
81.954744,1.123046875
81.9907151,1.1181640625
81.9909918,1.1083984375
82.0106636,1.1083984375
82.0452278,1.103515625
82.0657541,1.0986328125
82.0741825,1.09375
82.0919338,1.09375
82.1322882,1.083984375
82.132683,1.083984375
82.1543626,1.09375
82.1734441,1.1279296875
82.1920284,1.1767578125
82.239586,1.25
82.239781,1.3134765625
82.2538566,1.3623046875
82.2737914,1.40625
82.2920102,1.435546875
82.3250485,1.4599609375
82.3474119,1.474609375
82.353879,1.484375
82.3717917,1.4794921875
82.3911399,1.4794921875
82.4275883,1.46484375
82.4558208,1.4501953125
82.4562296,1.42578125
82.488456,1.416015625
82.4952243,1.396484375
82.5327141,1.3818359375
82.5348849,1.3671875
82.5496669,1.34765625
82.5945985,1.3427734375
82.5948012,1.328125
82.6265405,1.318359375
82.6330384,1.298828125
82.6700967,1.279296875
82.6902223,1.259765625
82.6924124,1.240234375
82.7288404,1.2255859375
82.7291357,1.2255859375
82.7734317,1.2158203125
82.7737525,1.2158203125
82.8030814,1.2109375
82.8134016,1.201171875
82.8509151,1.1865234375
82.8554171,1.1767578125
82.8963678,1.171875
82.896833,1.15234375
82.9180633,1.1474609375
82.9333525,1.1328125
82.9693065,1.123046875
82.9744832,1.11328125
83.0210319,1.1083984375
83.0215528,1.1181640625
83.0347379,1.1572265625
83.0703156,1.2109375
83.0964073,1.26953125
83.0969509,1.318359375
83.1114098,1.3720703125
83.1350137,1.40625
83.1545186,1.435546875
83.1739978,1.46484375
83.2190107,1.474609375
83.2193969,1.4794921875
83.2362587,1.474609375
83.2829817,1.474609375
83.2835587,1.455078125
83.2911505,1.4404296875
83.327088,1.42578125
83.3482639,1.40625
83.3546305,1.38671875
83.4055146,1.3720703125
83.4057665,1.34765625
83.4145185,1.328125
83.4297855,1.3037109375
83.466877,1.2890625
83.5004596,1.26953125
83.5006621,1.2646484375
83.5146237,1.25
83.5636519,1.23046875
83.5638726,1.2158203125
83.5739803,1.201171875
83.6094843,1.181640625
83.6312373,1.162109375
83.6315923,1.15234375
83.6734961,1.1474609375
83.673774,1.1376953125
83.6988639,1.1279296875
83.7135941,1.1181640625
83.7351387,1.1083984375
83.7788555,1.103515625
83.7791685,1.09375
83.798784,1.09375
83.8172924,1.0595703125
83.8324169,1.0400390625
83.8713762,1.0595703125
83.8761062,1.0791015625
83.9111029,1.1181640625
83.9140113,1.171875
83.9485746,1.2353515625
83.9707955,1.2939453125
83.9780245,1.34765625
83.9930226,1.38671875
84.029127,1.4306640625
84.0340678,1.455078125
84.067734,1.4794921875
84.0889624,1.484375
84.0962543,1.484375
84.1321639,1.4697265625
84.1345827,1.4599609375
84.1674557,1.4404296875
84.1943123,1.4111328125
84.1987859,1.38671875
84.2146518,1.3671875
84.2343192,1.3427734375
84.2759516,1.328125
84.2762292,1.30859375
84.3128822,1.2890625
84.3202248,1.26953125
84.3324603,1.25
84.3726818,1.240234375
84.3729121,1.2255859375
84.4210233,1.2109375
84.4212462,1.19140625
84.4511086,1.1767578125
84.4558592,1.1669921875
84.4999897,1.15234375
84.5002121,1.142578125
84.5296334,1.1328125
84.5319706,1.142578125
84.5679184,1.1376953125
84.6022821,1.1376953125
84.6026079,1.1328125
84.6142904,1.123046875
84.6498857,1.11328125
84.6788295,1.1083984375
84.6790801,1.09375
84.6977074,1.083984375
84.7133277,1.07421875
84.7579993,1.0888671875
84.7583666,1.1181640625
84.7759704,1.181640625
84.8200083,1.25
84.8202713,1.298828125
84.8377856,1.3525390625
84.8645477,1.38671875
84.8795017,1.416015625
84.8932501,1.4306640625
84.9440464,1.4501953125
84.9444276,1.455078125
84.9736417,1.4599609375
84.9762126,1.4501953125
85.0201849,1.435546875
85.0204487,1.416015625
85.0379419,1.4013671875
85.054085,1.3818359375
85.0896736,1.3720703125
85.0939085,1.3623046875
85.1444677,1.34765625
85.1447191,1.3330078125
85.1555742,1.3134765625
85.1926929,1.3037109375
85.1953664,1.2841796875
85.2321153,1.26953125
85.253924,1.2548828125
85.2541453,1.25
85.2911297,1.2353515625
85.3110028,1.23046875
85.3156135,1.2158203125
85.3363114,1.2060546875
85.3726742,1.19140625
85.4017345,1.1767578125
85.4021315,1.162109375
85.4237623,1.1669921875
85.4347541,1.162109375
85.4553663,1.15234375
85.4755352,1.142578125
85.5127001,1.1328125
85.5169082,1.1279296875
85.5363879,1.123046875
85.5757432,1.123046875
85.6046375,1.1328125
85.6051188,1.1669921875
85.6143488,1.220703125
85.6516821,1.2890625
85.6559609,1.34765625
85.6985383,1.40625
85.6989337,1.435546875
85.7169378,1.4697265625
85.738153,1.4990234375
85.7604137,1.5087890625
85.7784703,1.5185546875
85.7963936,1.513671875
85.8153631,1.5185546875
85.8535885,1.5087890625
85.8735131,1.4892578125
85.8755197,1.46484375
85.9150554,1.4404296875
85.9350935,1.4111328125
85.937781,1.3916015625
85.9559112,1.3623046875
85.9896681,1.357421875
85.9971728,1.3427734375
86.0327677,1.328125
86.0372733,1.3037109375
86.0569114,1.2890625
86.0973461,1.26953125
86.0977083,1.25
86.1439359,1.240234375
86.1443753,1.2255859375
86.1567396,1.220703125
86.2069676,1.2109375
86.207279,1.201171875
86.2163586,1.19140625
86.2504881,1.1767578125
86.2719971,1.1669921875
86.2782263,1.1572265625
86.2944703,1.142578125
86.3304886,1.1376953125
86.3619424,1.0986328125
86.3623072,1.103515625
86.3781817,1.1083984375
86.3975675,1.0986328125
86.434942,1.0986328125
86.4403676,1.1083984375
86.4587898,1.15234375
86.4846637,1.201171875
86.4989374,1.259765625
86.5149847,1.3037109375
86.5684254,1.357421875
86.568641,1.3916015625
86.577766,1.4306640625
86.5989733,1.4501953125
86.6466905,1.4697265625
86.6469461,1.4697265625
86.663726,1.4697265625
86.6752598,1.4501953125
86.7235906,1.4404296875
86.7239389,1.4208984375
86.7360894,1.396484375
86.7862033,1.3720703125
86.7866467,1.3525390625
86.7968714,1.337890625
86.8428619,1.318359375
86.8604952,1.3037109375
86.8607382,1.2841796875
86.8778839,1.26953125
86.9204637,1.259765625
86.920695,1.2451171875
86.9370808,1.23046875
86.9725949,1.2158203125
86.9998208,1.1962890625
87.0000488,1.1865234375
87.0215338,1.1767578125
87.0371554,1.1572265625
87.0564961,1.15234375
87.1062764,1.1474609375
87.10649,1.1474609375
87.1183433,1.1328125
87.1673122,1.1279296875
87.1675095,1.11328125
87.1784554,1.103515625
87.1997656,1.083984375
87.221046,1.0498046875
87.2362222,1.015625
87.270921,1.03515625
87.2904646,1.044921875
87.2980536,1.0791015625
87.333699,1.1279296875
87.3532577,1.201171875
87.3592627,1.2646484375
87.3986943,1.318359375
87.3990602,1.3623046875
87.4207265,1.3916015625
87.4368218,1.42578125
87.4756896,1.4404296875
87.4974815,1.4501953125
87.4976859,1.4453125
87.5347491,1.435546875
87.5539784,1.4208984375
87.5593287,1.40625
87.5762461,1.376953125
87.6102018,1.3671875
87.6328218,1.34765625
87.6382571,1.3330078125
87.6598164,1.318359375
87.6813236,1.2939453125
87.6997691,1.2744140625
87.7381578,1.2548828125
87.7401536,1.2353515625
87.7572388,1.2158203125
87.800336,1.2060546875
87.800673,1.1865234375
87.8163035,1.181640625
87.8611109,1.1669921875
87.8614683,1.15234375
87.8812464,1.142578125
87.9149707,1.1328125
87.9151748,1.1279296875
87.9555773,1.1279296875
87.9559235,1.1181640625
87.9778869,1.123046875
88.012636,1.123046875
88.0320451,1.1181640625
88.038055,1.11328125
88.072738,1.103515625
88.0960267,1.103515625
88.1002174,1.0986328125
88.1345392,1.1083984375
88.1564693,1.1328125
88.1567225,1.19140625
88.1931358,1.2548828125
88.2153844,1.3232421875
88.2198241,1.3720703125
88.2673341,1.4208984375
88.2677212,1.4501953125
88.2897781,1.474609375
88.3032004,1.4990234375
88.3193451,1.4990234375
88.3380115,1.5087890625
88.376613,1.4990234375
88.3770043,1.4892578125
88.4251035,1.4697265625
88.4253618,1.4501953125
88.4540621,1.4208984375
88.4602666,1.4013671875
88.5006495,1.376953125
88.5009986,1.3671875
88.5185407,1.3427734375
88.5629282,1.328125
88.5631564,1.30859375
88.5812664,1.298828125
88.6262873,1.2744140625
88.6265746,1.26953125
88.6430306,1.259765625
88.6591513,1.2451171875
88.6943157,1.2353515625
88.698777,1.2255859375
88.7345172,1.2158203125
88.7622927,1.2060546875
88.7625633,1.1962890625
88.8089487,1.1865234375
88.8092329,1.1767578125
88.8169793,1.1669921875
88.8512373,1.162109375
88.8713245,1.162109375
88.878242,1.162109375
88.9190921,1.15234375
88.9493551,1.142578125
88.9496811,1.1376953125
88.9627383,1.1328125
88.9812505,1.15234375
89.018587,1.1865234375
89.0204185,1.25
89.0571606,1.298828125
89.0590795,1.3623046875
89.1046015,1.4013671875
89.1049863,1.4453125
89.1354982,1.46484375
89.1409066,1.4892578125
89.1815158,1.4990234375
89.181808,1.50390625
89.2003782,1.494140625
89.2193825,1.4892578125
89.2407091,1.4697265625
89.2622296,1.4453125
89.2810189,1.4208984375
89.3022676,1.396484375
89.3209073,1.376953125
89.3567338,1.357421875
89.3609264,1.3427734375
89.3966228,1.328125
89.3984647,1.3232421875
89.4333283,1.30859375
89.4528169,1.2939453125
89.4597496,1.279296875
89.4938762,1.2646484375
89.51374,1.2451171875
89.5219869,1.23046875
89.5388801,1.2060546875
89.5852787,1.1962890625
89.5856427,1.19140625
89.6156864,1.1669921875
89.6210586,1.1572265625
89.6435644,1.142578125
89.662482,1.1328125
89.7066427,1.1181640625
89.7070082,1.1083984375
89.7224151,1.09375
89.7435955,1.0595703125
89.7607555,1.0302734375
89.7988967,1.0400390625
89.7991891,1.0400390625
89.8350152,1.0546875
89.8627384,1.083984375
89.8629579,1.1376953125
89.8843692,1.1962890625
89.9336459,1.2646484375
89.9341761,1.328125
89.9393162,1.3720703125
89.97641,1.4208984375
90.0074853,1.4404296875
90.0078157,1.4599609375
90.0225282,1.46484375
90.0680415,1.4697265625
90.0682846,1.4599609375
90.0839067,1.4453125
90.0996128,1.4208984375
90.1473853,1.40625
90.1478044,1.38671875
90.1610082,1.376953125
90.2101424,1.357421875
90.2103471,1.3427734375
90.223255,1.328125
90.2691354,1.30859375
90.2693938,1.2890625
90.2988325,1.2646484375
90.2991594,1.259765625
90.3436939,1.2451171875
90.3439956,1.23046875
90.3637498,1.2158203125
90.3834651,1.201171875
90.4243395,1.1865234375
90.4246829,1.1767578125
90.4411772,1.162109375
90.4872962,1.15234375
90.4876534,1.142578125
90.5023055,1.1328125
90.5485735,1.1181640625
90.549167,1.1083984375
90.5640983,1.09375
90.6039479,1.0791015625
90.6044403,1.0693359375
90.6374582,1.0595703125
90.6594141,1.0546875
90.6598899,1.0498046875
90.6940899,1.0546875
90.7167969,1.0595703125
90.72407,1.0595703125
90.7426794,1.0595703125
90.764554,1.0595703125
90.7993893,1.0595703125
90.8037099,1.0595703125
90.8196105,1.0546875
90.8556104,1.064453125
90.8761192,1.0693359375
90.8815196,1.064453125
90.9197955,1.0693359375
90.9216552,1.0693359375
90.9569965,1.0791015625
90.9767537,1.07421875
90.9846227,1.0791015625
91.0018913,1.07421875
91.0444388,1.0888671875
91.0447407,1.083984375
91.0769339,1.0888671875
91.0816968,1.083984375
91.1171548,1.09375
91.1392482,1.09375
91.1444137,1.0986328125
91.1610894,1.09375
91.2037817,1.1083984375
91.2040314,1.1083984375
91.2384045,1.1083984375
91.2403679,1.1083984375
91.2787454,1.103515625
91.3007672,1.1083984375
91.3048288,1.103515625
91.3415117,1.103515625
91.3417546,1.103515625
91.3872878,1.1083984375
91.3879134,1.1083984375
91.4001769,1.1083984375
91.4350594,1.11328125
91.4640695,1.1181640625
91.4643127,1.1376953125
91.4996562,1.201171875
91.5271537,1.2890625
91.5273565,1.3623046875
91.5451253,1.435546875
91.5621335,1.4892578125
91.5968184,1.552734375
91.6170522,1.5869140625
91.6239221,1.611328125
91.6653053,1.62109375
91.665658,1.6259765625
91.684674,1.6064453125
91.7061865,1.591796875
91.7218035,1.5673828125
91.7581279,1.5478515625
91.7621167,1.5234375
91.7943767,1.50390625
91.8153809,1.484375
91.8235692,1.4697265625
91.8570386,1.455078125
91.8789791,1.435546875
91.8851534,1.4208984375
91.9025523,1.4013671875
91.9397949,1.3916015625
91.9417609,1.376953125
91.986499,1.3623046875
91.9867633,1.337890625
92.0061177,1.3134765625
92.0487597,1.2939453125
92.0491837,1.2744140625
92.0604464,1.2548828125
92.1114366,1.25
92.1119315,1.23046875
92.1229507,1.2158203125
92.1577908,1.2060546875
92.187998,1.19140625
92.1883382,1.171875
92.2343673,1.15234375
92.2345873,1.142578125
92.2449415,1.1279296875
92.2660714,1.0986328125
92.2831263,1.07421875
92.3195951,1.083984375
92.3246758,1.083984375
92.3448102,1.083984375
92.3796698,1.083984375
92.3834373,1.0986328125
92.4179358,1.1328125
92.4509188,1.19140625
92.4512733,1.2548828125
92.4634129,1.3330078125
92.5118339,1.396484375
92.512088,1.4404296875
92.5343787,1.474609375
92.5451535,1.4990234375
92.5883391,1.513671875
92.5886715,1.513671875
92.6101403,1.513671875
92.6237319,1.4990234375
92.6445127,1.484375
92.6639245,1.46484375
92.7117446,1.4404296875
92.7119852,1.416015625
92.7260873,1.4013671875
92.7732802,1.38671875
92.7734886,1.3671875
92.7852727,1.357421875
92.8200227,1.3330078125
92.8254201,1.328125
92.8434728,1.30859375
92.8816219,1.3037109375
92.8834614,1.2841796875
92.9171746,1.26953125
92.9449233,1.2451171875
92.9451449,1.23046875
92.9639118,1.2158203125
92.9826421,1.2158203125
93.0216039,1.2109375
93.0219187,1.2060546875
93.0678776,1.1962890625
93.068223,1.19140625
93.0991039,1.1767578125
93.1053582,1.1669921875
93.1437,1.1572265625
93.1657071,1.1376953125
93.166044,1.103515625
93.1997721,1.0986328125
93.2039131,1.103515625
93.2379309,1.123046875
93.2714492,1.1669921875
93.2718085,1.2158203125
93.2866997,1.279296875
93.3313977,1.3330078125
93.3316291,1.376953125
93.3413598,1.4111328125
93.3761807,1.4453125
93.398135,1.4697265625
93.4048176,1.4794921875
93.4532031,1.484375
93.4536029,1.4697265625
93.4739451,1.4599609375
93.4863187,1.435546875
93.5204585,1.416015625
93.5455043,1.3916015625
93.5457037,1.3818359375
93.5790405,1.3623046875
93.6011581,1.3525390625
93.6054095,1.3330078125
93.6554555,1.3232421875
93.6556739,1.30859375
93.6666653,1.298828125
93.6838049,1.2841796875
93.7325308,1.279296875
93.7331619,1.2646484375
93.7444761,1.26953125
93.7804269,1.2646484375
93.811563,1.2548828125
93.8118672,1.2451171875
93.8276838,1.2353515625
93.8481718,1.2255859375
93.8634714,1.2158203125
93.9024095,1.2158203125
93.90265,1.2060546875
93.943428,1.201171875
93.9437301,1.19140625
93.9638305,1.181640625
93.9988901,1.1669921875
94.0206,1.162109375
94.029486,1.1474609375
94.0476022,1.1572265625
94.0828943,1.19140625
94.1046284,1.2353515625
94.1048936,1.298828125
94.1422322,1.3525390625
94.1452388,1.4013671875
94.1896242,1.435546875
94.1899597,1.4697265625
94.2079021,1.4892578125
94.2294587,1.50390625
94.245661,1.5087890625
94.2821632,1.5234375
94.2842575,1.513671875
94.3201356,1.50390625
94.3445041,1.484375
94.344705,1.4599609375
94.3904891,1.4306640625
94.3908165,1.416015625
94.4218936,1.396484375
94.4220944,1.3720703125
94.468339,1.3623046875
94.4688399,1.34765625
94.4880455,1.3330078125
94.5306783,1.3134765625
94.5309319,1.298828125
94.5476232,1.279296875
94.5863098,1.2646484375
94.6032235,1.2451171875
94.6035709,1.2451171875
94.636787,1.23046875
94.6570825,1.2255859375
94.664967,1.2060546875
94.711526,1.201171875
94.7117887,1.19140625
94.7316507,1.181640625
94.7671566,1.171875
94.76755,1.1669921875
94.7868852,1.181640625
94.8056732,1.1767578125
94.8526309,1.171875
94.8528292,1.162109375
94.8729606,1.162109375
94.8879763,1.1767578125
94.9236332,1.220703125
94.9285649,1.259765625
94.9636637,1.3134765625
94.9641133,1.357421875
94.9876333,1.40625
95.0067747,1.4404296875
95.0477646,1.474609375
95.0481731,1.4990234375
95.0839585,1.50390625
95.0882595,1.50390625
95.1231329,1.494140625
95.1271262,1.484375
95.1601368,1.46484375
95.1646161,1.4501953125
95.1992762,1.42578125
95.2194524,1.40625
95.2281464,1.3818359375
95.2643084,1.357421875
95.2662483,1.337890625
95.3004203,1.318359375
95.3248883,1.2939453125
95.3252367,1.2841796875
95.3584492,1.26953125
95.3811252,1.25
95.3885182,1.2353515625
95.4070182,1.2158203125
95.4502299,1.2060546875
95.4505687,1.1865234375
95.4729676,1.1767578125
95.4851573,1.162109375
95.5290178,1.1572265625
95.5293509,1.1474609375
95.5489628,1.1474609375
95.5810296,1.1376953125
95.6023032,1.1328125
95.6063878,1.123046875
95.6406091,1.11328125
95.6691436,1.0986328125
95.6693408,1.07421875
95.692716,1.0595703125
95.7087331,1.044921875
95.7551507,1.083984375
95.7555036,1.1328125
95.7686634,1.1962890625
95.8183216,1.2548828125
95.8186532,1.3134765625
95.843118,1.3525390625
95.8496026,1.38671875
95.865874,1.4111328125
95.9139492,1.4306640625
95.9143232,1.4404296875
95.9335332,1.455078125
95.947987,1.4453125
95.9920363,1.435546875
95.9924255,1.4208984375
96.0212773,1.3916015625
96.0301496,1.3720703125
96.0469539,1.34765625
96.0943579,1.337890625
96.1113878,1.3232421875
96.111699,1.3134765625
96.1269328,1.298828125
96.1597416,1.2841796875
96.1813644,1.259765625
96.1910843,1.25
96.2075152,1.23046875
96.2523196,1.2255859375
96.2525938,1.2109375
96.2685877,1.201171875
96.303999,1.181640625
96.3081397,1.1767578125
96.3417936,1.162109375
96.3747028,1.1474609375
96.374915,1.1376953125
96.3850578,1.123046875
96.4184418,1.123046875
96.4394263,1.11328125
96.4472211,1.11328125
96.4798865,1.103515625
96.5013424,1.0986328125
96.5077009,1.0888671875
96.5407493,1.0888671875
96.5617201,1.09375
96.5699319,1.1376953125
96.6041767,1.181640625
96.6102411,1.25
96.6282622,1.3134765625
96.6679279,1.357421875
96.6681237,1.3916015625
96.7127633,1.416015625
96.7130985,1.4404296875
96.7336599,1.4501953125
96.7677411,1.4599609375
96.7680147,1.4453125
96.8045469,1.4453125
96.8248173,1.4306640625
96.828796,1.4208984375
96.8618689,1.4013671875
96.8832811,1.38671875
96.8915117,1.3720703125
96.9322449,1.3623046875
96.9324554,1.3427734375
96.9464228,1.3427734375
96.9813048,1.3330078125
97.0141927,1.3232421875
97.0144053,1.30859375
97.0299522,1.2890625
97.0685743,1.2744140625
97.0687957,1.2548828125
97.1101524,1.2451171875
97.1105018,1.2255859375
97.1304994,1.220703125
97.1486516,1.2109375
97.1851351,1.2060546875
97.2158106,1.19140625
97.2160458,1.1865234375
97.2306674,1.1767578125
97.2769345,1.1669921875
97.2772675,1.1572265625
97.2969365,1.142578125
97.3075657,1.1376953125
97.3553952,1.1328125
97.3556763,1.1376953125
97.3868853,1.142578125
97.3921804,1.1767578125
97.4107447,1.2158203125
97.4480982,1.2744140625
97.4526053,1.318359375
97.4931439,1.3720703125
97.4936812,1.4013671875
97.5079143,1.4404296875
97.5421997,1.46484375
97.5646619,1.484375
97.5707972,1.4892578125
97.6064692,1.4990234375
97.6107869,1.4990234375
97.6498261,1.484375
97.6682369,1.4599609375
97.6686283,1.435546875
97.7017485,1.4208984375
97.7234692,1.396484375
97.7313844,1.3818359375
97.7500991,1.3623046875
97.7851841,1.3427734375
97.8200714,1.3232421875
97.8202643,1.3037109375
97.8282761,1.2841796875
97.8654071,1.279296875
97.870751,1.2646484375
97.9059047,1.25
97.9107454,1.2353515625
97.9463471,1.2158203125
97.9506069,1.201171875
97.9865819,1.181640625
97.9907712,1.1767578125
98.0237434,1.162109375
98.0277907,1.1572265625
98.0621099,1.15234375
98.0821248,1.142578125
98.0905528,1.1328125
98.1266748,1.1328125
98.1295715,1.1181640625
98.1623475,1.1083984375
98.1840146,1.0986328125
98.1926299,1.103515625
98.2091412,1.0693359375
98.2295488,1.103515625
98.2637827,1.1572265625
98.2846535,1.2109375
98.2904692,1.279296875
98.3245956,1.328125
98.345032,1.3720703125
98.3521191,1.40625
98.3876107,1.435546875
98.422416,1.455078125
98.4226612,1.474609375
98.4305382,1.4794921875
98.4674494,1.4794921875
98.4715871,1.4697265625
98.5062361,1.4599609375
98.525962,1.4306640625
98.5312179,1.4111328125
98.5665573,1.38671875
98.5915889,1.357421875
98.5918723,1.3427734375
98.6368813,1.3232421875
98.6373246,1.3037109375
98.6512946,1.2841796875
98.6851751,1.2646484375
98.7058166,1.2451171875
98.7126518,1.23046875
98.7463962,1.2109375
98.7510534,1.201171875
98.7916126,1.1865234375
98.7919634,1.1767578125
98.8252183,1.162109375
98.8454245,1.15234375
98.853369,1.1376953125
98.8720457,1.1328125
98.907078,1.1328125
98.931237,1.1181640625
98.9314891,1.1181640625
98.9684717,1.1083984375
98.9688137,1.103515625
99.0070338,1.0986328125
99.0292926,1.09375
99.0334812,1.083984375
99.0537644,1.083984375
99.0740117,1.083984375
99.1089096,1.0888671875
99.1093192,1.1376953125
99.1435316,1.2109375
99.1798017,1.2744140625
99.1800631,1.328125
99.1931433,1.3720703125
99.2403021,1.4013671875
99.2405015,1.42578125
99.2533875,1.435546875
99.2877085,1.4453125
99.3082091,1.4404296875
99.3100464,1.4404296875
99.3435909,1.42578125
99.3649249,1.40625
99.3722085,1.376953125
99.4082827,1.3623046875
99.4421182,1.337890625
99.4426186,1.318359375
99.4495325,1.298828125
99.4904587,1.2890625
99.4906782,1.2744140625
99.5203336,1.26953125
99.5304538,1.2548828125
99.5641325,1.2353515625
99.5846134,1.2255859375
99.5929481,1.2060546875
99.62686,1.19140625
99.6614483,1.1767578125
99.6617722,1.171875
99.6714622,1.1669921875
99.7091527,1.162109375
99.7290703,1.15234375
99.7309987,1.1474609375
99.7654343,1.1328125
99.7843026,1.1328125
99.7883395,1.123046875
99.8206578,1.1181640625
99.8420048,1.123046875
99.8505946,1.1083984375
99.8846483,1.0986328125
99.9053214,1.0888671875
99.9124692,1.0888671875
99.9465568,1.09375
99.9663161,1.1279296875
99.9722955,1.1767578125
100.0042852,1.2353515625
100.0257663,1.279296875
100.0320221,1.337890625
100.0722004,1.3720703125
100.1015922,1.4013671875
100.101795,1.4111328125
100.1123268,1.4306640625
100.1471359,1.42578125
100.168199,1.4306640625
100.1746897,1.42578125
100.1928267,1.4013671875
100.212684,1.3818359375
100.2485494,1.3623046875
100.2526492,1.3427734375
100.2882368,1.328125
100.3093407,1.318359375
100.3135421,1.3037109375
100.3501224,1.2890625
100.3816357,1.26953125
100.3818799,1.259765625
100.3924707,1.25
100.4292831,1.240234375
100.4343797,1.2255859375
100.4697359,1.2109375
100.4735854,1.2060546875
100.5076812,1.19140625
100.5287721,1.1767578125
100.5293824,1.1669921875
100.5670655,1.171875
100.5732146,1.162109375
100.6172925,1.1572265625
100.6176067,1.1474609375
100.6324543,1.1474609375
100.666483,1.1376953125
100.6884404,1.1328125
100.6886948,1.1181640625
100.7260459,1.1279296875
100.7481051,1.1181640625
100.753426,1.123046875
100.7752718,1.1279296875
100.7935434,1.162109375
100.8326179,1.2158203125
100.8330253,1.2646484375
100.8811949,1.318359375
100.8814062,1.3623046875
100.9107205,1.4013671875
100.9109423,1.435546875
100.9434476,1.474609375
100.9642708,1.494140625
100.9750944,1.50390625
101.0131713,1.5087890625
101.0135113,1.50390625
101.0668962,1.484375
101.0670937,1.4697265625
101.0714004,1.4453125
101.1129332,1.42578125
101.1133235,1.4111328125
101.1329575,1.3916015625
101.167669,1.3720703125
101.1902314,1.357421875
101.1943806,1.3427734375
101.2369809,1.3232421875
101.2373321,1.3037109375
101.252271,1.279296875
101.2856614,1.26953125
101.3071581,1.2548828125
101.3151546,1.2451171875
101.3359944,1.2255859375
101.3568303,1.2109375
101.3754311,1.1962890625
101.4244327,1.1767578125
101.424833,1.162109375
101.4305353,1.1669921875
101.4664828,1.162109375
101.4867495,1.15234375
101.4941886,1.1474609375
101.5290078,1.1328125
101.5502113,1.1279296875
101.5551767,1.1181640625
101.5951995,1.1181640625
101.5954392,1.103515625
101.6156223,1.07421875
101.6491867,1.064453125
