Time,PPG_Signal
0.4301737,1.26953125
0.4643912,1.298828125
0.4700902,1.2939453125
0.5051383,1.3330078125
0.5271675,1.3623046875
0.5317196,1.3916015625
0.5676832,1.4013671875
0.5717673,1.416015625
0.6191934,1.416015625
0.6195551,1.4111328125
0.6394321,1.4013671875
0.6497321,1.396484375
0.6837184,1.376953125
0.7134309,1.376953125
0.7137716,1.3720703125
0.7456666,1.3671875
0.7654257,1.357421875
0.7755359,1.34765625
0.8224602,1.337890625
0.8227304,1.328125
0.8311356,1.328125
0.8693757,1.318359375
0.8999022,1.30859375
0.9002437,1.298828125
0.9118563,1.2890625
0.948425,1.2744140625
0.9691977,1.26953125
0.9695436,1.2646484375
1.0096408,1.2841796875
1.0111873,1.318359375
1.0462858,1.3427734375
1.0524259,1.3671875
1.0866168,1.3818359375
1.1187692,1.4013671875
1.1190336,1.40625
1.1346459,1.4111328125
1.1515998,1.4013671875
1.1948426,1.4013671875
1.1951174,1.38671875
1.2129809,1.3818359375
1.2502262,1.3720703125
1.2505262,1.3623046875
1.286511,1.3525390625
1.3080971,1.3427734375
1.3158712,1.3330078125
1.3346704,1.3037109375
1.3559005,1.2841796875
1.3728933,1.259765625
1.3927231,1.2744140625
1.4296534,1.2744140625
1.4342645,1.279296875
1.4531756,1.26953125
1.4891614,1.26953125
1.5187579,1.259765625
1.5189557,1.2548828125
1.5307688,1.2548828125
1.563063,1.2744140625
1.582472,1.298828125
1.5935703,1.3330078125
1.6308005,1.34765625
1.6356869,1.3623046875
1.6553222,1.376953125
1.6904961,1.3720703125
1.6944852,1.3720703125
1.7363865,1.3623046875
1.7366628,1.3671875
1.751597,1.3623046875
1.7850726,1.3525390625
1.8073925,1.337890625
1.8150391,1.3330078125
1.8509726,1.3232421875
1.8552367,1.318359375
1.8714257,1.30859375
1.9230982,1.3037109375
1.9234977,1.298828125
1.9338241,1.2939453125
1.9715149,1.279296875
1.9718863,1.2744140625
2.0152981,1.26953125
2.0161793,1.2548828125
2.047094,1.2451171875
2.0524178,1.23046875
2.0915991,1.23046875
2.0920055,1.2255859375
2.1114836,1.2353515625
2.1456391,1.25
2.1649673,1.2744140625
2.1759095,1.2939453125
2.2098645,1.3134765625
2.2141182,1.3232421875
2.245688,1.337890625
2.2670964,1.337890625
2.2713679,1.34765625
2.3062748,1.3525390625
2.3371452,1.3427734375
2.3375057,1.328125
2.3548371,1.3134765625
2.3999815,1.30859375
2.4003342,1.2939453125
2.4225723,1.2841796875
2.4321272,1.26953125
2.4682066,1.2744140625
2.4925385,1.26953125
2.4927421,1.2646484375
2.537683,1.2548828125
2.537948,1.25
2.5578929,1.2353515625
2.5917004,1.23046875
2.5919011,1.2109375
2.6306871,1.220703125
2.6508397,1.2158203125
2.6525735,1.2060546875
2.685294,1.201171875
2.7065202,1.201171875
2.7150056,1.2158203125
2.7491413,1.2353515625
2.7691298,1.2646484375
2.7721793,1.2841796875
2.8062091,1.3037109375
2.8261528,1.318359375
2.8342322,1.3232421875
2.871105,1.318359375
2.8743327,1.3134765625
2.9111628,1.3037109375
2.9395754,1.2890625
2.9397744,1.279296875
2.9518024,1.2646484375
2.9856383,1.26953125
3.0049825,1.259765625
3.0127096,1.259765625
3.0482153,1.2548828125
3.0677182,1.25
3.0761284,1.2353515625
3.1118774,1.23046875
3.13775,1.2158203125
3.1379915,1.2158203125
3.1559788,1.2060546875
3.1996738,1.2060546875
3.1998751,1.201171875
3.2128904,1.1962890625
3.245413,1.1865234375
3.2674336,1.1962890625
3.27525,1.2060546875
3.3102988,1.220703125
3.3305183,1.25
3.3323895,1.26953125
3.3658607,1.2939453125
3.3860125,1.3037109375
3.3950463,1.3134765625
3.4295411,1.30859375
3.4521926,1.298828125
3.4565895,1.2890625
3.4970522,1.2744140625
3.4972581,1.259765625
3.5143691,1.259765625
3.5599056,1.2548828125
3.5601665,1.25
3.5796487,1.2548828125
3.594746,1.2451171875
3.6370453,1.2353515625
3.6373382,1.2255859375
3.6570649,1.220703125
3.6744635,1.2109375
3.7097415,1.2109375
3.7138386,1.201171875
3.7479847,1.1962890625
3.7769547,1.19140625
3.7771527,1.19140625
3.8096095,1.19140625
3.8318941,1.201171875
3.8364653,1.2109375
3.8578864,1.2451171875
3.8761061,1.240234375
3.9130772,1.2841796875
3.9134123,1.30859375
3.9478008,1.318359375
3.9701545,1.328125
3.9764474,1.3232421875
4.0125431,1.3232421875
4.018935,1.30859375
4.063253,1.298828125
4.063895,1.2841796875
4.0736214,1.279296875
4.1102169,1.26953125
4.140541,1.2646484375
4.1409987,1.2548828125
4.1570672,1.25
4.2033461,1.240234375
4.2036791,1.2353515625
4.2183017,1.23046875
4.2353537,1.220703125
4.2544242,1.220703125
4.2893463,1.220703125
4.3096293,1.2158203125
4.3156164,1.2060546875
4.3507584,1.201171875
4.3710155,1.1865234375
4.3772295,1.1865234375
4.3944314,1.19140625
4.4371536,1.2158203125
4.4378446,1.240234375
4.4686169,1.26953125
4.475977,1.2890625
4.5106168,1.298828125
4.5298629,1.3037109375
4.5371513,1.3134765625
4.5714375,1.30859375
4.5906627,1.2939453125
4.5951454,1.2890625
4.6410183,1.279296875
4.6413061,1.26953125
4.6560619,1.259765625
4.6992946,1.25
4.6994441,1.240234375
4.7216701,1.2353515625
4.7387732,1.2255859375
4.7747183,1.1962890625
4.7750376,1.1962890625
4.8096775,1.2109375
4.8311118,1.2060546875
4.8350984,1.2060546875
4.8712456,1.2060546875
4.8936513,1.1962890625
4.8983395,1.19140625
4.932379,1.1767578125
4.9524658,1.1767578125
4.9544432,1.171875
4.9905353,1.19140625
5.0242356,1.2109375
5.0245836,1.240234375
5.0375606,1.259765625
5.0723059,1.2841796875
5.092415,1.2890625
5.0988016,1.298828125
5.1138706,1.2939453125
5.1463566,1.298828125
5.1686294,1.2890625
5.1770713,1.2890625
5.2275395,1.279296875
5.2277765,1.2646484375
5.2397698,1.2548828125
5.2588298,1.240234375
5.2797424,1.2353515625
5.2948079,1.23046875
5.3313944,1.2353515625
5.3660496,1.23046875
5.3663613,1.2255859375
5.3768046,1.2255859375
5.4131424,1.2158203125
5.4409935,1.2060546875
5.4412373,1.1962890625
5.4564681,1.1865234375
5.4751328,1.1865234375
5.5099894,1.1865234375
5.5301361,1.1767578125
5.5386461,1.1865234375
5.5783415,1.201171875
5.5786616,1.23046875
5.6117364,1.2548828125
5.6346402,1.2744140625
5.6416183,1.2841796875
5.6856732,1.2939453125
5.6859461,1.2890625
5.7010663,1.298828125
5.7470386,1.2890625
5.7472945,1.279296875
5.7575253,1.2646484375
5.7928117,1.25
5.8139393,1.2353515625
5.820562,1.2451171875
5.8398434,1.2451171875
5.8564567,1.2353515625
5.9011368,1.240234375
5.9015508,1.2353515625
5.9223761,1.240234375
5.9371994,1.2353515625
5.9726289,1.23046875
5.9932008,1.2255859375
6.0004905,1.2109375
6.0186142,1.201171875
6.0367466,1.201171875
6.0720994,1.1962890625
6.0762795,1.1962890625
6.0986897,1.19140625
6.1312554,1.201171875
6.1524608,1.2255859375
6.1598949,1.2451171875
6.1814133,1.2646484375
6.1969051,1.2841796875
6.242533,1.3037109375
6.2427332,1.30859375
6.2578297,1.30859375
6.3056087,1.3037109375
6.3058095,1.2939453125
6.3376244,1.279296875
6.3394923,1.26953125
6.3722263,1.2548828125
6.3763059,1.2548828125
6.4084135,1.2548828125
6.4325136,1.25
6.4400481,1.2451171875
6.4791074,1.25
6.4834363,1.2451171875
6.5015709,1.2353515625
6.5358246,1.2255859375
6.5408665,1.2109375
6.5778829,1.201171875
6.5782901,1.19140625
6.612509,1.1962890625
6.6374859,1.19140625
6.6377816,1.1865234375
6.682773,1.181640625
6.6831086,1.19140625
6.7300694,1.2109375
6.7304161,1.2353515625
6.7378385,1.2548828125
6.7761565,1.279296875
6.7763786,1.298828125
6.8215245,1.3037109375
6.8218587,1.30859375
6.8411162,1.3037109375
6.8730584,1.3037109375
6.8972632,1.2890625
6.899679,1.279296875
6.9171515,1.2646484375
6.9602977,1.2646484375
6.9605591,1.259765625
6.9904168,1.2548828125
6.9995481,1.25
7.0348231,1.25
7.0388628,1.2353515625
7.0724973,1.23046875
7.1010034,1.2158203125
7.1016097,1.23046875
7.1177247,1.23046875
7.1516014,1.220703125
7.1714671,1.2109375
7.178882,1.201171875
7.2243744,1.1962890625
7.2247428,1.19140625
7.2393229,1.201171875
7.2874118,1.2158203125
7.2877027,1.220703125
7.2976379,1.2255859375
7.332219,1.2646484375
7.3532869,1.2841796875
7.3600963,1.30859375
7.3956266,1.3134765625
7.4000542,1.3134765625
7.4330089,1.3134765625
7.4527131,1.298828125
7.4632136,1.2890625
7.4787058,1.279296875
7.5190883,1.279296875
7.5194314,1.2744140625
7.568872,1.2744140625
7.5692049,1.259765625
7.5968166,1.2548828125
7.6009278,1.2451171875
7.6358518,1.2451171875
7.6578931,1.23046875
7.6582736,1.23046875
7.7068593,1.2255859375
7.7072397,1.220703125
7.7263351,1.2060546875
7.7403666,1.2109375
7.7872704,1.201171875
7.7876901,1.1962890625
7.805439,1.19140625
7.8179338,1.201171875
7.8516512,1.23046875
7.8734785,1.2646484375
7.8842063,1.2939453125
7.9009703,1.318359375
7.9511306,1.337890625
7.9514591,1.3427734375
7.9622052,1.34765625
7.977819,1.3427734375
8.0124466,1.3427734375
8.032934,1.3330078125
8.040043,1.318359375
8.0776154,1.3134765625
8.082551,1.298828125
8.1004436,1.2939453125
8.141565,1.2841796875
8.1421471,1.2841796875
8.1712506,1.26953125
8.1835824,1.2451171875
8.1995726,1.2353515625
8.2496197,1.240234375
8.2499173,1.2353515625
8.2597437,1.23046875
8.2949955,1.220703125
8.326755,1.2158203125
8.3271069,1.2060546875
8.3426069,1.201171875
8.3610717,1.1865234375
8.4050118,1.201171875
8.4052206,1.2158203125
8.4206651,1.2255859375
8.455194,1.25
8.4760784,1.2744140625
8.480192,1.2939453125
8.5133723,1.3037109375
8.5353239,1.318359375
8.5401682,1.3232421875
8.5740901,1.3330078125
8.5801052,1.328125
8.6175857,1.3232421875
8.6399967,1.30859375
8.6403669,1.2939453125
8.6794102,1.2841796875
8.6837355,1.2744140625
8.7048121,1.26953125
8.7210428,1.2548828125
8.7406267,1.2548828125
8.7748871,1.2451171875
8.7970403,1.2451171875
8.8024751,1.240234375
8.8238532,1.23046875
8.842643,1.2158203125
8.8825044,1.2060546875
8.8828407,1.1962890625
8.901956,1.201171875
8.9204832,1.1962890625
8.9418488,1.1962890625
8.978285,1.1865234375
8.9802686,1.19140625
9.0131471,1.1962890625
9.0351162,1.220703125
9.042365,1.25
9.0764065,1.26953125
9.0982025,1.2890625
9.1007981,1.2939453125
9.1331951,1.30859375
9.1544991,1.30859375
9.1623151,1.3134765625
9.1833382,1.30859375
9.2234847,1.298828125
9.2237966,1.279296875
9.2450871,1.2744140625
9.2613301,1.259765625
9.2828454,1.2646484375
9.300651,1.259765625
9.3382721,1.259765625
9.3430785,1.2548828125
9.3773477,1.2451171875
9.3836181,1.240234375
9.4037542,1.2353515625
9.4510696,1.2353515625
9.4513644,1.2255859375
9.4610454,1.23046875
9.5124658,1.2158203125
9.512755,1.2109375
9.5230488,1.201171875
9.5425942,1.201171875
9.589977,1.19140625
9.5902122,1.1962890625
9.6242657,1.2109375
9.6286107,1.240234375
9.641567,1.2646484375
9.6621477,1.2890625
9.6976627,1.30859375
9.7020313,1.318359375
9.7354724,1.318359375
9.7554986,1.30859375
9.7621364,1.298828125
9.7951876,1.2841796875
9.7992386,1.279296875
9.8431019,1.2744140625
9.8434467,1.2646484375
9.8732258,1.259765625
9.8812426,1.2548828125
9.914733,1.25
9.9367027,1.2548828125
9.9450949,1.2548828125
9.981838,1.2451171875
9.9865127,1.2451171875
10.0017731,1.23046875
10.0426499,1.2353515625
10.0428532,1.2255859375
10.0770397,1.23046875
10.1055916,1.220703125
10.1058073,1.2158203125
10.124485,1.201171875
10.1598979,1.201171875
10.1605294,1.2060546875
10.1816433,1.240234375
10.2275203,1.259765625
10.2279717,1.2939453125
10.2480481,1.30859375
10.2682677,1.3232421875
10.2855865,1.328125
10.3041839,1.337890625
10.3250938,1.337890625
10.340889,1.328125
10.3754207,1.3232421875
10.3976532,1.30859375
10.4032208,1.298828125
10.4445188,1.2890625
10.4447925,1.2890625
10.4771406,1.2841796875
10.4971851,1.2841796875
10.5007741,1.2744140625
10.5414618,1.279296875
10.5417192,1.2744140625
10.5868966,1.2744140625
10.5870964,1.2646484375
10.6071528,1.259765625
10.6414027,1.25
10.6470949,1.2353515625
10.6656523,1.2255859375
10.6864958,1.2158203125
10.7060574,1.19140625
10.7241055,1.1767578125
10.7599584,1.2158203125
10.7618988,1.25
10.8038335,1.2841796875
10.8041718,1.3037109375
10.8235941,1.3232421875
10.8581864,1.3330078125
10.8775607,1.337890625
10.8817636,1.337890625
10.9148535,1.337890625
10.9345091,1.328125
10.944393,1.3330078125
10.9913556,1.328125
10.9915534,1.318359375
11.0048936,1.3134765625
11.040685,1.30859375
11.0611874,1.3037109375
11.0615143,1.2939453125
11.1018209,1.298828125
11.1021438,1.2890625
11.1378546,1.2841796875
11.160529,1.26953125
11.1712976,1.259765625
11.1852562,1.25
11.2197206,1.240234375
11.239322,1.2255859375
11.2425823,1.2255859375
11.2774263,1.23046875
11.2817751,1.2353515625
11.3151249,1.259765625
11.3366546,1.279296875
11.345471,1.30859375
11.3804694,1.3330078125
11.4021304,1.3525390625
11.4024762,1.3671875
11.4407076,1.38671875
11.4428797,1.3916015625
11.4862773,1.396484375
11.4864761,1.38671875
11.5060864,1.3818359375
11.5386322,1.3623046875
11.560737,1.3525390625
11.5673849,1.337890625
11.5859322,1.30859375
11.6210529,1.30859375
11.6417579,1.298828125
11.6436157,1.298828125
11.6774159,1.2939453125
11.6973545,1.2890625
11.7060758,1.279296875
11.754496,1.279296875
11.7548523,1.2646484375
11.7741057,1.2548828125
11.7829294,1.2451171875
11.8178382,1.240234375
11.8458882,1.2353515625
11.8464627,1.2451171875
11.8794876,1.2548828125
11.9003728,1.2841796875
11.904519,1.3134765625
11.9454836,1.337890625
11.963959,1.357421875
11.9642883,1.376953125
11.9836752,1.40625
12.0041476,1.416015625
12.0438644,1.42578125
12.044061,1.416015625
12.064047,1.40625
12.0989736,1.38671875
12.119586,1.3720703125
12.1213924,1.3525390625
12.1678584,1.3525390625
12.1686019,1.34765625
12.1874561,1.3427734375
12.2061858,1.328125
12.2438954,1.328125
12.2459381,1.3134765625
12.2896178,1.3037109375
12.2898913,1.2890625
12.3101051,1.279296875
12.3244999,1.2744140625
12.3597264,1.2646484375
12.3638282,1.2548828125
12.3968036,1.25
12.4183881,1.2451171875
12.4255785,1.240234375
12.4619585,1.2548828125
12.4929667,1.2744140625
12.4931684,1.3037109375
12.5049976,1.3232421875
12.5404835,1.3525390625
12.5454877,1.376953125
12.5646018,1.3818359375
12.600442,1.3916015625
12.6215611,1.38671875
12.6292158,1.3818359375
12.6469953,1.3623046875
12.6854142,1.34765625
12.6856559,1.328125
12.7057274,1.3232421875
12.739314,1.3134765625
12.7613422,1.3134765625
12.765656,1.3037109375
12.8100758,1.2939453125
12.8104095,1.2841796875
12.8397758,1.279296875
12.8491836,1.26953125
12.8637234,1.26953125
12.9036184,1.2646484375
12.9206059,1.25
12.9248068,1.2451171875
12.9592952,1.2353515625
12.9827319,1.220703125
12.9867296,1.2109375
13.0240487,1.2109375
13.0243452,1.2060546875
13.0608578,1.23046875
13.0818091,1.2548828125
13.0863586,1.2841796875
13.1298938,1.3037109375
13.1300923,1.328125
13.1478118,1.337890625
13.1675281,1.34765625
13.2052732,1.3525390625
13.2058965,1.34765625
13.2307513,1.3427734375
13.2471037,1.298828125
13.2654434,1.298828125
13.3006462,1.2939453125
13.3054163,1.2939453125
13.3388332,1.2890625
13.3602142,1.2841796875
13.3664328,1.2744140625
13.4019347,1.2744140625
13.4235595,1.2646484375
13.4238737,1.2646484375
13.4581706,1.259765625
13.4926493,1.2548828125
13.4928513,1.240234375
13.5081731,1.240234375
13.5553151,1.2353515625
13.5555255,1.220703125
13.570168,1.2109375
13.5847232,1.19140625
13.6188235,1.1962890625
13.6398605,1.2060546875
13.647018,1.2353515625
13.6811569,1.259765625
13.7015749,1.2890625
13.7077632,1.3037109375
13.7415827,1.318359375
13.763647,1.3232421875
13.7640051,1.337890625
13.7976443,1.337890625
13.8183422,1.337890625
13.8276911,1.3330078125
13.8619809,1.318359375
13.8846638,1.3037109375
13.8867805,1.2939453125
13.9221877,1.2841796875
13.9452589,1.2744140625
13.9457594,1.2744140625
13.9956345,1.26953125
13.9959187,1.26953125
14.0104721,1.259765625
14.0299239,1.2646484375
14.048654,1.2548828125
14.0861952,1.25
14.0889044,1.240234375
14.1103282,1.2109375
14.1252993,1.181640625
14.162531,1.201171875
14.1896594,1.2109375
14.1898574,1.2158203125
14.22524,1.240234375
14.2357479,1.2646484375
14.2493745,1.2939453125
14.2977601,1.30859375
14.2980979,1.328125
14.3277488,1.337890625
14.3279735,1.3525390625
14.347374,1.357421875
14.3746218,1.3525390625
14.389032,1.337890625
14.4231559,1.3330078125
14.4271573,1.318359375
14.4708728,1.3037109375
14.4711188,1.298828125
14.5001464,1.2841796875
14.5064463,1.2841796875
14.5297365,1.279296875
14.548475,1.2841796875
14.5838767,1.2744140625
14.5891214,1.26953125
14.6208331,1.2548828125
14.6428362,1.2451171875
14.6471725,1.2255859375
14.6807098,1.2255859375
14.6866931,1.2158203125
14.7300681,1.2109375
14.73042,1.2060546875
14.7515818,1.2158203125
14.7679453,1.23046875
14.8019261,1.2646484375
14.8253807,1.2890625
14.8256982,1.30859375
14.858455,1.337890625
14.8882883,1.357421875
14.888489,1.3720703125
14.9240637,1.376953125
14.927327,1.376953125
14.9646722,1.3623046875
14.9941326,1.3525390625
14.9943378,1.337890625
15.0258789,1.328125
15.0568551,1.3134765625
15.0571995,1.3232421875
15.0672786,1.3232421875
15.1027183,1.318359375
15.1224424,1.318359375
15.128526,1.3037109375
15.161622,1.2939453125
15.1822467,1.279296875
15.1901428,1.26953125
15.2068767,1.2548828125
15.2408327,1.25
15.2619221,1.240234375
15.2682109,1.2353515625
15.3004776,1.2255859375
15.3210827,1.2255859375
15.3289072,1.2353515625
15.3634233,1.2548828125
15.3843977,1.279296875
15.3863798,1.3134765625
15.420659,1.3330078125
15.4426266,1.357421875
15.4495509,1.3720703125
15.483974,1.376953125
15.4879406,1.376953125
15.5327578,1.3671875
15.5329583,1.357421875
15.5517481,1.3427734375
15.5687039,1.3427734375
15.603618,1.337890625
15.6080388,1.3330078125
15.6433176,1.328125
15.6627398,1.3232421875
15.6695186,1.3134765625
15.7123289,1.30859375
15.7125775,1.298828125
15.7317499,1.2939453125
15.7481094,1.2890625
15.7823648,1.2744140625
15.8022757,1.2646484375
15.8094538,1.2548828125
15.8436996,1.2451171875
15.8763163,1.2255859375
15.8766762,1.220703125
15.8910603,1.2109375
15.926794,1.2158203125
15.955952,1.220703125
15.9563476,1.2548828125
15.9691175,1.2841796875
16.0034323,1.30859375
16.0258611,1.3232421875
16.0309,1.337890625
16.0672475,1.3427734375
16.0701321,1.357421875
16.1130155,1.3671875
16.1132203,1.3525390625
16.142858,1.3525390625
16.1496982,1.337890625
16.18999,1.328125
16.1902032,1.3134765625
16.2331499,1.30859375
16.2334534,1.298828125
16.263156,1.2890625
16.2732684,1.279296875
16.289535,1.279296875
16.3267743,1.26953125
16.3305378,1.2646484375
16.3666567,1.2548828125
16.3686587,1.25
16.4040068,1.2451171875
16.4243584,1.2353515625
16.4328547,1.220703125
16.4476016,1.2060546875
16.4834138,1.2109375
16.4882152,1.201171875
16.5229829,1.2109375
16.5443073,1.2158203125
16.5493816,1.240234375
16.5929985,1.259765625
16.5932676,1.2890625
16.609587,1.2939453125
16.6534066,1.3134765625
16.6536092,1.318359375
16.6687566,1.3232421875
16.7182714,1.3134765625
16.718604,1.3037109375
16.7476597,1.2890625
16.7497223,1.26953125
16.7832885,1.259765625
16.8028873,1.25
16.8123149,1.2451171875
16.8272943,1.2353515625
16.8616282,1.2353515625
16.8807227,1.2353515625
16.8911692,1.2255859375
16.9311871,1.220703125
16.9315178,1.2109375
16.9646418,1.201171875
16.9848575,1.19140625
16.9868931,1.181640625
17.0224609,1.1767578125
17.054697,1.1767578125
17.0549033,1.1669921875
17.0715323,1.1669921875
17.106768,1.1669921875
17.1114956,1.1865234375
17.1468864,1.2109375
17.1654201,1.2353515625
17.167933,1.2548828125
17.2028444,1.279296875
17.2364435,1.2890625
17.2366416,1.3037109375
17.2508698,1.3037109375
17.2964853,1.3037109375
17.297144,1.2939453125
17.3185159,1.2841796875
17.3284706,1.2646484375
17.3649628,1.26953125
17.3887787,1.2646484375
17.3891214,1.259765625
17.4241618,1.2548828125
17.4459026,1.25
17.4539661,1.2451171875
17.4905012,1.2353515625
17.49078,1.2353515625
17.5145887,1.220703125
17.5342591,1.1865234375
17.549191,1.1572265625
17.5875587,1.1669921875
17.5923625,1.171875
17.6279974,1.1767578125
17.6308497,1.171875
17.6683513,1.1767578125
17.6878029,1.1767578125
17.6927322,1.181640625
17.7339228,1.1962890625
17.7341829,1.2158203125
17.7658183,1.2451171875
17.7720356,1.2646484375
17.7918389,1.2841796875
17.829828,1.2890625
17.8302316,1.298828125
17.8653668,1.2939453125
17.8860034,1.298828125
17.887941,1.2841796875
17.9222349,1.279296875
17.9514174,1.26953125
17.9517085,1.2646484375
17.9851512,1.2548828125
18.0047304,1.25
18.0111148,1.240234375
18.0444431,1.23046875
18.0654569,1.2255859375
18.0695602,1.2158203125
18.101537,1.2158203125
18.1228276,1.2158203125
18.1308258,1.220703125
18.164636,1.2158203125
18.1923842,1.2109375
18.1969348,1.201171875
18.2143102,1.1962890625
18.231162,1.1865234375
18.2529747,1.19140625
18.2952942,1.181640625
18.2954992,1.181640625
18.3128272,1.1962890625
18.3308512,1.2109375
18.3668241,1.23046875
18.3872234,1.25
18.3942243,1.2744140625
18.4399178,1.2841796875
18.4401168,1.2939453125
18.4522472,1.2939453125
18.4880841,1.30859375
18.4923996,1.3037109375
18.5323824,1.298828125
18.5325846,1.2841796875
18.580936,1.2744140625
18.5812679,1.259765625
18.612087,1.25
18.6123298,1.240234375
18.6322433,1.25
18.6694659,1.25
18.6712861,1.2451171875
18.7121351,1.2451171875
18.7303585,1.240234375
18.7355255,1.23046875
18.7765638,1.220703125
18.7770562,1.2109375
18.7903104,1.1962890625
18.8377888,1.1962890625
18.8380734,1.19140625
18.8528656,1.19140625
18.899448,1.1865234375
18.8997994,1.1865234375
18.9205256,1.1767578125
18.9353268,1.1767578125
18.9567495,1.1962890625
18.972932,1.2109375
18.9924322,1.240234375
19.0417227,1.2646484375
19.0421123,1.2841796875
19.0542157,1.2939453125
19.0896753,1.30859375
19.0944638,1.3037109375
19.1344925,1.3037109375
19.1349525,1.2939453125
19.1537231,1.298828125
19.1737416,1.2939453125
19.1930541,1.2890625
19.2421457,1.2744140625
19.2423579,1.26953125
19.2522308,1.259765625
19.285678,1.2548828125
19.3205019,1.25
19.3211804,1.240234375
19.337721,1.240234375
19.3539728,1.23046875
19.372612,1.23046875
19.4149604,1.2255859375
19.4153056,1.220703125
19.4454522,1.2109375
19.4563984,1.201171875
19.4772242,1.19140625
19.4962582,1.181640625
19.5139801,1.1767578125
19.5328674,1.1767578125
19.5546521,1.181640625
19.5725171,1.19140625
19.6143029,1.220703125
19.6146367,1.240234375
19.6357285,1.2646484375
19.6567989,1.2744140625
19.6908892,1.2890625
19.6910936,1.2939453125
19.7240107,1.3037109375
19.7454338,1.3037109375
19.7533145,1.298828125
19.8012601,1.2841796875
19.8016357,1.279296875
19.8143216,1.26953125
19.8609487,1.259765625
19.8613472,1.2451171875
19.8719316,1.25
19.9111608,1.2451171875
19.9399363,1.25
19.9401454,1.2451171875
19.952436,1.2353515625
19.9860843,1.23046875
20.017559,1.220703125
20.017767,1.2109375
20.0368245,1.1962890625
20.0547338,1.171875
20.0882338,1.142578125
20.1096189,1.1572265625
20.1150504,1.162109375
20.1493785,1.1669921875
20.1544256,1.171875
20.191365,1.1962890625
20.1954018,1.220703125
20.2303395,1.2548828125
20.2541573,1.2841796875
20.2545084,1.298828125
20.2755121,1.3232421875
20.2944584,1.337890625
20.3141458,1.3525390625
20.3477636,1.34765625
20.3699085,1.34765625
20.3777598,1.337890625
20.3963088,1.328125
20.4130206,1.3134765625
20.4557792,1.3134765625
20.4561166,1.3037109375
20.4758183,1.3037109375
20.518033,1.2939453125
20.5182947,1.2939453125
20.5514056,1.2841796875
20.5575819,1.2841796875
20.5782501,1.2744140625
20.5941255,1.259765625
20.6430967,1.2646484375
20.643307,1.2548828125
20.6559154,1.25
20.7056808,1.2353515625
20.7059929,1.23046875
20.7164888,1.220703125
20.7375921,1.2158203125
20.7534067,1.2060546875
20.7747183,1.2109375
20.7939343,1.2109375
20.8441817,1.23046875
20.8445191,1.25
20.8748891,1.2744140625
20.8752316,1.3037109375
20.9196478,1.3134765625
20.9199267,1.328125
20.9358369,1.328125
20.970474,1.30859375
20.9979456,1.30859375
20.9981483,1.3134765625
21.0158417,1.3037109375
21.0372924,1.2939453125
21.0560775,1.2841796875
21.09238,1.2841796875
21.0964995,1.2744140625
21.1353927,1.26953125
21.1357256,1.2646484375
21.1549585,1.26953125
21.1961059,1.2646484375
21.1963786,1.2744140625
21.2173509,1.2744140625
21.2499885,1.2646484375
21.271401,1.2646484375
21.2754855,1.25
21.3081887,1.2451171875
21.3296612,1.2353515625
21.3347919,1.2353515625
21.3702563,1.2353515625
21.4008688,1.2255859375
21.401082,1.220703125
21.4164665,1.2158203125
21.4651174,1.220703125
21.4655046,1.240234375
21.4750173,1.2548828125
21.4963821,1.2890625
21.5146109,1.3232421875
21.5514187,1.337890625
21.5555444,1.3525390625
21.5887686,1.3525390625
21.6217348,1.3623046875
21.6221808,1.3525390625
21.6374924,1.3427734375
21.6544977,1.328125
21.6902148,1.328125
21.7145816,1.3134765625
21.7147952,1.3134765625
21.7503305,1.3037109375
21.7722371,1.3037109375
21.7779113,1.2890625
21.7987761,1.2841796875
21.8384421,1.26953125
21.8386564,1.26953125
21.8601509,1.259765625
21.8751337,1.2451171875
21.9202509,1.240234375
21.9205228,1.2353515625
21.9420121,1.23046875
21.9576617,1.220703125
21.977466,1.2109375
22.0167892,1.1962890625
22.0360104,1.1865234375
22.0362114,1.181640625
22.0792649,1.19140625
22.0796395,1.2109375
22.0966473,1.2451171875
22.1412429,1.26953125
22.1414388,1.2939453125
22.1573676,1.3134765625
22.1892993,1.3134765625
22.2185546,1.318359375
22.2190761,1.3134765625
22.2329678,1.3232421875
22.2686265,1.318359375
22.2964955,1.30859375
22.2968149,1.2939453125
22.3333844,1.2841796875
22.3373469,1.2744140625
22.3695688,1.26953125
22.392994,1.2548828125
22.4006169,1.2548828125
22.4167074,1.25
22.4519655,1.25
22.4573465,1.2353515625
22.479744,1.2353515625
22.4979455,1.2255859375
22.5358871,1.2158203125
22.5362863,1.2060546875
22.5544626,1.1962890625
22.5934942,1.19140625
22.613834,1.1865234375
22.615646,1.181640625
22.6481225,1.171875
22.6695256,1.1767578125
22.6794305,1.19140625
22.7133549,1.2158203125
22.7324933,1.2353515625
22.7382352,1.2646484375
22.755065,1.279296875
22.7890194,1.3037109375
22.8107251,1.318359375
22.8186816,1.318359375
22.8544592,1.318359375
22.8564711,1.30859375
22.8908249,1.298828125
22.9233551,1.2841796875
22.9235547,1.2744140625
22.9351386,1.2646484375
22.96892,1.2646484375
23.0013312,1.259765625
23.0017431,1.259765625
23.0195302,1.25
23.0637702,1.2451171875
23.0641355,1.2353515625
23.0786683,1.23046875
23.0967696,1.2158203125
23.1321035,1.220703125
23.1362354,1.2158203125
23.1726543,1.2060546875
23.1920735,1.201171875
23.198099,1.19140625
23.2341111,1.1865234375
23.2537607,1.1767578125
23.2592737,1.181640625
23.2755366,1.1865234375
23.2958174,1.2158203125
23.340823,1.2451171875
23.341071,1.2744140625
23.360738,1.2939453125
23.3948703,1.3134765625
23.4046982,1.3232421875
23.4196585,1.3330078125
23.4584634,1.3427734375
23.45867,1.3330078125
23.4924296,1.3037109375
23.4964641,1.2744140625
23.5357838,1.2890625
23.5360929,1.2890625
23.571394,1.2890625
23.5959285,1.2890625
23.5981816,1.2939453125
23.6329983,1.2841796875
23.6538881,1.279296875
23.6557903,1.2646484375
23.689325,1.2646484375
23.7094083,1.259765625
23.7170274,1.2548828125
23.7502962,1.240234375
23.7718391,1.240234375
23.7794019,1.23046875
23.8001291,1.220703125
23.8353031,1.2158203125
23.8356547,1.201171875
23.8687041,1.201171875
23.8876897,1.1962890625
23.898051,1.1962890625
23.930591,1.2060546875
23.9515622,1.2255859375
23.9593923,1.25
23.995445,1.2744140625
23.9956443,1.2939453125
24.0294149,1.318359375
24.0599161,1.3330078125
24.060309,1.34765625
24.0931829,1.3525390625
24.1143288,1.3427734375
24.1181344,1.3330078125
24.1541773,1.318359375
24.1743701,1.30859375
24.1761363,1.2939453125
24.2106634,1.2939453125
24.2335413,1.2890625
24.2378511,1.2890625
24.2728662,1.2841796875
24.2933722,1.2841796875
24.3003825,1.279296875
24.3345363,1.279296875
24.3541104,1.26953125
24.3599724,1.2353515625
24.394245,1.23046875
24.4001498,1.2451171875
24.4187529,1.2451171875
24.4547741,1.240234375
24.4802158,1.2353515625
24.4805437,1.2255859375
24.5140742,1.2158203125
24.5214016,1.2060546875
24.5585957,1.2109375
24.5587883,1.220703125
24.5946061,1.2548828125
24.5988199,1.279296875
24.6344339,1.3037109375
24.6408572,1.318359375
24.6776714,1.337890625
24.6817853,1.3427734375
24.7286745,1.34765625
24.7288916,1.34765625
24.7375998,1.3330078125
24.7716026,1.328125
24.7924511,1.318359375
24.8009846,1.3134765625
24.8218778,1.30859375
24.83889,1.3037109375
24.8727397,1.2939453125
24.8920782,1.2890625
24.896032,1.279296875
24.9460276,1.279296875
24.9464935,1.2744140625
24.9667158,1.26953125
24.9806579,1.2646484375
25.0262895,1.2548828125
25.0266391,1.240234375
25.0419513,1.2353515625
25.063852,1.23046875
25.0793847,1.2158203125
25.1137396,1.2158203125
25.1179098,1.2060546875
25.1503528,1.201171875
25.1704806,1.1962890625
25.181113,1.2060546875
25.2264215,1.2158203125
25.2267524,1.240234375
25.2477467,1.259765625
25.2618903,1.2841796875
25.2791876,1.2939453125
25.314786,1.3232421875
25.3193051,1.328125
25.3538769,1.3330078125
25.3755899,1.337890625
25.3820111,1.328125
25.4169569,1.3134765625
25.4250385,1.298828125
25.4427523,1.2890625
25.4584416,1.279296875
25.4959743,1.279296875
25.5255966,1.2744140625
25.5259985,1.279296875
25.5401903,1.2744140625
25.586878,1.26953125
25.5872188,1.2548828125
25.6092833,1.25
25.6185033,1.240234375
25.6744298,1.240234375
25.6746361,1.23046875
25.6807182,1.23046875
25.7165461,1.2255859375
25.7210188,1.2060546875
25.7587135,1.2060546875
25.763027,1.19140625
25.7984132,1.19140625
25.7987516,1.1962890625
25.8315824,1.2255859375
25.8510499,1.2451171875
25.8618438,1.2744140625
25.8808395,1.2890625
25.9013945,1.30859375
25.9428968,1.318359375
25.9431268,1.3232421875
25.9629318,1.318359375
25.9774396,1.3134765625
26.0198304,1.30859375
26.0201303,1.2646484375
26.0399022,1.26953125
26.0743499,1.2646484375
26.1088173,1.2744140625
26.113624,1.26953125
26.1235824,1.26953125
26.1436938,1.259765625
26.1787196,1.2548828125
26.1790127,1.240234375
26.2201718,1.240234375
26.2204556,1.23046875
26.2509274,1.23046875
26.2616654,1.220703125
26.2993593,1.2158203125
26.3012102,1.201171875
26.3447929,1.201171875
26.3451256,1.201171875
26.3744094,1.1962890625
26.3789383,1.2109375
26.4114086,1.2353515625
26.4314813,1.259765625
26.4418893,1.2841796875
26.4619881,1.30859375
26.4967715,1.3232421875
26.5171198,1.3330078125
26.5213246,1.337890625
26.5394847,1.3525390625
26.5763764,1.34765625
26.5963266,1.3427734375
26.6003118,1.3330078125
26.6328746,1.3232421875
26.6542632,1.3232421875
26.6631975,1.30859375
26.6980229,1.3037109375
26.719478,1.2939453125
26.7199001,1.298828125
26.7535337,1.2890625
26.7761295,1.2841796875
26.7815148,1.26953125
26.8154987,1.2646484375
26.8365176,1.2548828125
26.8429304,1.25
26.8745077,1.2353515625
26.8839869,1.2060546875
26.902902,1.181640625
26.9489565,1.1962890625
26.9491893,1.1962890625
26.9626183,1.2109375
27.0102547,1.2255859375
27.0105297,1.2451171875
27.0230114,1.279296875
27.0587441,1.3037109375
27.0900792,1.328125
27.0903912,1.34765625
27.1004568,1.3720703125
27.136025,1.3818359375
27.1431681,1.396484375
27.1774081,1.3916015625
27.1973894,1.38671875
27.2033687,1.3720703125
27.2374096,1.357421875
27.2604475,1.34765625
27.2606638,1.34765625
27.2989563,1.34765625
27.3046345,1.337890625
27.3229862,1.3330078125
27.3701269,1.3232421875
27.3704135,1.318359375
27.384685,1.30859375
27.4308589,1.298828125
27.4312375,1.2890625
27.4423675,1.2890625
27.460456,1.279296875
27.4949771,1.26953125
27.5149096,1.2548828125
27.5232462,1.25
27.5566407,1.2353515625
27.5779457,1.2353515625
27.5782479,1.2353515625
27.6233215,1.259765625
27.6235874,1.298828125
27.6428768,1.3232421875
27.6792631,1.357421875
27.6837537,1.3720703125
27.7321968,1.38671875
27.7324831,1.4013671875
27.7436365,1.4111328125
27.7652175,1.40625
27.8030798,1.3916015625
27.8033512,1.376953125
27.8371185,1.3720703125
27.8668116,1.3623046875
27.8670225,1.3623046875
27.883638,1.34765625
27.9285644,1.34765625
27.9287678,1.3427734375
27.9496314,1.3232421875
27.9651008,1.3134765625
27.9833712,1.2939453125
28.02256,1.2939453125
28.022902,1.279296875
28.0672702,1.26953125
28.0674845,1.2548828125
28.0836198,1.2451171875
28.116578,1.23046875
28.1382745,1.220703125
28.1424168,1.2060546875
28.1785104,1.2060546875
28.1803871,1.201171875
28.2126516,1.2060546875
28.2327655,1.220703125
28.2433246,1.25
28.2749178,1.279296875
28.3012322,1.298828125
28.3052658,1.3232421875
28.3200079,1.3427734375
28.3574414,1.3623046875
28.3778039,1.3818359375
28.3823101,1.4013671875
28.4241066,1.4013671875
28.4244985,1.3916015625
28.4443317,1.376953125
28.4650161,1.3671875
28.4813017,1.357421875
28.5168351,1.3623046875
28.5381859,1.3525390625
28.5431469,1.34765625
28.5800768,1.34765625
28.5848213,1.3330078125
28.6306955,1.328125
28.6312306,1.3134765625
28.6465783,1.30859375
28.6652159,1.2890625
28.705888,1.279296875
28.7060892,1.259765625
28.7236032,1.259765625
28.7424054,1.2451171875
28.7767284,1.2353515625
28.8016976,1.220703125
28.805729,1.2158203125
28.8491049,1.2060546875
28.8494291,1.2060546875
28.8616416,1.2109375
28.9091559,1.2548828125
28.9094184,1.2841796875
28.9296243,1.30859375
28.945445,1.328125
28.9869428,1.3427734375
28.9873022,1.3525390625
29.0279139,1.357421875
29.0281091,1.3525390625
29.0424564,1.3427734375
29.0891318,1.337890625
29.0893395,1.328125
29.1031307,1.3134765625
29.1386202,1.3037109375
29.1689213,1.3037109375
29.1691948,1.2939453125
29.1856379,1.2841796875
29.2202914,1.2841796875
29.2404171,1.2646484375
29.2421916,1.259765625
29.2790178,1.2548828125
29.301076,1.25
29.3029852,1.240234375
29.337101,1.23046875
29.3633373,1.2158203125
29.3635736,1.2060546875
29.3826901,1.19140625
29.4238057,1.19140625
29.4241495,1.1572265625
29.4442745,1.1669921875
29.4781985,1.1767578125
29.4983833,1.19140625
29.5042148,1.2109375
29.5412892,1.2451171875
29.5632313,1.2744140625
29.568729,1.2890625
29.5880814,1.30859375
29.6035792,1.318359375
29.6402915,1.3330078125
29.6652222,1.3330078125
29.6654335,1.328125
29.7014428,1.318359375
29.7055626,1.30859375
29.7394272,1.2939453125
29.7733727,1.2841796875
29.7735737,1.26953125
29.782638,1.279296875
29.8151413,1.26953125
29.8380423,1.2646484375
29.846335,1.259765625
29.8814901,1.25
29.8863446,1.240234375
29.9190636,1.23046875
29.9414307,1.23046875
29.9417906,1.2158203125
29.9848891,1.2109375
29.9852242,1.201171875
30.0050565,1.19140625
30.0381104,1.181640625
30.0582846,1.181640625
30.0653292,1.181640625
30.1015309,1.201171875
30.1253383,1.220703125
30.1256744,1.259765625
30.1617869,1.2890625
30.1620029,1.318359375
30.1992328,1.337890625
30.2200711,1.34765625
30.2260873,1.357421875
30.2601223,1.3525390625
30.2952178,1.3427734375
30.2955582,1.328125
30.3080689,1.298828125
30.3245337,1.2890625
30.371159,1.2939453125
30.3715099,1.2890625
30.3929711,1.2890625
30.4056569,1.2841796875
30.4390969,1.2890625
30.4648037,1.279296875
30.4668462,1.2744140625
30.5010943,1.26953125
30.5261873,1.2548828125
30.5265865,1.25
30.561965,1.240234375
30.5663065,1.240234375
30.6023559,1.2255859375
30.6372094,1.2158203125
30.6374284,1.201171875
30.647933,1.1962890625
30.6654496,1.19140625
30.7012784,1.2158203125
30.7063881,1.240234375
30.743788,1.2744140625
30.7439949,1.3037109375
30.7896156,1.328125
30.7898912,1.337890625
30.810449,1.3623046875
30.8453296,1.3720703125
30.8456753,1.3720703125
30.8835666,1.376953125
30.9048621,1.3720703125
30.9051958,1.3623046875
30.9442334,1.34765625
30.9766026,1.3427734375
30.9768556,1.3330078125
30.9877997,1.328125
31.004355,1.3134765625
31.0533776,1.30859375
31.0537885,1.298828125
31.0666755,1.2939453125
31.107785,1.2841796875
31.1080742,1.26953125
31.1527105,1.2646484375
31.1530134,1.2451171875
31.1684387,1.2353515625
31.2134548,1.2158203125
31.2138584,1.2060546875
31.2353571,1.1865234375
31.2463687,1.1865234375
31.2810459,1.1767578125
31.3008647,1.181640625
31.3057474,1.1865234375
31.3388493,1.220703125
31.3607309,1.2451171875
31.3687978,1.2744140625
31.3848142,1.2939453125
31.4214251,1.3232421875
31.4484679,1.337890625
31.4486898,1.3623046875
31.4926171,1.3720703125
31.4928449,1.3671875
31.507456,1.3623046875
31.5284496,1.34765625
31.5711118,1.3330078125
31.5715085,1.318359375
31.5854392,1.3232421875
31.6218202,1.318359375
31.6473483,1.3134765625
31.6476711,1.3037109375
31.6848072,1.2939453125
31.6891302,1.2744140625
31.7291477,1.2744140625
31.7294359,1.2548828125
31.7471759,1.25
31.7848321,1.2451171875
31.7851491,1.2255859375
31.8382648,1.2158203125
31.8384635,1.201171875
31.8491761,1.19140625
31.8985361,1.1767578125
31.8987525,1.1669921875
31.9045073,1.1572265625
31.944526,1.1669921875
31.9447991,1.1767578125
31.9922754,1.2109375
31.9924757,1.2353515625
32.0222297,1.2646484375
32.0285442,1.2890625
32.0628278,1.30859375
32.0855671,1.3134765625
32.0898894,1.328125
32.1238352,1.328125
32.1446563,1.318359375
32.1466045,1.318359375
32.190776,1.3037109375
32.1910146,1.298828125
32.2092671,1.2890625
32.244742,1.2841796875
32.2634417,1.2744140625
32.2683746,1.26953125
32.3035444,1.259765625
32.3055539,1.2548828125
32.3392931,1.2451171875
32.3621382,1.240234375
32.3664421,1.2255859375
32.4002349,1.2158203125
32.4225889,1.2060546875
32.4305792,1.1865234375
32.4523899,1.1767578125
32.4671322,1.171875
32.5159198,1.171875
32.5163283,1.171875
32.5280747,1.1669921875
32.5621036,1.1669921875
32.5844701,1.181640625
32.589557,1.201171875
32.6254616,1.2353515625
32.6553498,1.2548828125
32.6555483,1.2890625
32.6667894,1.3037109375
32.7041246,1.318359375
32.7335461,1.318359375
32.7337438,1.3232421875
32.7476415,1.3134765625
32.7815892,1.298828125
32.8109225,1.2890625
32.8112639,1.2744140625
32.8331083,1.2451171875
32.8493491,1.220703125
32.8674465,1.240234375
32.9047991,1.240234375
32.9089669,1.2451171875
32.949707,1.2451171875
32.949913,1.240234375
32.9852289,1.2255859375
33.012807,1.2255859375
33.0131378,1.2109375
33.0289398,1.2060546875
33.0773902,1.201171875
33.0776477,1.1865234375
33.0885721,1.181640625
33.1238428,1.171875
33.1505809,1.171875
33.1509483,1.1669921875
33.1959327,1.1865234375
33.1961667,1.2060546875
33.2155916,1.2451171875
33.2269965,1.26953125
33.2763616,1.3037109375
33.2767147,1.318359375
33.3060837,1.3330078125
33.310805,1.337890625
33.347331,1.337890625
33.3475958,1.3232421875
33.3816051,1.3232421875
33.4021692,1.318359375
33.4084497,1.30859375
33.4424309,1.298828125
33.4624768,1.2890625
33.4691717,1.2841796875
33.5050603,1.2744140625
33.5253761,1.2744140625
33.5357655,1.26953125
33.5561683,1.2646484375
33.5696676,1.259765625
33.5883451,1.2451171875
33.6231521,1.2353515625
33.6429377,1.2255859375
33.6499024,1.2158203125
33.6836691,1.2060546875
33.7051239,1.1962890625
33.7111445,1.181640625
33.7448023,1.1767578125
33.7665301,1.1767578125
33.7668291,1.2060546875
33.818364,1.2353515625
33.8187451,1.26953125
33.8413269,1.2939453125
33.8521124,1.3232421875
33.8714226,1.337890625
33.9076951,1.357421875
33.9080082,1.3623046875
33.9432941,1.376953125
33.9634342,1.376953125
33.9696165,1.3671875
34.0117371,1.3525390625
34.0119355,1.34765625
34.0313783,1.337890625
34.0653035,1.328125
34.0855873,1.318359375
34.0876912,1.30859375
34.1235169,1.30859375
34.1509447,1.298828125
34.1511445,1.2939453125
34.1840061,1.2841796875
34.2041431,1.2744140625
34.2104761,1.2646484375
34.2446223,1.25
34.2648689,1.23046875
34.267385,1.2353515625
34.3042448,1.2255859375
34.334829,1.2158203125
34.3352447,1.2109375
34.3497924,1.201171875
34.3956912,1.2109375
34.3960234,1.23046875
34.4159283,1.259765625
34.4300519,1.2841796875
34.473952,1.318359375
34.4742117,1.3427734375
34.4910034,1.3623046875
34.5365539,1.376953125
34.5370804,1.3916015625
34.5512805,1.3916015625
34.5985678,1.38671875
34.5987975,1.3720703125
34.6132586,1.357421875
34.6298702,1.3427734375
34.6651028,1.34765625
34.6768444,1.3525390625
34.6903782,1.3427734375
34.7386474,1.3330078125
34.7389147,1.318359375
34.7522677,1.30859375
34.7887218,1.2890625
34.8159799,1.2841796875
34.8162361,1.26953125
34.8329618,1.2646484375
34.8510924,1.2548828125
34.8919924,1.2451171875
34.8921926,1.2255859375
34.9301752,1.220703125
34.9303768,1.2060546875
34.9640575,1.1962890625
34.9849621,1.1962890625
34.9891831,1.1962890625
35.0315712,1.2255859375
35.0317146,1.25
35.0620199,1.2841796875
35.0727746,1.3037109375
35.1072002,1.328125
35.111757,1.337890625
35.1485064,1.3427734375
35.1487294,1.3427734375
35.1830152,1.34765625
35.2043815,1.337890625
35.212613,1.3330078125
35.2311449,1.318359375
35.2653818,1.30859375
35.286498,1.2939453125
35.2935452,1.2939453125
35.3283678,1.2841796875
35.3323927,1.2744140625
35.3659543,1.240234375
35.3701105,1.2109375
35.4076479,1.220703125
35.4383522,1.2255859375
35.4386663,1.2255859375
35.4506667,1.220703125
35.4867192,1.2109375
35.5083506,1.201171875
35.5122927,1.19140625
35.5302916,1.1767578125
35.5656633,1.181640625
35.586572,1.1767578125
35.5906582,1.1767578125
35.6246019,1.19140625
35.6577796,1.201171875
35.6581472,1.23046875
35.6743453,1.2548828125
35.7101146,1.2841796875
35.710425,1.298828125
35.7460537,1.3232421875
35.7499785,1.3330078125
35.7847747,1.337890625
35.8186094,1.3232421875
35.8189597,1.318359375
35.8335911,1.298828125
35.8697028,1.2890625
35.8699694,1.2744140625
35.9027388,1.279296875
35.923796,1.26953125
35.9298351,1.2744140625
35.962826,1.26953125
35.9826898,1.259765625
35.9910885,1.2548828125
36.0252144,1.2451171875
36.044837,1.2353515625
36.0488383,1.220703125
36.0842072,1.2158203125
36.1044155,1.2109375
36.1104001,1.2060546875
36.1447147,1.19140625
36.1658981,1.181640625
36.1729446,1.171875
36.2069598,1.1767578125
36.226775,1.171875
36.2336858,1.1669921875
36.2684246,1.181640625
36.301106,1.2158203125
36.3013294,1.2548828125
36.3130149,1.2841796875
36.3498089,1.3134765625
36.3539858,1.3232421875
36.3940831,1.328125
36.3943211,1.3232421875
36.4271362,1.318359375
36.449384,1.3037109375
36.4497046,1.30859375
36.4841634,1.2939453125
36.5180927,1.2890625
36.5183431,1.2841796875
36.5338681,1.279296875
36.5674601,1.26953125
36.5965286,1.279296875
36.5969823,1.279296875
36.6129562,1.2646484375
36.6493258,1.26953125
36.6548426,1.259765625
36.6897591,1.25
36.6916323,1.240234375
36.726004,1.23046875
36.7512011,1.2158203125
36.7529136,1.2060546875
36.7692558,1.1962890625
36.8035463,1.1962890625
36.8226894,1.19140625
36.8351445,1.2109375
36.8541988,1.23046875
36.8883856,1.259765625
36.9104749,1.2939453125
36.9146797,1.3134765625
36.9543368,1.337890625
36.9546227,1.3525390625
36.9707637,1.3720703125
37.003371,1.376953125
37.0241267,1.3818359375
37.034438,1.3720703125
37.0700716,1.3623046875
37.0741041,1.34765625
37.1254118,1.337890625
37.1257148,1.328125
37.1361977,1.3232421875
37.1530605,1.3134765625
37.2006249,1.3134765625
37.2010434,1.3037109375
37.2147637,1.298828125
37.2497946,1.2939453125
37.2549596,1.2744140625
37.2964232,1.2646484375
37.2966844,1.25
37.3308237,1.240234375
37.3310353,1.220703125
37.3724763,1.220703125
37.3728183,1.2109375
37.3921657,1.2060546875
37.4260101,1.19140625
37.4467731,1.1865234375
37.4554252,1.181640625
37.4883215,1.201171875
37.5107809,1.2255859375
37.51099,1.259765625
37.5343023,1.298828125
37.5728325,1.318359375
37.5737782,1.34765625
37.5959411,1.3623046875
37.6347528,1.376953125
37.6351001,1.376953125
37.6688732,1.376953125
37.6892491,1.357421875
37.6940419,1.357421875
37.7289312,1.3427734375
37.7331902,1.337890625
37.764875,1.328125
37.7861025,1.3232421875
37.7930215,1.3134765625
37.8370476,1.3037109375
37.8373629,1.2939453125
37.8663547,1.298828125
37.8732599,1.2939453125
37.8942522,1.279296875
37.9289522,1.2646484375
37.9507411,1.25
37.952814,1.2353515625
37.9967857,1.2255859375
37.9970997,1.2158203125
38.0189126,1.201171875
38.0364945,1.1865234375
38.054191,1.1767578125
38.0900518,1.1767578125
38.0953466,1.181640625
38.1386969,1.2060546875
38.1388916,1.2255859375
38.1567523,1.2548828125
38.1915189,1.2890625
38.1955205,1.3037109375
38.2301949,1.3232421875
38.251257,1.3330078125
38.2533828,1.3525390625
38.2895434,1.3525390625
38.3100306,1.34765625
38.3163991,1.337890625
38.3524672,1.328125
38.3570875,1.3134765625
38.3773281,1.3134765625
38.3924714,1.3037109375
38.4305024,1.3037109375
38.4347718,1.2939453125
38.4692481,1.2890625
38.4741542,1.26953125
38.511014,1.2646484375
38.515748,1.2548828125
38.5524876,1.240234375
38.5564497,1.2255859375
38.5741082,1.2158203125
38.5944743,1.2109375
38.6322951,1.2060546875
38.6364273,1.2060546875
38.6796428,1.201171875
38.6799703,1.1962890625
38.6972004,1.1865234375
38.7323086,1.1767578125
38.7325086,1.171875
38.7659043,1.19140625
38.7861389,1.1767578125
38.7933102,1.220703125
38.8347618,1.259765625
38.8349613,1.2841796875
38.8559544,1.3134765625
38.8918658,1.328125
38.9189259,1.3427734375
38.9191415,1.337890625
38.9627107,1.3330078125
38.9629689,1.318359375
38.972778,1.3134765625
39.006285,1.298828125
39.0275857,1.298828125
39.0373535,1.2890625
39.0728234,1.2890625
39.0753672,1.279296875
39.1089839,1.2744140625
39.1366183,1.259765625
39.1371118,1.2646484375
39.1546051,1.259765625
39.1939296,1.2451171875
39.2234052,1.240234375
39.2236665,1.23046875
39.237517,1.220703125
39.2732979,1.2060546875
39.2777962,1.1962890625
39.2936975,1.1865234375
39.3280799,1.1865234375
39.3497064,1.1767578125
39.3558267,1.171875
39.3949858,1.1669921875
39.39532,1.1767578125
39.4153131,1.1865234375
39.4498021,1.2109375
39.4703462,1.240234375
39.474481,1.259765625
39.5077037,1.279296875
39.5268864,1.2939453125
39.5353229,1.3037109375
39.5698311,1.298828125
39.5898828,1.2939453125
39.5985261,1.279296875
39.633827,1.26953125
39.6379351,1.2548828125
39.6716095,1.2548828125
39.7057012,1.2548828125
39.7061291,1.259765625
39.7148528,1.2548828125
39.7364896,1.2548828125
39.7716676,1.25
39.7761434,1.2451171875
39.8113663,1.2353515625
39.8473007,1.220703125
39.8476288,1.2109375
39.8563561,1.1962890625
39.8917159,1.19140625
39.8961582,1.181640625
39.9322248,1.1767578125
39.9362297,1.1669921875
39.9706052,1.162109375
39.9906541,1.15234375
39.9991354,1.1572265625
40.0148786,1.171875
40.0622481,1.2109375
40.062603,1.240234375
40.0824484,1.26953125
40.0963347,1.2890625
40.1285496,1.298828125
40.1502974,1.3037109375
40.1587937,1.3037109375
40.1931494,1.3037109375
40.19524,1.2939453125
40.2304415,1.2939453125
40.2618299,1.2841796875
40.2620847,1.2841796875
40.2772688,1.2744140625
40.312085,1.279296875
40.3186049,1.26953125
40.3384921,1.259765625
40.3554981,1.2451171875
40.401262,1.2451171875
40.4014578,1.2353515625
40.4231186,1.2353515625
40.4362918,1.23046875
40.4706218,1.2158203125
40.4916426,1.2060546875
40.5001447,1.1962890625
40.519857,1.19140625
40.5553337,1.1865234375
40.5599491,1.181640625
40.5756333,1.1865234375
40.6196427,1.2109375
40.6202321,1.23046875
40.6401012,1.2646484375
40.6733668,1.2890625
40.6774865,1.318359375
40.7117056,1.3330078125
40.7439829,1.34765625
40.7441835,1.3623046875
40.755861,1.3525390625
40.7930045,1.357421875
40.8216412,1.34765625
40.8218399,1.34765625
40.837201,1.337890625
40.8723394,1.3330078125
40.9011568,1.318359375
40.9013567,1.3134765625
40.916657,1.3037109375
40.936811,1.3037109375
40.9801546,1.298828125
40.9804013,1.2939453125
40.9980675,1.279296875
41.0349884,1.2744140625
41.0559911,1.259765625
41.0612435,1.2548828125
41.0972641,1.2451171875
41.0976007,1.2353515625
41.1435772,1.23046875
41.1438654,1.2255859375
41.1574694,1.2353515625
41.2050905,1.25
41.2053194,1.279296875
41.2193295,1.3037109375
41.2660072,1.3330078125
41.266407,1.3525390625
41.2762834,1.376953125
41.3101123,1.396484375
41.3318353,1.40625
41.3385076,1.40625
41.3760664,1.4013671875
41.3762995,1.396484375
41.4202537,1.376953125
41.4206851,1.3671875
41.4551832,1.357421875
41.4822147,1.357421875
41.4826278,1.3427734375
41.496893,1.3427734375
41.5457991,1.3330078125
41.5460045,1.328125
41.5593703,1.318359375
41.5954806,1.3037109375
41.5999827,1.2890625
41.6352606,1.2744140625
41.6564306,1.259765625
41.6567003,1.259765625
41.6774851,1.2451171875
41.7122253,1.2451171875
41.7455822,1.240234375
41.745844,1.2353515625
41.7606853,1.240234375
41.7953965,1.25
41.7995146,1.26953125
41.8340434,1.2939453125
41.8383017,1.328125
41.858516,1.34765625
41.8976417,1.3720703125
41.917133,1.38671875
41.9173503,1.396484375
41.9528387,1.396484375
41.9730471,1.396484375
41.9786504,1.376953125
41.9972994,1.376953125
42.035634,1.3671875
42.0377636,1.357421875
42.0730455,1.34765625
42.0982817,1.337890625
42.098538,1.3330078125
42.1352245,1.318359375
42.1607593,1.30859375
42.1610364,1.2890625
42.18137,1.259765625
42.1992403,1.2255859375
42.2351786,1.2353515625
42.2371879,1.23046875
42.2703696,1.2255859375
42.2907481,1.220703125
42.2998841,1.2109375
42.335261,1.1962890625
42.3552554,1.19140625
42.3612364,1.181640625
42.379418,1.1767578125
42.4138254,1.19140625
42.4191226,1.2109375
42.4603723,1.240234375
42.4769361,1.2646484375
42.4789092,1.2939453125
42.5136287,1.30859375
42.5346883,1.328125
42.5376877,1.3330078125
42.5741856,1.337890625
42.578298,1.3330078125
42.6166991,1.328125
42.6465651,1.3134765625
42.6473444,1.298828125
42.6610411,1.2939453125
42.696657,1.279296875
42.7244769,1.2744140625
42.7248867,1.2646484375
42.7371412,1.2744140625
42.7722238,1.26953125
42.8030751,1.26953125
42.8033271,1.2548828125
42.8206407,1.2451171875
42.863494,1.23046875
42.8638259,1.2255859375
42.8832416,1.2109375
42.8997106,1.2109375
42.9414755,1.201171875
42.9416795,1.201171875
42.9747546,1.181640625
42.979822,1.1767578125
43.0169032,1.171875
43.0415273,1.162109375
43.0418534,1.162109375
43.0766066,1.171875
43.0975477,1.19140625
43.0978656,1.2109375
43.132127,1.240234375
43.164715,1.2646484375
43.1650525,1.2841796875
43.1795829,1.2939453125
43.2118531,1.298828125
43.2340394,1.2939453125
43.2434127,1.2890625
43.2602238,1.279296875
43.3031981,1.2744140625
43.3034484,1.2744140625
43.3375184,1.2646484375
43.3418416,1.2646484375
43.3798985,1.2548828125
43.3801011,1.2548828125
43.4131021,1.2451171875
43.4334698,1.240234375
43.4428452,1.2255859375
43.4602839,1.2255859375
43.5048968,1.220703125
43.5050928,1.220703125
43.5201544,1.2060546875
43.5542903,1.1962890625
43.5739869,1.181640625
43.5820957,1.171875
43.5984581,1.162109375
43.6326405,1.162109375
43.6620249,1.162109375
43.6625205,1.1572265625
43.6811066,1.1669921875
43.7224716,1.1767578125
43.7228034,1.2060546875
43.7427422,1.23046875
43.785088,1.259765625
43.7853318,1.2744140625
43.801283,1.298828125
43.8193605,1.3037109375
43.8614271,1.30859375
43.8616266,1.3037109375
43.9081165,1.2939453125
43.9083159,1.279296875
43.9222734,1.2646484375
43.9692986,1.259765625
43.9696345,1.25
43.9834936,1.2451171875
43.9996668,1.2353515625
44.0353247,1.240234375
44.0631008,1.2353515625
44.0633396,1.23046875
44.0966703,1.220703125
44.1170034,1.2109375
44.1216251,1.1962890625
44.1541561,1.19140625
44.1745784,1.1767578125
44.1806809,1.1767578125
44.2187578,1.1669921875
44.24914,1.162109375
44.2493448,1.15234375
44.2610903,1.1572265625
44.293136,1.171875
44.3136512,1.19140625
44.3219333,1.220703125
44.3571433,1.240234375
44.3625616,1.26953125
44.3809362,1.2890625
44.4227087,1.30859375
44.423041,1.3134765625
44.4514239,1.318359375
44.4640584,1.30859375
44.5038397,1.298828125
44.5040969,1.2841796875
44.5201782,1.2890625
44.5405467,1.279296875
44.5853449,1.2744140625
44.585702,1.2744140625
44.6063024,1.2646484375
44.6226599,1.259765625
44.6578579,1.25
44.6620344,1.2451171875
44.6799691,1.2353515625
44.725709,1.23046875
44.7260188,1.19140625
44.7569482,1.1962890625
44.7613382,1.1962890625
44.8025736,1.2060546875
44.8029059,1.201171875
44.8233681,1.201171875
44.8600537,1.1962890625
44.8641685,1.2060546875
44.8809084,1.2158203125
44.9177559,1.25
44.9259956,1.2841796875
44.9430107,1.30859375
44.9863859,1.337890625
44.9866614,1.3525390625
45.0039059,1.3671875
45.0259575,1.3720703125
45.0658308,1.3818359375
45.0660272,1.3720703125
45.0817402,1.3720703125
45.1176613,1.3623046875
45.1221543,1.3525390625
45.1659384,1.3427734375
45.1661415,1.337890625
45.190225,1.3232421875
45.2045502,1.3134765625
45.2517424,1.3134765625
45.2519447,1.298828125
45.2817193,1.298828125
45.2820611,1.2890625
45.329134,1.2890625
45.3456018,1.279296875
45.3460185,1.26953125
45.3645358,1.2548828125
45.4003448,1.2451171875
45.4006513,1.2255859375
45.4388502,1.2255859375
45.4608939,1.2158203125
45.4611038,1.2158203125
45.4992314,1.2158203125
45.5190951,1.23046875
45.523603,1.25
45.5558735,1.2841796875
45.5780663,1.30859375
45.5863994,1.3232421875
45.6229849,1.318359375
45.6233392,1.337890625
45.6575281,1.3623046875
45.6838537,1.3671875
45.6843826,1.3720703125
45.7049526,1.3623046875
45.7389496,1.34765625
45.7452444,1.3330078125
45.7941622,1.3232421875
45.7944329,1.3134765625
45.804774,1.3232421875
45.8409785,1.3232421875
45.8412528,1.318359375
45.8877522,1.3134765625
45.8881439,1.298828125
45.917382,1.2890625
45.9235603,1.2744140625
45.959121,1.259765625
45.9919922,1.25
45.9923066,1.2451171875
46.0037256,1.240234375
46.0404062,1.23046875
46.0444836,1.2158203125
46.0794378,1.2109375
46.0992253,1.1962890625
46.1052674,1.19140625
46.1238756,1.19140625
46.1417417,1.2158203125
46.1804298,1.240234375
46.1807266,1.26953125
46.2235582,1.298828125
46.2238225,1.318359375
46.2459626,1.3330078125
46.2848383,1.337890625
46.2853986,1.3427734375
46.3168571,1.337890625
46.3373485,1.337890625
46.3413345,1.328125
46.3736032,1.3134765625
46.3944889,1.3037109375
46.4028586,1.298828125
46.4361896,1.2890625
46.4561058,1.2841796875
46.4659789,1.2744140625
46.4987698,1.2646484375
46.5185954,1.2646484375
46.5231945,1.2548828125
46.5582682,1.2548828125
46.5627021,1.2451171875
46.6117621,1.240234375
46.6119921,1.23046875
46.632422,1.220703125
46.6455828,1.2060546875
46.6795688,1.19140625
46.7059068,1.1767578125
46.7064183,1.1767578125
46.724003,1.171875
46.7689028,1.171875
46.7691027,1.1767578125
46.7946408,1.1962890625
46.8058256,1.2158203125
46.8435385,1.2548828125
46.8475765,1.279296875
46.8632231,1.2939453125
46.90423,1.3134765625
46.9044685,1.328125
46.9343665,1.3330078125
46.9443957,1.3232421875
46.9767056,1.3134765625
46.9988114,1.298828125
47.0076298,1.2890625
47.0227706,1.2744140625
47.0587366,1.2744140625
47.0803411,1.26953125
47.0876713,1.26953125
47.1047063,1.2646484375
47.1404954,1.2646484375
47.1694466,1.2646484375
47.1697373,1.25
47.1881302,1.240234375
47.2027755,1.2255859375
47.2466019,1.23046875
47.2468235,1.2158203125
47.2672354,1.2109375
47.2843009,1.1962890625
47.3224723,1.1865234375
47.3423824,1.171875
47.3454892,1.1767578125
47.3862821,1.1669921875
47.415175,1.1669921875
47.4153768,1.1767578125
47.4244258,1.2109375
47.4590423,1.23046875
47.4789251,1.2646484375
47.4850602,1.2890625
47.52129,1.298828125
47.5544139,1.30859375
47.5546179,1.3134765625
47.566489,1.3037109375
47.5843297,1.2939453125
47.6189918,1.2890625
47.6231529,1.279296875
47.655676,1.26953125
47.6782064,1.2646484375
47.6864965,1.259765625
47.7071777,1.2548828125
47.7296484,1.2548828125
47.7540542,1.2451171875
47.7655116,1.240234375
47.8007412,1.240234375
47.8053198,1.23046875
47.8411217,1.2255859375
47.8455417,1.2158203125
47.8779809,1.2109375
47.8976613,1.201171875
47.9102641,1.1962890625
47.9303214,1.181640625
47.9440799,1.1865234375
47.9805768,1.181640625
47.9860559,1.1865234375
48.021454,1.19140625
48.0254967,1.2158203125
48.0602457,1.240234375
48.0812058,1.26953125
48.0882795,1.2890625
48.1069531,1.2939453125
48.1421576,1.2890625
48.1468924,1.279296875
48.1655888,1.3037109375
48.2003637,1.30859375
48.2205445,1.30859375
48.2276586,1.3037109375
48.2629387,1.3037109375
48.2677562,1.2890625
48.3160034,1.2841796875
48.3162561,1.2744140625
48.3244304,1.279296875
48.3589144,1.26953125
48.3790568,1.26953125
48.3853284,1.259765625
48.4081017,1.2548828125
48.445008,1.25
48.449685,1.240234375
48.4855737,1.2255859375
48.4858475,1.2158203125
48.5223137,1.2158203125
48.5521406,1.2060546875
48.5523385,1.1962890625
48.566859,1.19140625
48.6024734,1.19140625
48.6076679,1.181640625
48.6419272,1.19140625
48.6626711,1.2060546875
48.6647339,1.240234375
48.7100573,1.26953125
48.7106043,1.298828125
48.7401127,1.318359375
48.7464559,1.337890625
48.7803145,1.3525390625
48.802712,1.3525390625
48.8073652,1.3525390625
48.8520763,1.34765625
48.8522754,1.3427734375
48.8675643,1.337890625
48.9160246,1.3330078125
48.9163072,1.328125
48.9269881,1.328125
48.9492799,1.3232421875
48.9907863,1.318359375
48.9909882,1.3037109375
49.0238264,1.298828125
49.0241581,1.279296875
49.0476578,1.279296875
49.066748,1.2744140625
49.1024359,1.2646484375
49.1076083,1.2548828125
49.1418411,1.240234375
49.1726853,1.2353515625
49.1731014,1.220703125
49.18988,1.2109375
49.2066788,1.1962890625
49.2491434,1.1962890625
49.2495727,1.19140625
49.2819757,1.201171875
49.2859938,1.2158203125
49.3267267,1.2451171875
49.3483596,1.26953125
49.3486918,1.298828125
49.3677759,1.318359375
49.4048512,1.34765625
49.4068269,1.3623046875
49.4500889,1.3671875
49.4504831,1.3671875
49.4700706,1.357421875
49.503355,1.3427734375
49.5249795,1.3330078125
49.5292729,1.3232421875
49.5466933,1.30859375
49.5662517,1.30859375
49.6072619,1.3037109375
49.6359104,1.3037109375
49.6363235,1.2939453125
49.647337,1.2890625
49.6984077,1.279296875
49.6988556,1.26953125
49.7084388,1.259765625
49.7429188,1.240234375
49.7498369,1.2353515625
49.7825359,1.2255859375
49.7866255,1.220703125
49.8203658,1.2109375
49.8415953,1.2060546875
49.8496006,1.1962890625
49.8704135,1.1865234375
49.8896526,1.171875
49.9351048,1.1767578125
49.935396,1.171875
49.9483295,1.1962890625
49.969497,1.2255859375
49.990376,1.2646484375
50.0091033,1.2890625
50.0285085,1.3232421875
50.0762964,1.3427734375
50.0766228,1.3525390625
50.0898599,1.3623046875
50.1070256,1.357421875
50.1437571,1.3525390625
50.1479813,1.3427734375
50.1848217,1.337890625
50.1872992,1.3232421875
50.2229549,1.30859375
50.2468677,1.298828125
50.2498405,1.2939453125
50.2939216,1.2890625
50.2941547,1.2939453125
50.3069602,1.2841796875
50.3661026,1.2744140625
50.366361,1.2744140625
50.382571,1.259765625
50.3897447,1.2451171875
50.4257977,1.23046875
50.4316519,1.2255859375
50.4463471,1.2109375
50.4827619,1.2109375
50.488298,1.1962890625
50.5267005,1.19140625
50.5270099,1.181640625
50.565994,1.181640625
50.5864009,1.1767578125
50.5897984,1.1865234375
50.6075779,1.2060546875
50.6423101,1.240234375
50.6491639,1.240234375
50.6682142,1.279296875
50.7047606,1.3037109375
50.7245315,1.30859375
50.7284886,1.3134765625
50.7648654,1.30859375
50.7846034,1.298828125
50.7918615,1.279296875
50.8133587,1.26953125
50.8293944,1.2548828125
50.8483618,1.259765625
50.8846262,1.2548828125
50.9059382,1.25
50.9076621,1.2451171875
50.9496162,1.25
50.9699962,1.2451171875
50.9703046,1.240234375
51.0069876,1.240234375
51.0074141,1.220703125
51.04107,1.220703125
51.06113,1.2158203125
51.0682144,1.2109375
51.1056269,1.1962890625
51.1095383,1.1865234375
51.1514141,1.171875
51.1516533,1.1669921875
51.1684831,1.1572265625
51.2037546,1.1669921875
51.2078932,1.1767578125
51.2407942,1.2109375
51.2609148,1.2451171875
51.2700276,1.2744140625
51.3044397,1.2890625
51.3234595,1.3134765625
51.330874,1.328125
51.3499197,1.3232421875
51.3691253,1.328125
51.3894803,1.328125
51.430175,1.318359375
51.4303687,1.3037109375
51.4656348,1.298828125
51.4703946,1.2841796875
51.5042357,1.2841796875
51.5361233,1.2744140625
51.5363435,1.2451171875
51.5484741,1.2158203125
51.5827182,1.23046875
51.6146299,1.23046875
51.6148376,1.23046875
51.629649,1.23046875
51.6639927,1.220703125
51.6841282,1.2109375
51.6914811,1.1962890625
51.7254301,1.1865234375
51.7451336,1.1767578125
51.7525216,1.1767578125
51.769475,1.171875
51.7906203,1.1669921875
51.8130782,1.1669921875
51.8504373,1.19140625
51.8506815,1.220703125
51.8851833,1.2548828125
51.9070252,1.2841796875
51.90882,1.3134765625
51.9433786,1.328125
51.9734341,1.34765625
51.9738461,1.357421875
51.9912806,1.357421875
52.0360106,1.3525390625
52.0363593,1.337890625
52.0523048,1.3232421875
52.0693026,1.30859375
52.1096013,1.3037109375
52.1287992,1.298828125
52.1291416,1.2939453125
52.1615638,1.2841796875
52.1811001,1.279296875
52.1922927,1.26953125
52.2268858,1.259765625
52.22729,1.2451171875
52.2627704,1.2451171875
52.2846082,1.2451171875
52.290729,1.23046875
52.328626,1.220703125
52.3289724,1.2060546875
52.3752771,1.1962890625
52.3754707,1.1767578125
52.395854,1.171875
52.4137413,1.1669921875
52.4491003,1.171875
52.4495067,1.19140625
52.4853977,1.2353515625
52.490439,1.26953125
52.527609,1.30859375
52.5322986,1.3330078125
52.5802861,1.3525390625
52.5806942,1.357421875
52.5931544,1.3671875
52.6307615,1.3671875
52.6309588,1.3525390625
52.6609664,1.34765625
52.6691544,1.337890625
52.7035733,1.328125
52.7225893,1.318359375
52.7306588,1.30859375
52.76578,1.298828125
52.7879743,1.2939453125
52.7885263,1.2841796875
52.8082546,1.2841796875
52.8456766,1.2744140625
52.865851,1.26953125
52.8721142,1.2548828125
52.9073869,1.240234375
52.9274412,1.2353515625
52.9314485,1.220703125
52.9695196,1.2060546875
52.9698117,1.1962890625
52.9897306,1.201171875
53.0240399,1.201171875
53.0475783,1.2060546875
53.0515053,1.2060546875
53.0835814,1.2255859375
53.1057181,1.25
53.1130443,1.2841796875
53.1313404,1.30859375
53.1662492,1.3427734375
53.1685441,1.3623046875
53.2021302,1.376953125
53.2242969,1.3818359375
53.2326225,1.3818359375
53.2808763,1.376953125
53.281183,1.357421875
53.2931763,1.34765625
53.3294766,1.337890625
53.3597771,1.328125
53.3600368,1.3134765625
53.3701943,1.3134765625
53.4037216,1.30859375
53.4242228,1.298828125
53.4313652,1.2890625
53.4655158,1.279296875
53.4988577,1.2646484375
53.4990529,1.2548828125
53.5124757,1.240234375
53.5316328,1.240234375
53.5773335,1.2353515625
53.5776356,1.2255859375
53.5915491,1.2158203125
53.6265591,1.2060546875
53.6482811,1.1962890625
53.6545554,1.1865234375
53.6907304,1.19140625
53.6911325,1.2060546875
53.733064,1.240234375
53.733294,1.26953125
53.7527394,1.3037109375
53.7896159,1.3232421875
53.7961061,1.337890625
53.8297995,1.3525390625
53.8515162,1.357421875
53.8517323,1.34765625
53.8865971,1.34765625
53.890771,1.337890625
53.9263758,1.3232421875
53.9469073,1.3134765625
53.9512837,1.3037109375
53.9863693,1.298828125
54.007919,1.2939453125
54.0210014,1.2939453125
54.0349009,1.2841796875
54.0564539,1.2548828125
54.0714329,1.2255859375
54.1066812,1.2353515625
54.1290574,1.2353515625
54.1332156,1.2353515625
54.1543833,1.23046875
54.1896512,1.2255859375
54.1935727,1.220703125
54.2263785,1.2060546875
54.2470135,1.1962890625
54.2513001,1.1767578125
54.2975177,1.1865234375
54.2979213,1.19140625
54.3180192,1.2158203125
54.3319353,1.2451171875
54.3648849,1.2744140625
54.3859898,1.298828125
54.3945479,1.3232421875
54.4284456,1.3330078125
54.4328383,1.3525390625
54.453453,1.3525390625
54.4977546,1.34765625
54.4980155,1.3330078125
54.5128217,1.3330078125
54.5475881,1.3232421875
54.568635,1.30859375
54.5768662,1.3037109375
54.5917595,1.2939453125
54.6370039,1.298828125
54.6375593,1.2939453125
54.652947,1.2841796875
54.6897844,1.2744140625
54.7152017,1.259765625
54.71541,1.2451171875
54.7492271,1.2353515625
54.7695507,1.2255859375
54.7715028,1.220703125
54.8082501,1.2109375
54.8180746,1.201171875
54.8331528,1.1962890625
54.8681235,1.181640625
54.8743175,1.181640625
54.9101702,1.1865234375
54.9141137,1.2109375
54.9467886,1.2353515625
54.9683203,1.26953125
54.9724125,1.2890625
55.0151286,1.328125
55.015576,1.34765625
55.0487238,1.3720703125
55.0711339,1.3818359375
55.0749865,1.38671875
55.0952463,1.376953125
55.1370627,1.376953125
55.1514458,1.357421875
55.1517656,1.3623046875
55.1872481,1.3525390625
55.2136652,1.34765625
55.2139069,1.3427734375
55.2504483,1.3330078125
55.254819,1.3232421875
55.2885121,1.3037109375
55.32043,1.2890625
55.3206305,1.2744140625
55.3318254,1.26953125
55.3648259,1.259765625
55.3944826,1.2548828125
55.3985682,1.240234375
55.416411,1.2353515625
55.4352559,1.2158203125
55.4813682,1.2109375
55.481571,1.201171875
55.492482,1.19140625
55.5281062,1.1962890625
55.5322572,1.2060546875
55.5665917,1.240234375
55.5912318,1.2646484375
55.5933346,1.3037109375
55.6293889,1.328125
55.6532823,1.3623046875
55.6574887,1.376953125
55.6742483,1.4013671875
55.708379,1.40625
55.7148262,1.40625
55.7352367,1.3916015625
55.7776829,1.3818359375
55.778066,1.3671875
55.8112625,1.3623046875
55.8395051,1.34765625
55.8397116,1.3330078125
55.8727544,1.3232421875
55.8729558,1.30859375
55.9069247,1.30859375
55.9326752,1.298828125
55.9347382,1.2939453125
55.9685094,1.279296875
55.9908492,1.2646484375
55.9963214,1.25
56.0436944,1.240234375
56.0438973,1.2255859375
56.0544541,1.2255859375
56.0893742,1.2158203125
56.1098582,1.2109375
56.1142271,1.2060546875
56.1480854,1.19140625
56.1822772,1.181640625
56.1826235,1.171875
56.197462,1.181640625
56.2121376,1.201171875
56.2467419,1.240234375
56.2767179,1.2744140625
56.277051,1.3134765625
56.297575,1.337890625
56.3167535,1.3671875
56.3678944,1.376953125
56.3680932,1.3916015625
56.3726811,1.38671875
56.4094675,1.3916015625
56.4288582,1.376953125
56.4353305,1.3720703125
56.4702873,1.3623046875
56.4744908,1.3427734375
56.5071528,1.3330078125
56.5276031,1.3232421875
56.5353629,1.318359375
56.5688606,1.3037109375
56.5768875,1.298828125
56.5929738,1.2548828125
56.6262393,1.259765625
56.6475225,1.25
56.656412,1.25
56.6766135,1.240234375
56.710398,1.23046875
56.7315035,1.220703125
56.7386239,1.2109375
56.7719168,1.201171875
56.8026115,1.1865234375
56.802829,1.181640625
56.815272,1.171875
56.8340345,1.1669921875
56.8808849,1.1669921875
56.8810845,1.1865234375
56.9121881,1.2109375
56.9186306,1.2451171875
56.9355231,1.26953125
56.9763899,1.30859375
56.9766303,1.3232421875
56.9953302,1.3427734375
57.0296869,1.3525390625
57.0512943,1.3525390625
57.058327,1.337890625
57.0967539,1.337890625
57.0986576,1.3232421875
57.1151103,1.30859375
57.1499292,1.30859375
57.1544469,1.30859375
57.186944,1.3037109375
57.2201362,1.2939453125
57.2205393,1.2841796875
57.2542295,1.2744140625
57.2597055,1.259765625
57.2752156,1.2548828125
57.3031619,1.25
57.3219428,1.240234375
57.3345793,1.23046875
57.3688532,1.2158203125
57.3917187,1.201171875
57.3965869,1.19140625
57.4299475,1.1767578125
57.4508327,1.1669921875
57.4568471,1.15234375
57.4894001,1.1279296875
57.5105028,1.1376953125
57.5177557,1.1767578125
57.5634892,1.2109375
57.5636965,1.2548828125
57.577084,1.2841796875
57.626451,1.318359375
57.6266868,1.328125
57.6398994,1.34765625
57.6556848,1.34765625
57.6756022,1.3525390625
57.7193766,1.337890625
57.7195756,1.337890625
57.7394991,1.328125
57.7738682,1.3134765625
57.7780607,1.3037109375
57.8124297,1.2939453125
57.8418225,1.2841796875
57.8423218,1.2744140625
57.8597333,1.2744140625
57.876194,1.2646484375
57.9224253,1.259765625
57.9226437,1.25
57.9435737,1.240234375
57.9583957,1.220703125
57.9950786,1.2109375
57.9952829,1.19140625
58.0341028,1.1865234375
58.0649714,1.181640625
58.0652012,1.171875
58.0769123,1.1572265625
58.1256234,1.1474609375
58.1259557,1.1474609375
58.1452783,1.15234375
58.1596561,1.1767578125
58.1766742,1.2060546875
58.2146402,1.25
58.2192729,1.2841796875
58.2371306,1.328125
58.2822295,1.3427734375
58.2824285,1.3623046875
58.2980555,1.3671875
58.3339896,1.3720703125
58.3379734,1.3623046875
58.3596475,1.3525390625
58.3972253,1.3427734375
58.3975234,1.3232421875
58.4210238,1.318359375
58.4378898,1.30859375
58.4814961,1.3037109375
58.481722,1.2939453125
58.5143972,1.2890625
58.5205832,1.2744140625
58.5606666,1.2646484375
58.5610058,1.2451171875
58.5772252,1.2451171875
58.5977176,1.2353515625
58.6347006,1.23046875
58.6381398,1.2158203125
58.6830606,1.201171875
58.6834205,1.19140625
58.7120564,1.171875
58.7189288,1.162109375
58.7518255,1.1474609375
58.7560354,1.15234375
58.7900817,1.1474609375
58.8106376,1.15234375
58.8177798,1.1669921875
58.8519261,1.201171875
58.8794501,1.23046875
58.8797011,1.2744140625
58.8966999,1.298828125
58.9390074,1.337890625
58.9393402,1.357421875
58.9863781,1.3720703125
58.9865921,1.3720703125
58.9986454,1.376953125
59.0315767,1.3671875
59.0520711,1.34765625
59.0597148,1.337890625
59.0769538,1.318359375
59.1270624,1.318359375
59.1272804,1.30859375
59.1380182,1.30859375
59.1725757,1.298828125
59.1946329,1.2890625
59.1993187,1.279296875
59.2347183,1.2646484375
59.2393871,1.25
59.281734,1.2353515625
59.2820746,1.220703125
59.2974286,1.2109375
59.3467512,1.2060546875
59.34703,1.19140625
59.3761026,1.181640625
59.3803809,1.1669921875
59.4013148,1.162109375
59.4373266,1.1474609375
59.4399518,1.1376953125
59.474394,1.1279296875
59.4763348,1.142578125
59.5107504,1.162109375
59.5322065,1.201171875
59.5384692,1.23046875
59.5839605,1.26953125
59.5842757,1.2890625
59.6161547,1.318359375
59.6207124,1.3232421875
59.6383324,1.34765625
59.6581003,1.34765625
59.6921388,1.337890625
59.7266008,1.3232421875
59.72692,1.30859375
59.7398782,1.2939453125
59.7742751,1.2841796875
59.7945419,1.279296875
59.7969694,1.2744140625
59.8333419,1.26953125
59.8556663,1.259765625
59.8642783,1.25
59.8797829,1.2353515625
59.9252602,1.2255859375
59.9255932,1.2060546875
59.9459939,1.1962890625
59.9621586,1.1865234375
59.982647,1.171875
60.0023564,1.1376953125
60.0193896,1.1083984375
60.0390598,1.1181640625
60.0821412,1.1181640625
60.0824849,1.1181640625
60.1166514,1.1083984375
60.1208564,1.1083984375
60.1548894,1.103515625
60.1752739,1.1279296875
60.1773855,1.15234375
60.2128501,1.201171875
60.232834,1.240234375
60.242228,1.2744140625
60.2766205,1.298828125
60.2785732,1.3232421875
60.3111606,1.3330078125
60.3326859,1.328125
60.3412947,1.3232421875
60.3753934,1.30859375
60.3796804,1.298828125
60.4165987,1.2890625
60.4219589,1.2841796875
60.4406584,1.2744140625
60.4885006,1.2744140625
60.4886985,1.2646484375
60.5092962,1.259765625
60.5176521,1.2451171875
60.5518505,1.25
60.5718165,1.240234375
60.5809877,1.23046875
60.6173221,1.220703125
60.6193292,1.2060546875
60.653764,1.1865234375
60.6809679,1.171875
60.6812913,1.1669921875
60.6981524,1.15234375
60.7420382,1.1474609375
60.742466,1.142578125
60.7628401,1.1376953125
60.7970204,1.1279296875
60.8018352,1.1328125
60.8210458,1.1474609375
60.8414291,1.181640625
60.8804566,1.2109375
60.9102478,1.2451171875
60.9107015,1.26953125
60.9200123,1.298828125
60.9585791,1.318359375
60.9588616,1.318359375
61.0052472,1.3232421875
61.0054457,1.3134765625
61.0381167,1.298828125
61.0437414,1.279296875
61.0824931,1.26953125
61.0827267,1.259765625
61.1165079,1.2646484375
61.1206465,1.2548828125
61.1599412,1.25
61.1601416,1.25
61.2031063,1.2548828125
61.2033532,1.25
61.2241179,1.240234375
61.259949,1.240234375
61.2602008,1.220703125
61.3001801,1.2158203125
61.3060817,1.201171875
61.3223958,1.1962890625
61.3539125,1.181640625
61.3624672,1.171875
61.4048583,1.15234375
61.4050578,1.1474609375
61.4173505,1.15234375
61.4561866,1.1865234375
61.4603734,1.220703125
61.500374,1.259765625
61.5297402,1.2890625
61.5299354,1.318359375
61.5415077,1.3330078125
61.563904,1.3525390625
61.583194,1.3623046875
61.5985082,1.357421875
61.6212512,1.357421875
61.6576173,1.3427734375
61.6619593,1.328125
61.7027845,1.318359375
61.7031946,1.3134765625
61.7217339,1.3037109375
61.7570735,1.298828125
61.7793684,1.2890625
61.784972,1.2744140625
61.8010742,1.259765625
61.8379626,1.259765625
61.8427333,1.25
61.8885224,1.2451171875
61.8891145,1.240234375
61.9007032,1.220703125
61.9346485,1.2060546875
61.9534683,1.1865234375
61.9642351,1.181640625
61.9800286,1.1669921875
62.0134685,1.162109375
62.035974,1.1572265625
62.0412996,1.1669921875
62.0891003,1.181640625
62.0895309,1.220703125
62.102831,1.25
62.1376963,1.2890625
62.1584567,1.3134765625
62.161816,1.34765625
62.1976497,1.3671875
62.2002208,1.396484375
62.2383702,1.40625
62.2697941,1.396484375
62.2701055,1.3916015625
62.2853277,1.376953125
62.3201093,1.3623046875
62.320311,1.34765625
62.3539756,1.3427734375
62.374309,1.3330078125
62.3824206,1.328125
62.4023323,1.318359375
62.4459809,1.3037109375
62.4463275,1.2890625
62.4670386,1.2890625
62.4796571,1.26953125
62.5243723,1.2646484375
62.5539298,1.220703125
62.5541331,1.1865234375
62.5623927,1.1962890625
62.6008415,1.1962890625
62.6012438,1.1962890625
62.6356928,1.1865234375
62.6559428,1.181640625
62.6628835,1.171875
62.7021992,1.181640625
62.7024011,1.201171875
62.7222994,1.25
62.7437587,1.2890625
62.7800226,1.328125
62.7819828,1.3525390625
62.8148538,1.3720703125
62.8356649,1.3818359375
62.8448469,1.396484375
62.8808763,1.3916015625
62.9099907,1.376953125
62.9103977,1.3720703125
62.9225083,1.357421875
62.9569635,1.3525390625
62.9772581,1.337890625
62.9820366,1.3427734375
63.0161021,1.3330078125
63.0369352,1.328125
63.0415931,1.3134765625
63.0776453,1.30859375
63.0825331,1.2939453125
63.1272134,1.2890625
63.1274253,1.26953125
63.1445024,1.2548828125
63.1794899,1.2451171875
63.2051623,1.23046875
63.205524,1.2158203125
63.2225543,1.2109375
63.2586044,1.220703125
63.2627337,1.2158203125
63.3047606,1.2060546875
63.3050363,1.1962890625
63.3393773,1.19140625
63.367586,1.19140625
63.3678911,1.2158203125
63.3845425,1.2451171875
63.4060705,1.259765625
63.4235824,1.2744140625
63.4596199,1.3232421875
63.461501,1.3525390625
63.4938614,1.3818359375
63.5149254,1.3916015625
63.5237919,1.38671875
63.5602737,1.3818359375
63.5844535,1.3671875
63.5847096,1.3525390625
63.6184252,1.337890625
63.6211556,1.337890625
63.656209,1.3330078125
63.6765468,1.328125
63.682561,1.318359375
63.7249919,1.3134765625
63.7253237,1.298828125
63.7453367,1.2939453125
63.7627035,1.2841796875
63.80526,1.279296875
63.8054694,1.2744140625
63.8216903,1.259765625
63.8546171,1.25
63.8747373,1.2353515625
63.88508,1.2255859375
63.9182529,1.2060546875
63.9381838,1.19140625
63.9426806,1.1767578125
63.9808999,1.1767578125
63.9859793,1.181640625
64.0287302,1.2158203125
64.0289733,1.240234375
64.0432042,1.279296875
64.0763871,1.3037109375
64.0983445,1.328125
64.1025782,1.3330078125
64.1236196,1.357421875
64.1586064,1.3623046875
64.1866243,1.357421875
64.1869248,1.34765625
64.2054005,1.3330078125
64.2425687,1.318359375
64.2429401,1.3037109375
64.2773197,1.3037109375
64.2978146,1.2939453125
64.3068727,1.2841796875
64.3224097,1.2744140625
64.343874,1.2744140625
64.385375,1.26953125
64.401911,1.2646484375
64.4047651,1.25
64.4473685,1.2353515625
64.4477007,1.23046875
64.4691081,1.2109375
64.486191,1.1962890625
64.5192556,1.181640625
64.5233016,1.181640625
64.5551627,1.1669921875
64.5891353,1.162109375
64.5895223,1.15234375
64.6067139,1.162109375
64.6506343,1.1767578125
64.6509526,1.2109375
64.6636396,1.240234375
64.711711,1.2841796875
64.7119101,1.318359375
64.7314457,1.34765625
64.7453435,1.3525390625
64.7793124,1.3671875
64.8016074,1.3720703125
64.8074331,1.3623046875
64.8431924,1.34765625
64.8434382,1.328125
64.8815051,1.328125
64.8817108,1.3232421875
64.9197497,1.318359375
64.9548189,1.3134765625
64.9553769,1.3037109375
64.9662377,1.2939453125
64.9998287,1.279296875
65.0204747,1.2646484375
65.022369,1.2646484375
65.0548442,1.25
65.0751094,1.240234375
65.0842194,1.23046875
65.1180018,1.2158203125
65.1415397,1.2060546875
65.1471072,1.19140625
65.1859797,1.1865234375
65.1863001,1.171875
65.2089612,1.162109375
65.2236246,1.15234375
65.2760094,1.162109375
65.2762145,1.181640625
65.286884,1.220703125
65.3220701,1.259765625
65.3282165,1.298828125
65.3665939,1.328125
65.3697471,1.357421875
65.385993,1.3720703125
65.4060393,1.4013671875
65.4410184,1.4111328125
65.4454919,1.40625
65.4796111,1.396484375
65.5091679,1.376953125
65.5095208,1.3623046875
65.5538147,1.34765625
65.5540119,1.3427734375
65.5637477,1.3330078125
65.6030534,1.3330078125
65.6323305,1.3232421875
65.6326688,1.318359375
65.645142,1.30859375
65.6809098,1.3037109375
65.708796,1.2841796875
65.7091831,1.26953125
65.7434622,1.259765625
65.76259,1.2353515625
65.7644868,1.23046875
65.8014993,1.2158203125
65.8235345,1.2158203125
65.8238099,1.1962890625
65.8635594,1.19140625
65.8861865,1.1767578125
65.89089,1.1669921875
65.9085805,1.162109375
65.9306868,1.1572265625
65.9453243,1.162109375
65.9824177,1.220703125
65.9844271,1.2646484375
66.0180633,1.30859375
66.0424049,1.3330078125
66.0467708,1.3671875
66.0806043,1.3818359375
66.1029215,1.38671875
66.1098181,1.38671875
66.1253585,1.376953125
66.1606304,1.3720703125
66.1655471,1.357421875
66.2125174,1.34765625
66.2127202,1.337890625
66.2427675,1.3330078125
66.246832,1.3232421875
66.2808468,1.30859375
66.305492,1.298828125
66.3056998,1.3037109375
66.3508503,1.2890625
66.3511898,1.279296875
66.3715198,1.26953125
66.3882996,1.2548828125
66.4283814,1.240234375
66.4286789,1.220703125
66.460962,1.2109375
66.483511,1.1962890625
66.4837864,1.1962890625
66.5178387,1.181640625
66.5383136,1.171875
66.5472029,1.1572265625
66.5800243,1.162109375
66.602159,1.1669921875
66.60861,1.1962890625
66.6259578,1.23046875
66.6737775,1.2744140625
66.6739813,1.3037109375
66.6859144,1.337890625
66.7208991,1.3525390625
66.7401435,1.3623046875
66.7471665,1.3671875
66.7817264,1.357421875
66.8019685,1.3427734375
66.8077334,1.328125
66.8442751,1.318359375
66.8640528,1.3037109375
66.8661071,1.3037109375
66.9018734,1.298828125
66.9224197,1.2939453125
66.9266645,1.2841796875
66.9609502,1.2744140625
66.9846139,1.2646484375
66.988732,1.25
67.0296036,1.2353515625
67.0298079,1.2158203125
67.0526119,1.2109375
67.0684184,1.201171875
67.1079593,1.1962890625
67.1081589,1.1865234375
67.1443294,1.1767578125
67.1691503,1.1669921875
67.1697177,1.15234375
67.1872598,1.1376953125
67.2214524,1.1474609375
67.2262812,1.1572265625
67.261475,1.1865234375
67.2808167,1.220703125
67.2890373,1.259765625
67.310306,1.2841796875
67.3296449,1.3232421875
67.34955,1.3427734375
67.3666778,1.3525390625
67.402658,1.3623046875
67.4067872,1.357421875
67.442425,1.34765625
67.4623588,1.3330078125
67.4686404,1.3232421875
67.5058086,1.30859375
67.5099722,1.3037109375
67.52732,1.2939453125
67.567427,1.298828125
67.567651,1.2890625
67.6143676,1.2890625
67.6147159,1.2744140625
67.6348173,1.2646484375
67.650348,1.2548828125
67.685354,1.2353515625
67.690371,1.220703125
67.7248089,1.2109375
67.7549962,1.201171875
67.7551932,1.181640625
67.7677723,1.1767578125
67.8015828,1.1669921875
67.8235139,1.162109375
67.8300246,1.1572265625
67.8774029,1.171875
67.8776049,1.1962890625
67.8908397,1.2353515625
67.90797,1.2646484375
67.9433577,1.30859375
67.9481381,1.3330078125
67.9821441,1.3623046875
68.0028165,1.376953125
68.0089636,1.376953125
68.043747,1.3720703125
68.0633842,1.3525390625
68.0711215,1.3427734375
68.0872572,1.328125
68.1232976,1.328125
68.127444,1.318359375
68.1738237,1.3134765625
68.1740591,1.3037109375
68.2038075,1.2939453125
68.2099807,1.279296875
68.2438934,1.2744140625
68.2646217,1.2548828125
68.2649402,1.2548828125
68.3023858,1.25
68.3217129,1.240234375
68.3284685,1.2353515625
68.3501264,1.220703125
68.3679981,1.2158203125
68.3925896,1.201171875
68.4281616,1.1962890625
68.4328863,1.181640625
68.4508251,1.1572265625
68.4712838,1.1376953125
68.4879975,1.19140625
68.5295354,1.23046875
68.5297842,1.2744140625
68.5492088,1.30859375
68.5827413,1.3427734375
68.6069498,1.357421875
68.611731,1.3818359375
68.6549622,1.396484375
68.6552389,1.396484375
68.6692246,1.4013671875
68.6908483,1.3916015625
68.7096478,1.3818359375
68.7463104,1.3671875
68.7663805,1.3525390625
68.7703882,1.3427734375
68.8088361,1.3330078125
68.8090981,1.3232421875
68.8417844,1.318359375
68.8487877,1.3134765625
68.8847485,1.3134765625
68.8887705,1.3037109375
68.9232184,1.2890625
68.9497772,1.2744140625
68.9501517,1.2548828125
68.9975332,1.2451171875
68.998235,1.2255859375
69.0288007,1.2255859375
69.0291639,1.2158203125
69.072938,1.2060546875
69.0732481,1.19140625
69.0912753,1.19140625
69.1124748,1.181640625
69.1524464,1.201171875
69.1527818,1.2158203125
69.1695824,1.2548828125
69.2085003,1.2939453125
69.2088166,1.328125
69.2466297,1.3525390625
69.2517801,1.376953125
69.3007453,1.396484375
69.3010441,1.4013671875
69.3114077,1.396484375
69.3330379,1.38671875
69.3694254,1.34765625
69.3696215,1.337890625
69.4100935,1.3427734375
69.4105061,1.3427734375
69.4396163,1.34765625
69.4512572,1.337890625
69.4709524,1.3330078125
69.5064779,1.3232421875
69.5323152,1.318359375
69.5325624,1.3037109375
69.5509444,1.298828125
69.5699865,1.2939453125
69.6124732,1.279296875
69.6127246,1.26953125
69.6319834,1.2548828125
69.6661144,1.25
69.6944154,1.240234375
69.694756,1.23046875
69.708642,1.2158203125
69.7422793,1.220703125
69.7626817,1.2109375
69.7688251,1.201171875
69.8039319,1.19140625
69.8349075,1.1962890625
69.8352919,1.2109375
69.8516465,1.240234375
69.8861619,1.2646484375
69.8902647,1.3134765625
69.9235929,1.34765625
69.9288968,1.3671875
69.961701,1.38671875
69.9840407,1.38671875
69.9931631,1.3916015625
70.0332122,1.3818359375
70.0336968,1.3720703125
70.0485518,1.3525390625
70.0840942,1.34765625
70.1105148,1.337890625
70.1107185,1.3330078125
70.1445711,1.3232421875
70.1651807,1.3232421875
70.1722238,1.3134765625
70.2079251,1.30859375
70.2122084,1.298828125
70.2509552,1.279296875
70.2718995,1.2646484375
70.2721262,1.25
70.3056413,1.25
70.3253419,1.240234375
70.3336723,1.23046875
70.3693231,1.2158203125
70.3713932,1.2109375
70.4054607,1.201171875
70.4375239,1.19140625
70.4379304,1.181640625
70.4486872,1.1865234375
70.4813112,1.181640625
70.5012753,1.181640625
70.5123829,1.19140625
70.5611532,1.220703125
70.5614661,1.259765625
70.5730372,1.2841796875
70.6054554,1.3134765625
70.6264796,1.3330078125
70.6307334,1.3623046875
70.6725698,1.3720703125
70.6728328,1.376953125
70.7085707,1.3720703125
70.7136265,1.3623046875
70.7492717,1.34765625
70.7515022,1.337890625
70.7849132,1.3232421875
70.7914566,1.3232421875
70.8274652,1.318359375
70.8303524,1.30859375
70.8714409,1.3037109375
70.8716386,1.2890625
70.9053047,1.279296875
70.9340801,1.2646484375
70.9343553,1.259765625
70.9487283,1.25
70.9824244,1.2451171875
71.0109076,1.2060546875
71.0112353,1.2109375
71.0510544,1.201171875
71.0807545,1.201171875
71.0809593,1.19140625
71.0938389,1.19140625
71.129084,1.1767578125
71.1583077,1.1669921875
71.158683,1.1572265625
71.1717188,1.171875
71.2204135,1.19140625
71.2207565,1.220703125
71.242932,1.259765625
71.2526043,1.2890625
71.2989102,1.318359375
71.2991255,1.337890625
71.3191405,1.357421875
71.3309831,1.3623046875
71.3652936,1.3720703125
71.3850989,1.3671875
71.3938878,1.3525390625
71.4351071,1.337890625
71.4353213,1.337890625
71.4695305,1.328125
71.4746972,1.318359375
71.5170793,1.318359375
71.5174696,1.30859375
71.5367326,1.30859375
71.5530662,1.298828125
71.5880783,1.2890625
71.5905193,1.2744140625
71.6276797,1.2646484375
71.6481489,1.2451171875
71.6540253,1.2353515625
71.689227,1.2158203125
71.6895305,1.2158203125
71.7350571,1.2060546875
71.7353211,1.201171875
71.7566722,1.19140625
71.7894209,1.181640625
71.7945156,1.1669921875
71.8293018,1.171875
71.8603645,1.181640625
71.8607078,1.201171875
71.8754932,1.2158203125
71.8935309,1.2548828125
71.9124016,1.298828125
71.9480245,1.328125
71.9664846,1.3525390625
71.9749939,1.3671875
72.0108017,1.376953125
72.0162536,1.376953125
72.0577209,1.3720703125
72.0582088,1.3525390625
72.0728455,1.34765625
72.1190183,1.337890625
72.1194419,1.328125
72.1341053,1.3232421875
72.1747716,1.3134765625
72.1751232,1.3037109375
72.2218201,1.298828125
72.2220759,1.2939453125
72.2329919,1.279296875
72.2701254,1.26953125
72.2743435,1.2548828125
72.3084816,1.25
72.3159912,1.2353515625
72.3340523,1.23046875
72.3728897,1.2158203125
72.3733882,1.201171875
72.4179636,1.1865234375
72.4183194,1.181640625
72.4329593,1.171875
72.4685177,1.1767578125
72.4961192,1.1767578125
72.4965398,1.171875
72.5202279,1.19140625
72.536337,1.2255859375
72.5732433,1.2646484375
72.5736564,1.3037109375
72.6202722,1.3427734375
72.620491,1.3623046875
72.6337252,1.38671875
72.6698368,1.3916015625
72.6741515,1.396484375
72.7100562,1.3916015625
72.7451915,1.38671875
72.7455108,1.3671875
72.7565061,1.3525390625
72.8044699,1.3427734375
72.804804,1.328125
72.8269592,1.3232421875
72.8350651,1.318359375
72.8712256,1.3134765625
72.8763162,1.298828125
72.9157674,1.298828125
72.9160007,1.279296875
72.9603994,1.26953125
72.9607306,1.25
72.9805215,1.25
72.9959535,1.2353515625
73.0135135,1.2255859375
73.0501722,1.2109375
73.069649,1.201171875
73.0789615,1.181640625
73.1117406,1.1767578125
73.1161515,1.1669921875
73.1502653,1.15234375
73.1550617,1.1474609375
73.1899072,1.142578125
73.1920925,1.1572265625
73.2247105,1.181640625
73.2453234,1.23046875
73.2549435,1.26953125
73.2909117,1.30859375
73.2911527,1.328125
73.3118837,1.3525390625
73.3454986,1.3623046875
73.3687324,1.376953125
73.3732547,1.3720703125
73.40585,1.3671875
73.4404009,1.357421875
73.4447613,1.337890625
73.4560615,1.3232421875
73.4728679,1.30859375
73.5200713,1.318359375
73.5204054,1.3134765625
73.5489322,1.3134765625
73.5532028,1.3037109375
73.5891038,1.298828125
73.6112612,1.279296875
73.6163011,1.26953125
73.6637473,1.25
73.6639436,1.2353515625
73.6925948,1.220703125
73.692873,1.2158203125
73.7260439,1.201171875
73.747228,1.201171875
73.7541596,1.19140625
73.7879946,1.181640625
73.809534,1.1669921875
73.8181381,1.162109375
73.8661542,1.1474609375
73.8663673,1.1328125
73.8724973,1.1328125
73.907393,1.142578125
73.9265012,1.171875
73.9353616,1.2158203125
73.9677343,1.2548828125
73.989278,1.2841796875
73.9971459,1.318359375
74.0123007,1.337890625
74.0586957,1.3525390625
74.0676641,1.3671875
74.0747312,1.3623046875
74.096072,1.3525390625
74.1303931,1.3330078125
74.1507958,1.3232421875
74.1552724,1.3037109375
74.1899824,1.298828125
74.2137558,1.2841796875
74.2140818,1.279296875
74.2459174,1.2744140625
74.2665293,1.2744140625
74.274877,1.2646484375
74.3084088,1.25
74.329248,1.2353515625
74.3356716,1.220703125
74.3700721,1.201171875
74.3774294,1.1669921875
74.3976499,1.1376953125
74.4148542,1.11328125
74.4506372,1.1279296875
74.4775501,1.1328125
74.4777918,1.1376953125
74.5114527,1.1279296875
74.516598,1.1279296875
74.5507571,1.1181640625
74.5731284,1.1181640625
74.5734951,1.1279296875
74.6187747,1.1669921875
74.619107,1.2060546875
74.6389068,1.2548828125
74.6553359,1.2841796875
74.689129,1.3134765625
74.7092576,1.3330078125
74.7186122,1.337890625
74.7534068,1.3427734375
74.7537472,1.328125
74.7754328,1.328125
74.8120212,1.3134765625
74.8162795,1.298828125
74.8564376,1.2841796875
74.856646,1.2744140625
74.8766107,1.2646484375
74.9103899,1.259765625
74.930222,1.25
74.9353193,1.25
74.96958,1.240234375
74.9907057,1.23046875
74.995186,1.220703125
75.0181191,1.2158203125
75.058266,1.2060546875
75.0585134,1.1865234375
75.0939776,1.1767578125
75.0945142,1.162109375
75.1152239,1.1572265625
75.1513721,1.142578125
75.1814382,1.1376953125
75.1817572,1.1279296875
75.1959722,1.123046875
75.2287338,1.1181640625
75.2492697,1.142578125
75.2585557,1.171875
75.3069613,1.1962890625
75.3072149,1.240234375
75.3378195,1.2841796875
75.3381101,1.3232421875
75.3738815,1.337890625
75.3781264,1.34765625
75.4129676,1.337890625
75.4193662,1.328125
75.4397711,1.30859375
75.4594842,1.2939453125
75.4764875,1.2744140625
75.5213602,1.2744140625
75.5217313,1.26953125
75.5387973,1.2744140625
75.5588082,1.26953125
75.5966548,1.26953125
75.5968672,1.259765625
75.6467531,1.25
75.6472037,1.23046875
75.6657761,1.23046875
75.6762931,1.220703125
75.7104916,1.2060546875
75.7309685,1.1962890625
75.7370089,1.181640625
75.7717985,1.1669921875
75.7960512,1.15234375
75.7984571,1.142578125
75.8334885,1.1279296875
75.8337853,1.1279296875
75.8693539,1.1328125
75.8908965,1.162109375
75.8973939,1.201171875
75.9341464,1.25
75.9380309,1.2841796875
75.9722805,1.318359375
75.9997805,1.34765625
76.0002037,1.3525390625
76.0173997,1.3720703125
76.061011,1.376953125
76.0612155,1.376953125
76.0766011,1.3623046875
76.1101789,1.34765625
76.1384077,1.328125
76.1386531,1.318359375
76.1718296,1.3037109375
76.1918567,1.298828125
76.1941635,1.2841796875
76.2311203,1.2841796875
76.2517078,1.26953125
76.2562507,1.2646484375
76.2883531,1.25
76.3114161,1.240234375
76.3208467,1.2255859375
76.3569487,1.2109375
76.3590091,1.201171875
76.3774747,1.1865234375
76.4122514,1.1865234375
76.418721,1.1767578125
76.4387413,1.1669921875
76.4736944,1.1572265625
76.4776524,1.15234375
76.5110585,1.1669921875
76.5318294,1.201171875
76.5360372,1.2353515625
76.5681322,1.2890625
76.6025157,1.328125
76.602784,1.3623046875
76.6189357,1.38671875
76.6554584,1.396484375
76.6581224,1.40625
76.6936014,1.3916015625
76.7129771,1.3818359375
76.7170256,1.3623046875
76.7514074,1.357421875
76.7708563,1.3427734375
76.7771002,1.3330078125
76.8117476,1.318359375
76.8319278,1.3134765625
76.8393871,1.3037109375
76.8756039,1.2939453125
76.9062308,1.2841796875
76.9064344,1.279296875
76.9158015,1.2353515625
76.9502576,1.240234375
76.9712132,1.2353515625
76.9780345,1.2255859375
77.0115217,1.2158203125
77.0328336,1.201171875
77.0415744,1.19140625
77.0928816,1.1767578125
77.0931246,1.1669921875
77.0982941,1.1572265625
77.1355551,1.171875
77.1460066,1.19140625
77.160013,1.2353515625
77.1791419,1.2744140625
77.21361,1.3134765625
77.2337444,1.337890625
77.2399203,1.3623046875
77.2738014,1.376953125
77.2933832,1.376953125
77.2962454,1.3818359375
77.3319236,1.376953125
77.3534903,1.3671875
77.359577,1.3525390625
77.3961041,1.3427734375
77.4010797,1.3330078125
77.4343387,1.3232421875
77.4544368,1.3134765625
77.4574591,1.3134765625
77.4925097,1.30859375
77.5224984,1.298828125
77.5229405,1.2890625
77.5553267,1.2744140625
77.57541,1.2548828125
77.5817815,1.259765625
77.6283125,1.2548828125
77.6285183,1.2451171875
77.6386699,1.240234375
77.6753616,1.23046875
77.680298,1.2158203125
77.7162097,1.201171875
77.7181521,1.1962890625
77.7528011,1.1865234375
77.7862769,1.201171875
77.7865643,1.23046875
77.8016378,1.2451171875
77.8183277,1.2841796875
77.8631405,1.328125
77.863475,1.357421875
77.8911115,1.3720703125
77.9001532,1.3916015625
77.9444891,1.38671875
77.944792,1.3818359375
77.9637527,1.3671875
77.9817219,1.357421875
77.9994016,1.3427734375
78.0343298,1.337890625
78.0385495,1.328125
78.0718455,1.3232421875
78.1024317,1.3134765625
78.1028815,1.3134765625
78.1397013,1.3037109375
78.1402459,1.298828125
78.1596264,1.2841796875
78.1950283,1.2744140625
78.19964,1.259765625
78.2335568,1.259765625
78.2529478,1.2451171875
78.2599035,1.23046875
78.2947161,1.2158203125
78.3173396,1.201171875
78.322624,1.1865234375
78.3406968,1.181640625
78.3771192,1.1865234375
78.3775458,1.2060546875
78.412107,1.240234375
78.4397072,1.26953125
78.4399631,1.298828125
78.4725248,1.318359375
78.4936965,1.3330078125
78.4992734,1.337890625
78.5203437,1.34765625
78.5633114,1.3525390625
78.5636747,1.337890625
78.5952633,1.3232421875
78.6003231,1.30859375
78.6414647,1.3037109375
78.6417861,1.298828125
78.6890143,1.2939453125
78.6893904,1.2841796875
78.7116867,1.2744140625
78.719742,1.259765625
78.7399541,1.259765625
78.7822836,1.2451171875
78.7826335,1.240234375
78.8136441,1.23046875
78.8216192,1.2255859375
78.8578227,1.2060546875
78.8929661,1.1962890625
78.8932327,1.19140625
78.8994991,1.1767578125
78.9370579,1.171875
78.9405137,1.1669921875
78.9837468,1.1767578125
78.9840195,1.19140625
79.0040178,1.220703125
79.0372898,1.2451171875
79.0572746,1.26953125
79.059297,1.2890625
79.0923941,1.30859375
79.1133274,1.318359375
79.1212839,1.3232421875
79.1539759,1.318359375
79.1740984,1.30859375
79.1822301,1.3037109375
79.2233347,1.2890625
79.2236189,1.279296875
79.2440983,1.2646484375
79.2593261,1.26953125
79.3035975,1.26953125
79.3038787,1.2646484375
79.325355,1.2548828125
79.3424155,1.25
79.3807159,1.2353515625
79.383667,1.2255859375
79.4001088,1.2109375
79.4422601,1.2060546875
79.442543,1.201171875
79.4751538,1.19140625
79.49691,1.181640625
79.5010677,1.1767578125
79.5530468,1.171875
79.553321,1.162109375
79.5637585,1.1669921875
79.5980753,1.1767578125
79.6183224,1.2060546875
79.6185486,1.23046875
79.6535991,1.2744140625
79.6753443,1.3037109375
79.6815522,1.3330078125
79.7137032,1.34765625
79.7350441,1.357421875
79.7434649,1.3525390625
79.7768447,1.3525390625
79.7991971,1.337890625
79.7995209,1.3330078125
79.8438911,1.328125
79.844231,1.3134765625
79.8635951,1.30859375
79.8960995,1.298828125
79.9158751,1.298828125
79.9223204,1.2841796875
79.957448,1.2744140625
79.9817984,1.2646484375
79.9822011,1.259765625
80.0162799,1.2451171875
80.0204196,1.2451171875
80.0537943,1.23046875
80.0754713,1.220703125
80.0830484,1.2109375
80.1218361,1.201171875
80.122037,1.19140625
80.1556256,1.1962890625
80.1758196,1.1962890625
80.1811453,1.19140625
80.217363,1.19140625
80.2482794,1.1962890625
80.2486304,1.2255859375
80.2648779,1.25
80.3079064,1.2744140625
80.3081469,1.2939453125
80.3240338,1.2890625
80.3699775,1.2890625
80.3703939,1.318359375
80.3818401,1.3330078125
80.4173533,1.337890625
80.4376601,1.3330078125
80.4436983,1.328125
80.4801509,1.3232421875
80.5100145,1.30859375
80.5102199,1.3037109375
80.5214306,1.2939453125
80.5562621,1.2939453125
80.5759615,1.2841796875
80.5832377,1.2841796875
80.6167565,1.26953125
80.6376003,1.2646484375
80.6437293,1.25
80.678169,1.2451171875
80.6973793,1.23046875
80.7017521,1.2353515625
80.7355434,1.2255859375
80.7545458,1.220703125
80.763192,1.2060546875
80.8113735,1.201171875
80.8115761,1.1962890625
80.82372,1.1865234375
80.8604283,1.1865234375
80.8897143,1.19140625
80.8900653,1.220703125
80.9025156,1.2451171875
80.9369643,1.2744140625
80.9584747,1.2939453125
80.9693223,1.3134765625
80.9849661,1.328125
81.0210164,1.337890625
81.0213319,1.3427734375
81.0498069,1.34765625
81.0627218,1.3427734375
81.097679,1.328125
81.11815,1.3232421875
81.123524,1.30859375
81.1717959,1.298828125
81.1725958,1.2939453125
81.1920892,1.298828125
81.2062983,1.2841796875
81.2261275,1.279296875
81.2430753,1.259765625
81.2812339,1.2548828125
81.2832917,1.240234375
81.3175109,1.240234375
81.3443156,1.2255859375
81.3445782,1.220703125
81.391604,1.2109375
81.3918076,1.2060546875
81.4079674,1.1865234375
81.4245624,1.19140625
81.4611535,1.19140625
81.461472,1.181640625
81.4974805,1.1767578125
81.5217802,1.171875
81.5237093,1.1669921875
81.5560806,1.1767578125
81.5762092,1.201171875
81.5822956,1.2255859375
81.6154689,1.2646484375
81.6365976,1.2841796875
81.6446516,1.30859375
81.6940424,1.318359375
81.6943639,1.337890625
81.7040785,1.3427734375
81.7374078,1.3427734375
81.7577832,1.337890625
81.7624294,1.3232421875
81.8056435,1.3232421875
81.8059838,1.3134765625
81.8224432,1.3134765625
81.856972,1.3037109375
81.877063,1.298828125
81.8849528,1.2890625
81.918249,1.2841796875
81.9391702,1.2744140625
81.9437805,1.279296875
81.9892329,1.26953125
81.9895001,1.26953125
82.0046409,1.259765625
82.0508347,1.2451171875
82.0510414,1.240234375
82.065784,1.2353515625
82.1017736,1.220703125
82.1065138,1.201171875
82.1390039,1.19140625
82.1606854,1.1767578125
82.1658844,1.1767578125
82.2080809,1.1767578125
82.2085616,1.19140625
82.2264536,1.2109375
82.2694954,1.2353515625
82.2698194,1.2548828125
82.2869012,1.2841796875
82.3039036,1.2939453125
82.347158,1.318359375
82.3473676,1.3232421875
82.3668969,1.3330078125
82.3863344,1.3330078125
82.4338939,1.3232421875
82.4340924,1.30859375
82.4481334,1.298828125
82.4962131,1.2939453125
82.4964226,1.279296875
82.5022242,1.279296875
82.5345658,1.2744140625
82.5554109,1.2744140625
82.5668578,1.2646484375
82.6072575,1.2646484375
82.6075517,1.25
82.6446096,1.2451171875
82.6448551,1.23046875
82.6760364,1.23046875
82.6862746,1.220703125
82.7216002,1.220703125
82.7234552,1.2158203125
82.7580676,1.2060546875
82.7783854,1.1962890625
82.7878718,1.1865234375
82.8224494,1.1767578125
82.8265842,1.1669921875
82.8476284,1.15234375
82.8653793,1.15234375
82.9079959,1.201171875
82.9082234,1.240234375
82.9404269,1.2744140625
82.9464498,1.298828125
82.9861309,1.3232421875
82.9904453,1.3330078125
83.0086167,1.34765625
83.0482642,1.357421875
83.0484748,1.34765625
83.0661936,1.3427734375
83.1110613,1.3330078125
83.111276,1.328125
83.1270126,1.318359375
83.1631361,1.30859375
83.1671978,1.298828125
83.200788,1.2939453125
83.23461,1.279296875
83.2352685,1.2841796875
83.2431745,1.2744140625
83.2777497,1.2744140625
83.2962642,1.259765625
83.3082741,1.25
83.3266702,1.2353515625
83.3745681,1.23046875
83.3747739,1.2158203125
83.385794,1.201171875
83.4354235,1.1962890625
83.4356306,1.1962890625
83.4463115,1.1865234375
83.4971059,1.1865234375
83.4973476,1.2060546875
83.5079424,1.23046875
83.5438157,1.259765625
83.5441616,1.279296875
83.5647786,1.3134765625
83.6015028,1.337890625
83.6060416,1.357421875
83.6509849,1.3720703125
83.6513095,1.376953125
83.6674449,1.376953125
83.6877711,1.3623046875
83.7229411,1.357421875
83.7434523,1.3427734375
83.7478789,1.318359375
83.7817075,1.3134765625
83.7867873,1.3232421875
83.8192748,1.318359375
83.8396587,1.318359375
83.8460335,1.30859375
83.8826149,1.3037109375
83.9049703,1.2841796875
83.9092107,1.2744140625
83.9251177,1.2646484375
83.974375,1.259765625
83.9747785,1.2451171875
83.9861606,1.240234375
84.0290729,1.23046875
84.0295308,1.220703125
84.0744636,1.2109375
84.0746655,1.201171875
84.0885772,1.19140625
84.1067771,1.181640625
84.1278783,1.1962890625
84.1669353,1.220703125
84.1671413,1.2548828125
84.2038268,1.2841796875
84.227504,1.30859375
84.2277706,1.3330078125
84.2734167,1.3623046875
84.274036,1.3720703125
84.3036402,1.38671875
84.3056933,1.396484375
84.3496343,1.3916015625
84.3498532,1.3818359375
84.3695992,1.3671875
84.4037464,1.3525390625
84.4255783,1.3330078125
84.4299206,1.3232421875
84.4455812,1.3134765625
84.4879874,1.3134765625
84.4882784,1.3037109375
84.5213442,1.298828125
84.5425465,1.2841796875
84.5491461,1.2744140625
84.5860002,1.2646484375
84.5913031,1.25
84.6084151,1.2353515625
84.6430582,1.2255859375
84.6632327,1.2109375
84.6652318,1.19140625
84.7065325,1.1865234375
84.7067777,1.1767578125
84.7271241,1.171875
84.7679005,1.162109375
84.7681053,1.162109375
84.7884373,1.162109375
84.8303891,1.171875
84.8307071,1.201171875
84.8605116,1.240234375
84.8672552,1.26953125
84.9015016,1.3037109375
84.9231213,1.318359375
84.927184,1.3330078125
84.9697668,1.3427734375
84.9700111,1.3427734375
84.9982253,1.3427734375
85.0084398,1.3330078125
85.0272207,1.3330078125
85.0760605,1.3232421875
85.0763267,1.3134765625
85.0878491,1.298828125
85.1376288,1.2939453125
85.1378317,1.279296875
85.1585992,1.2744140625
85.1650113,1.259765625
85.1980729,1.259765625
85.2191384,1.25
85.2273039,1.2451171875
85.2620045,1.2255859375
85.2825381,1.2255859375
85.2919097,1.2109375
85.309531,1.1962890625
85.3577013,1.181640625
85.3579698,1.171875
85.3857053,1.1669921875
85.3859062,1.1572265625
85.4207493,1.15234375
85.4406081,1.142578125
85.4488189,1.142578125
85.4696582,1.1572265625
85.5101245,1.181640625
85.510331,1.2109375
85.5444534,1.2451171875
85.5654703,1.26953125
85.5672606,1.2890625
85.6017466,1.30859375
85.6327066,1.3037109375
85.6330626,1.3037109375
85.6493919,1.2890625
85.6846405,1.2744140625
85.6887294,1.259765625
85.7220273,1.2451171875
85.743502,1.2353515625
85.7492648,1.2353515625
85.7838784,1.2353515625
85.7885596,1.240234375
85.8226693,1.2353515625
85.8432145,1.2353515625
85.8492441,1.220703125
85.8837706,1.2109375
85.9047466,1.1962890625
85.9100543,1.1962890625
85.9282329,1.19140625
85.9652077,1.181640625
85.9672428,1.171875
85.9996805,1.1572265625
86.0202913,1.15234375
86.0305949,1.1376953125
86.0642869,1.1328125
86.0857244,1.1279296875
86.0878075,1.142578125
86.1232171,1.1669921875
86.1464536,1.201171875
86.1493874,1.23046875
86.1923983,1.2646484375
86.1926527,1.279296875
86.2384992,1.2939453125
86.2387139,1.3037109375
86.2518517,1.2939453125
86.2849723,1.2646484375
86.3050698,1.2353515625
86.3070473,1.25
86.3493645,1.2451171875
86.3496455,1.2451171875
86.3714486,1.2353515625
86.4078603,1.240234375
86.4098834,1.2353515625
86.4447156,1.23046875
86.4689622,1.220703125
86.4692697,1.2158203125
86.5156902,1.2060546875
86.5160942,1.1962890625
86.5370452,1.1865234375
86.5504592,1.181640625
86.5952908,1.171875
86.5954947,1.162109375
86.6150328,1.15234375
86.6301226,1.142578125
86.6719896,1.142578125
86.6722382,1.1376953125
86.7074779,1.142578125
86.7116587,1.15234375
86.7324382,1.181640625
86.7669727,1.2109375
86.7700753,1.2451171875
86.7873507,1.26953125
86.8204584,1.3037109375
86.8437096,1.318359375
86.8509968,1.328125
86.886037,1.3330078125
86.890177,1.3232421875
86.9244835,1.3134765625
86.9450295,1.2939453125
86.951648,1.2841796875
86.9682749,1.2744140625
87.0113959,1.26953125
87.011671,1.2646484375
87.0327486,1.2646484375
87.0511085,1.2548828125
87.0876642,1.25
87.0912692,1.2353515625
87.1258015,1.2255859375
87.1458937,1.2158203125
87.1531035,1.201171875
87.1684011,1.1865234375
87.203967,1.1865234375
87.2251607,1.181640625
87.2315714,1.171875
87.2809712,1.162109375
87.2813037,1.15234375
87.2935987,1.142578125
87.3142395,1.142578125
87.3502142,1.1572265625
87.3505647,1.181640625
87.3881046,1.23046875
87.4101643,1.2646484375
87.4105104,1.3037109375
87.4524482,1.318359375
87.4527748,1.337890625
87.4842347,1.34765625
87.4943789,1.3525390625
87.5297976,1.3525390625
87.5300022,1.3330078125
87.5755969,1.328125
87.5759227,1.3134765625
87.5911276,1.30859375
87.6369329,1.2890625
87.6371329,1.2841796875
87.6581654,1.2744140625
87.6713404,1.2744140625
87.7048147,1.2646484375
87.709731,1.2646484375
87.7454827,1.25
87.7712812,1.240234375
87.7715028,1.23046875
87.8180711,1.220703125
87.818413,1.2060546875
87.8487181,1.2060546875
87.8528128,1.201171875
87.8699354,1.19140625
87.9136428,1.19140625
87.914012,1.181640625
87.9316065,1.181640625
87.9666406,1.1865234375
87.9927947,1.201171875
87.9930388,1.23046875
88.0397427,1.2646484375
88.0400397,1.2939453125
88.0683403,1.318359375
88.0705757,1.337890625
88.1158123,1.3623046875
88.1161312,1.3720703125
88.1448138,1.3671875
88.1522351,1.3671875
88.1733755,1.34765625
88.2240578,1.337890625
88.2243919,1.318359375
88.2324731,1.30859375
88.2505414,1.2939453125
88.2995729,1.2939453125
88.3005635,1.2841796875
88.3123034,1.2841796875
88.3478144,1.26953125
88.3549492,1.2646484375
88.3904277,1.2548828125
88.3932158,1.25
88.4091535,1.2353515625
88.444244,1.23046875
88.4713661,1.2158203125
88.4716615,1.2158203125
88.5038709,1.201171875
88.5255074,1.1865234375
88.5338741,1.1767578125
88.5798379,1.1669921875
88.5801019,1.1572265625
88.5902356,1.162109375
88.6255565,1.1865234375
88.6298236,1.2255859375
88.6695986,1.2646484375
88.6868392,1.298828125
88.693285,1.328125
88.7344682,1.337890625
88.7347547,1.3525390625
88.7505771,1.3525390625
88.7951982,1.357421875
88.7956844,1.3232421875
88.8110428,1.2841796875
88.8458498,1.2939453125
88.8674335,1.2939453125
88.8739492,1.298828125
88.9191119,1.2939453125
88.9194023,1.2939453125
88.9351799,1.2890625
88.9551864,1.279296875
88.9716807,1.2646484375
89.0133891,1.2646484375
89.0137412,1.2548828125
89.032239,1.25
89.0757031,1.2353515625
89.0760083,1.2255859375
89.0968158,1.2109375
89.143796,1.2060546875
89.1439982,1.201171875
89.1521381,1.1865234375
89.1715486,1.19140625
89.2199817,1.181640625
89.2202877,1.1767578125
89.2400944,1.181640625
89.2539587,1.201171875
89.2895009,1.23046875
89.296743,1.2646484375
89.3117399,1.2890625
89.3311431,1.3232421875
89.3757858,1.337890625
89.3760589,1.357421875
89.3958907,1.357421875
89.4120654,1.357421875
89.4467906,1.34765625
89.4680526,1.328125
89.475394,1.3134765625
89.4928026,1.3037109375
89.5410449,1.3037109375
89.5413281,1.298828125
89.5535666,1.2939453125
89.6093168,1.2841796875
89.6095182,1.279296875
89.6143195,1.2646484375
89.6504081,1.2548828125
89.6547113,1.2353515625
89.6902465,1.2255859375
89.721972,1.2060546875
89.7221727,1.2060546875
89.7337004,1.19140625
89.7686732,1.19140625
89.7977043,1.181640625
89.7983234,1.171875
89.8160409,1.1669921875
89.8516828,1.1572265625
89.857309,1.1669921875
89.8722462,1.19140625
89.9212118,1.240234375
89.9215515,1.279296875
89.9434236,1.318359375
89.9555102,1.3427734375
89.9900029,1.3623046875
89.9949113,1.3671875
90.0284173,1.3671875
90.0494843,1.357421875
90.0536749,1.3525390625
90.0741411,1.34765625
90.1236365,1.3330078125
90.1239572,1.3232421875
90.1328431,1.30859375
90.1677032,1.30859375
90.1884507,1.2939453125
90.1954456,1.2890625
90.2121645,1.2744140625
90.2573878,1.2744140625
90.2576592,1.259765625
90.2734273,1.2548828125
90.3179173,1.2353515625
90.3185084,1.220703125
90.3355779,1.2109375
90.3785438,1.201171875
90.3787531,1.1865234375
90.399014,1.19140625
90.4122397,1.1865234375
90.4578442,1.181640625
90.4581893,1.19140625
90.4869499,1.220703125
90.4955163,1.259765625
90.5310567,1.2939453125
90.5640581,1.328125
90.5644198,1.3525390625
90.57723,1.3720703125
90.5946693,1.3818359375
90.61364,1.4013671875
90.6578978,1.4013671875
90.6581633,1.396484375
90.6881347,1.3818359375
90.6965922,1.3671875
90.7305234,1.357421875
90.7353914,1.3427734375
90.781214,1.337890625
90.7815566,1.3232421875
90.8007598,1.328125
90.8149401,1.3134765625
90.8504512,1.30859375
90.8706883,1.2939453125
90.8750519,1.2841796875
90.9197677,1.2646484375
90.9201678,1.259765625
90.9417389,1.2451171875
90.954522,1.25
90.9964732,1.2353515625
90.9966732,1.2255859375
91.0161664,1.2109375
91.0514268,1.2060546875
91.0562611,1.201171875
91.1055321,1.1962890625
91.1058557,1.220703125
91.1356026,1.2548828125
91.1359053,1.3037109375
91.1727784,1.3427734375
91.1731843,1.376953125
91.2069269,1.396484375
91.2297174,1.4111328125
91.2377585,1.4208984375
91.255359,1.4208984375
91.2738558,1.4111328125
91.3087818,1.40625
91.3285687,1.3623046875
91.3347141,1.3623046875
91.367465,1.3623046875
91.3880373,1.3525390625
91.3965556,1.34765625
91.4446854,1.337890625
91.4450316,1.3330078125
91.4653948,1.3232421875
91.4776542,1.3134765625
91.4940022,1.298828125
91.5279689,1.2939453125
91.5536266,1.279296875
91.5538702,1.2744140625
91.591719,1.259765625
91.5959934,1.25
91.6315654,1.2353515625
91.6633904,1.220703125
91.6637083,1.201171875
91.6737518,1.201171875
91.7237497,1.2060546875
91.7240573,1.2158203125
91.7339997,1.2451171875
91.7679238,1.2744140625
91.8015024,1.3134765625
91.8017781,1.337890625
91.8350665,1.3671875
91.8352654,1.376953125
91.8682762,1.3916015625
91.8949528,1.3916015625
91.8952822,1.3916015625
91.939556,1.376953125
91.9398944,1.3720703125
91.9615745,1.357421875
91.9767493,1.34765625
92.013257,1.3427734375
92.0135968,1.3330078125
92.0334483,1.3330078125
92.0683522,1.3232421875
92.0969001,1.318359375
92.0971559,1.3037109375
92.1195346,1.2939453125
92.1546395,1.2744140625
92.1572293,1.259765625
92.1773322,1.2451171875
92.2138191,1.2109375
92.2391865,1.201171875
92.2394215,1.201171875
92.2572716,1.1962890625
92.2990961,1.19140625
92.2992993,1.181640625
92.3405009,1.1767578125
92.341084,1.171875
92.3572063,1.1767578125
92.3911944,1.201171875
92.4128422,1.23046875
92.4130712,1.26953125
92.4509304,1.3037109375
92.4806519,1.3330078125
92.4808858,1.3525390625
92.4959004,1.3671875
92.5284687,1.3720703125
92.5482612,1.3623046875
92.5552925,1.34765625
92.6044847,1.3427734375
92.6046857,1.328125
92.6145011,1.318359375
92.6473983,1.3134765625
92.6712334,1.3037109375
92.6779431,1.298828125
92.7195513,1.2939453125
92.7198962,1.2841796875
92.7348168,1.26953125
92.7690493,1.2646484375
92.7894026,1.2548828125
92.7974446,1.25
92.8332103,1.2353515625
92.8375402,1.2255859375
92.8724286,1.2109375
92.8941485,1.1962890625
92.8943903,1.181640625
92.9332117,1.1767578125
92.9496732,1.1669921875
92.9561889,1.1767578125
92.9898133,1.1865234375
93.0127013,1.201171875
93.0188147,1.2255859375
93.0538445,1.259765625
93.0590309,1.2890625
93.0938889,1.3134765625
93.0985821,1.3330078125
93.1322618,1.3427734375
93.1368995,1.3525390625
93.1819317,1.34765625
93.1821628,1.337890625
93.2023347,1.3232421875
93.2170069,1.3134765625
93.2529962,1.298828125
93.2756672,1.2939453125
93.2815646,1.2890625
93.2961306,1.279296875
93.330088,1.279296875
93.3556715,1.2744140625
93.3667684,1.26953125
93.3790565,1.2548828125
93.4212939,1.2451171875
93.4259777,1.2255859375
93.4406931,1.2109375
93.4560499,1.1962890625
93.4763928,1.1962890625
93.5216797,1.181640625
93.5218852,1.181640625
93.5432575,1.171875
93.5599413,1.1669921875
93.6049504,1.15234375
93.6051489,1.162109375
93.6197348,1.19140625
93.6537545,1.2158203125
93.6541372,1.2646484375
93.6880187,1.298828125
93.7111388,1.3330078125
93.7181746,1.3525390625
93.7614022,1.376953125
93.7617491,1.3818359375
93.7809215,1.38671875
93.7970308,1.3720703125
93.8330381,1.3671875
93.8383753,1.357421875
93.8870027,1.34765625
93.8872837,1.3330078125
93.8982904,1.328125
93.9324643,1.318359375
93.9528824,1.3037109375
93.9592624,1.298828125
93.996241,1.2890625
94.017666,1.2890625
94.0180809,1.279296875
94.053009,1.279296875
94.0573933,1.26953125
94.0903877,1.2646484375
94.1119977,1.25
94.1181977,1.240234375
94.1539431,1.2255859375
94.1756247,1.2158203125
94.1759833,1.2109375
94.2267703,1.2060546875
94.2271002,1.201171875
94.2541842,1.2109375
94.2581276,1.2353515625
94.3009416,1.2646484375
94.3011793,1.30859375
94.328803,1.337890625
94.3419978,1.3720703125
94.35686,1.3916015625
94.385386,1.416015625
94.399539,1.42578125
94.4178856,1.42578125
94.4548095,1.416015625
94.4763044,1.4013671875
94.4780763,1.38671875
94.5124033,1.376953125
94.5341207,1.3623046875
94.5370595,1.357421875
94.5863179,1.357421875
94.586595,1.34765625
94.5988736,1.337890625
94.6477696,1.3232421875
94.6479706,1.3134765625
94.669314,1.298828125
94.6802006,1.2890625
94.7017386,1.2744140625
94.7224043,1.240234375
94.7381576,1.2060546875
94.7744517,1.220703125
94.7785483,1.2109375
94.8122013,1.2060546875
94.8369347,1.1962890625
94.8410119,1.19140625
94.8754577,1.1767578125
94.8815569,1.181640625
94.9279301,1.1962890625
94.9282386,1.220703125
94.9482231,1.259765625
94.959498,1.298828125
94.9945414,1.328125
95.0200908,1.3525390625
95.0229059,1.3818359375
95.0412209,1.3916015625
95.0803317,1.4013671875
95.0805377,1.3916015625
95.1014871,1.38671875
95.1357971,1.3720703125
95.1401777,1.3623046875
95.1741668,1.34765625
95.1797218,1.337890625
95.2157203,1.337890625
95.2505885,1.3232421875
95.2510444,1.3134765625
95.2592361,1.298828125
95.2953318,1.298828125
95.2972718,1.2841796875
95.3314648,1.26953125
95.3569234,1.2548828125
95.3638518,1.25
95.3804132,1.23046875
95.419656,1.2255859375
95.4200038,1.2109375
95.4412223,1.2060546875
95.4884282,1.19140625
95.4886557,1.181640625
95.5011308,1.1669921875
95.5384618,1.1669921875
95.5436445,1.1767578125
95.5615972,1.1962890625
95.5821581,1.2353515625
95.6186505,1.2646484375
95.6256716,1.298828125
95.6391604,1.3232421875
95.6741496,1.3525390625
95.678268,1.3671875
95.7158605,1.3720703125
95.7491291,1.3671875
95.7493341,1.3525390625
95.7611681,1.328125
95.7987027,1.318359375
95.8288657,1.3037109375
95.8292881,1.3037109375
95.8405499,1.3037109375
95.8598077,1.2939453125
95.904547,1.2841796875
95.9048924,1.2744140625
95.9244718,1.26953125
95.9689186,1.2548828125
95.9692468,1.2451171875
95.9795814,1.23046875
96.0148125,1.2255859375
96.0187939,1.2158203125
96.0567514,1.2158203125
96.0753634,1.2060546875
96.0818006,1.201171875
96.1196791,1.19140625
96.1198769,1.181640625
96.1659888,1.162109375
96.1662518,1.171875
96.1811932,1.19140625
96.2148465,1.220703125
96.2198263,1.2548828125
96.2550614,1.2841796875
96.2739756,1.3134765625
96.282013,1.328125
96.3189782,1.34765625
96.3515078,1.3525390625
96.3518644,1.3623046875
96.3601177,1.3525390625
96.3817168,1.337890625
96.415957,1.318359375
96.4201015,1.30859375
96.454009,1.2939453125
96.476509,1.2841796875
96.4839573,1.2841796875
96.5182602,1.26953125
96.5221246,1.259765625
96.5686408,1.2451171875
96.568843,1.25
96.5816548,1.240234375
96.6245085,1.2353515625
96.6248558,1.220703125
96.6599766,1.2109375
96.6603343,1.1962890625
96.7010375,1.19140625
96.7014371,1.171875
96.7306257,1.1669921875
96.7390771,1.162109375
96.7734127,1.15234375
96.7944661,1.1474609375
96.8030243,1.171875
96.8397705,1.201171875
96.8418294,1.2353515625
96.8759182,1.2744140625
96.9019488,1.3037109375
96.9021521,1.337890625
96.9470406,1.3623046875
96.9472435,1.3818359375
96.9621727,1.38671875
96.9981611,1.38671875
97.0244894,1.3720703125
97.0248218,1.357421875
97.0397318,1.337890625
97.0778729,1.3427734375
97.0822765,1.337890625
97.1192686,1.3330078125
97.1212677,1.3330078125
97.1579641,1.318359375
97.1805891,1.30859375
97.1808926,1.2939453125
97.2263808,1.2890625
97.2266259,1.26953125
97.2459727,1.2353515625
97.2602738,1.201171875
97.2939748,1.2060546875
97.3149653,1.201171875
97.3230471,1.201171875
97.3578417,1.1865234375
97.3797153,1.1865234375
97.385218,1.171875
97.4166619,1.1669921875
97.4378343,1.162109375
97.4420036,1.19140625
97.491432,1.23046875
97.4917565,1.2646484375
97.5035048,1.30859375
97.5360164,1.337890625
97.5577593,1.3623046875
97.5660547,1.376953125
97.6026553,1.3916015625
97.603061,1.38671875
97.6395653,1.3916015625
97.6397702,1.3818359375
97.692363,1.3720703125
97.6926139,1.357421875
97.702666,1.34765625
97.7366931,1.337890625
97.7718397,1.3232421875
97.7720492,1.3232421875
97.7823116,1.3037109375
97.8167071,1.3037109375
97.8207861,1.2939453125
97.8533935,1.2841796875
97.8757347,1.26953125
97.8842739,1.259765625
97.9223882,1.2451171875
97.922722,1.2353515625
97.9572262,1.2158203125
97.9612693,1.2109375
97.996071,1.1962890625
98.0297248,1.1865234375
98.0300481,1.1767578125
98.0431095,1.171875
98.0785763,1.1767578125
98.098289,1.2158203125
98.1060663,1.2548828125
98.140787,1.2890625
98.1449472,1.318359375
98.179536,1.337890625
98.179896,1.3623046875
98.2230336,1.376953125
98.2532756,1.38671875
98.2534896,1.38671875
98.2740044,1.376953125
98.284663,1.357421875
98.3193331,1.3427734375
98.3466537,1.328125
98.3468842,1.328125
98.3630565,1.3232421875
98.4096587,1.318359375
98.4101659,1.318359375
98.4247019,1.3037109375
98.4518055,1.2939453125
98.4821313,1.2744140625
98.4865661,1.2646484375
98.5033312,1.25
98.5450444,1.240234375
98.5452585,1.2255859375
98.5936288,1.2158203125
98.5939813,1.201171875
98.6052347,1.1962890625
98.6539869,1.181640625
98.6541868,1.1767578125
98.6600554,1.162109375
98.6947524,1.162109375
98.7177741,1.1767578125
98.7258817,1.2158203125
98.7429059,1.2548828125
98.7754373,1.2841796875
98.7956041,1.3134765625
98.8061249,1.3330078125
98.8417684,1.34765625
98.8420382,1.34765625
98.8759917,1.3525390625
98.9031723,1.34765625
98.903565,1.3427734375
98.9365267,1.3232421875
98.9586352,1.3134765625
98.9661464,1.3037109375
98.9852021,1.298828125
99.0186595,1.2890625
99.0397145,1.2841796875
99.0462615,1.279296875
99.0641289,1.2646484375
99.1062472,1.2548828125
99.1065322,1.25
99.1242508,1.2451171875
99.1579808,1.23046875
99.1779707,1.220703125
99.1841956,1.2060546875
99.2184848,1.19140625
99.2437931,1.1767578125
99.2439947,1.1767578125
99.2854824,1.171875
99.2856887,1.171875
99.3307465,1.1767578125
99.3309539,1.1962890625
99.3451442,1.220703125
99.3783372,1.259765625
99.3992881,1.298828125
99.4019922,1.318359375
99.4365935,1.3427734375
99.4593148,1.3525390625
99.4654823,1.357421875
99.5011569,1.34765625
99.5060251,1.3427734375
99.5428851,1.3232421875
99.5471332,1.30859375
99.562021,1.2939453125
99.5960856,1.2939453125
99.6167563,1.2890625
99.6229098,1.2890625
99.6566992,1.2841796875
99.6861232,1.2744140625
99.6864465,1.26953125
99.7215908,1.25
99.7505452,1.240234375
99.7507928,1.220703125
99.7677713,1.220703125
99.7842675,1.1767578125
99.8276277,1.1767578125
99.8278295,1.1767578125
99.8731788,1.171875
99.8734245,1.162109375
99.8867627,1.162109375
99.9341616,1.1669921875
99.9513222,1.19140625
99.951657,1.2158203125
99.9646396,1.259765625
100.0013131,1.2890625
100.0067435,1.328125
100.0247841,1.3525390625
100.0757586,1.3623046875
100.076056,1.3671875
100.1064687,1.3671875
100.1066892,1.3525390625
100.1260988,1.3427734375
100.1436919,1.3427734375
100.1811044,1.3330078125
100.2013374,1.328125
100.2062477,1.3232421875
100.2417669,1.318359375
100.2466297,1.30859375
100.2811634,1.3037109375
100.3110838,1.2890625
100.3115425,1.2841796875
100.3249679,1.279296875
100.3744182,1.259765625
100.3746651,1.25
100.405862,1.2353515625
100.4061178,1.2255859375
100.4521592,1.2109375
100.4527973,1.201171875
100.4717318,1.181640625
100.4827701,1.1767578125
100.5164726,1.1669921875
100.5364329,1.1767578125
100.5464463,1.19140625
100.580872,1.2255859375
100.606201,1.259765625
100.606432,1.2939453125
100.6384976,1.3134765625
100.648086,1.3232421875
100.6693384,1.328125
100.6858826,1.34765625
100.7102257,1.3671875
100.7275062,1.3671875
100.7488713,1.357421875
100.7759364,1.34765625
100.787654,1.337890625
100.8215655,1.328125
100.8424756,1.318359375
100.8444725,1.30859375
100.8791832,1.3037109375
100.9013514,1.2939453125
100.9064475,1.2939453125
100.9439428,1.279296875
100.9470427,1.26953125
100.9940531,1.259765625
100.9942565,1.240234375
101.0084647,1.23046875
101.0240623,1.2158203125
101.0631596,1.2109375
101.0921725,1.201171875
101.0924208,1.1962890625
101.1065016,1.181640625
101.1464602,1.1767578125
101.1638448,1.171875
101.1681442,1.1865234375
101.1863132,1.1962890625
101.2287225,1.240234375
101.228928,1.279296875
101.2616633,1.3134765625
101.2657538,1.3330078125
101.300908,1.357421875
101.3235262,1.3671875
101.3276023,1.3671875
101.3749521,1.3623046875
101.3751536,1.34765625
101.3859051,1.3427734375
101.4068428,1.328125
101.4451488,1.328125
101.4500165,1.3134765625
