fs,t,y
51.51761808343617,0.3529696000000002,1.513671875
,0.3738564000000002,1.54296875
,0.3742816000000002,1.5771484375
,0.4260234999999999,1.630859375
,0.4263515,1.6943359375
,0.43599010000000016,1.7236328125
,0.47324089999999996,1.767578125
,0.4944242000000001,1.8017578125
,0.49731950000000014,1.8505859375
,0.5493427,1.8798828125
,0.5496679000000002,1.9091796875
,0.5592773000000002,1.9091796875
,0.5807302000000001,1.8798828125
,0.5966509000000002,1.8408203125
,0.6319275000000002,1.875
,0.6366432,1.8798828125
,0.6724321999999998,1.8798828125
,0.6924492,1.8701171875
,0.6971213,1.85546875
,0.7332784999999999,1.8310546875
,0.7541424999999999,1.81640625
,0.7588461,1.8017578125
,0.7771495000000002,1.77734375
,0.8128161,1.767578125
,0.8174912000000001,1.7529296875
,0.8525508999999998,1.7333984375
,0.8603143000000002,1.7138671875
,0.8801247000000001,1.69921875
,0.9240469999999998,1.6796875
,0.9243712999999998,1.66015625
,0.9359473999999999,1.6357421875
,0.9722816999999999,1.62109375
,0.9787895,1.611328125
,0.9974734000000001,1.6015625
,1.0335408,1.58203125
,1.039012,1.5673828125
,1.0742897,1.5576171875
,1.0807943999999998,1.5380859375
,1.1176328,1.5283203125
,1.1180070999999998,1.5234375
,1.1381673,1.5625
,1.1887064,1.5869140625
,1.1891128000000002,1.6357421875
,1.1978875000000002,1.6748046875
,1.2362128000000001,1.7236328125
,1.2670107000000002,1.7724609375
,1.2672876999999998,1.8359375
,1.2747966000000002,1.875
,1.3133477,1.9287109375
,1.3316868999999998,1.962890625
,1.3364443000000001,1.982421875
,1.3576253999999999,1.982421875
,1.3935512,2.001953125
,1.4240157,2.0068359375
,1.4244105999999999,1.9921875
,1.4412368,1.982421875
,1.485659,1.953125
,1.4860562000000002,1.9384765625
,1.4969788999999998,1.9091796875
,1.5334238999999998,1.904296875
,1.5384619000000002,1.884765625
,1.5773134,1.8701171875
,1.5775583000000002,1.845703125
,1.5981431000000001,1.8212890625
,1.639625,1.796875
,1.6398774,1.7822265625
,1.6619940999999998,1.7578125
,1.6781935,1.748046875
,1.7170222000000002,1.73828125
,1.7173417999999998,1.71875
,1.7529207000000002,1.7041015625
,1.7731184999999998,1.6845703125
,1.7797777,1.6748046875
,1.8149628999999998,1.650390625
,1.8208294999999999,1.6357421875
,1.8379243,1.6162109375
,1.8733768999999998,1.6162109375
,1.8781472,1.6162109375
,1.9209242999999998,1.6357421875
,1.9211994,1.6552734375
,1.938806,1.69921875
,1.9740142999999999,1.73828125
,1.9946704999999998,1.796875
,1.9974725000000002,1.8408203125
,2.0355904000000002,1.9140625
,2.0361852999999996,1.982421875
,2.0796317,2.0263671875
,2.079872,2.0751953125
,2.1105874,2.099609375
,2.1209061,2.109375
,2.1575065,2.1044921875
,2.1623786000000003,2.1044921875
,2.1782641,2.08984375
,2.2198874,2.0849609375
,2.2202862999999997,2.0751953125
,2.2676055,2.0556640625
,2.2680007,2.03125
,2.2775314,2.0068359375
,2.3151821000000004,1.97265625
,2.3200141,1.943359375
,2.3408634,1.9189453125
,2.3918099,1.884765625
,2.3922212,1.865234375
,2.421297,1.8408203125
,2.4215973,1.845703125
,2.4397157,1.826171875
,2.4754536,1.8115234375
,2.4803493999999997,1.7919921875
,2.5293976999999996,1.7724609375
,2.5297579,1.748046875
,2.5424540999999996,1.73828125
,2.5578127999999998,1.708984375
,2.5938043000000004,1.69921875
,2.6140739,1.6845703125
,2.6191667,1.6748046875
,2.6549177000000004,1.650390625
,2.6602511,1.6552734375
,2.6973320999999997,1.6650390625
,2.7016996000000004,1.6845703125
,2.7464766999999997,1.728515625
,2.7467243999999997,1.7724609375
,2.7677991000000004,1.8359375
,2.7788950000000003,1.89453125
,2.8152453,1.962890625
,2.8399985,2.01171875
,2.8402946,2.0703125
,2.8744601000000003,2.109375
,2.8956644000000002,2.138671875
,2.8976444,2.1533203125
,2.9315768999999996,2.177734375
,2.9520624,2.177734375
,2.9596545,2.16796875
,2.9979657,2.158203125
,2.9982091000000004,2.1337890625
,3.0435786,2.1044921875
,3.0440663,2.0751953125
,3.0656628,2.05078125
,3.0823979,2.0068359375
,3.1042034999999997,1.9482421875
,3.1194029,1.884765625
,3.1539108999999996,1.89453125
,3.1750350999999997,1.8798828125
,3.1805357,1.875
,3.216495,1.845703125
,3.2216834,1.8359375
,3.2552808000000004,1.8115234375
,3.2761287,1.7919921875
,3.2790695000000003,1.7578125
,3.3139941000000004,1.7578125
,3.3341788,1.73828125
,3.3399551,1.71875
,3.3756725000000003,1.69921875
,3.3811169000000003,1.6796875
,3.4024735,1.6552734375
,3.4517214000000003,1.640625
,3.4521146,1.640625
,3.4793076000000003,1.640625
,3.4795577,1.669921875
,3.5014684999999997,1.708984375
,3.5202196,1.7529296875
,3.5552706,1.8017578125
,3.5777422999999997,1.8603515625
,3.5824223999999996,1.9091796875
,3.617883,1.9580078125
,3.6223849,2.01171875
,3.6559426999999998,2.0458984375
,3.6579132000000003,2.0849609375
,3.6995706999999998,2.0947265625
,3.6998863,2.1044921875
,3.7465751000000003,2.08984375
,3.7469253,2.0751953125
,3.7627222,2.0556640625
,3.7974438,2.03125
,3.7976888000000004,1.9970703125
,3.8377268000000004,1.9873046875
,3.8579663,1.962890625
,3.8610223,1.93359375
,3.8973082999999997,1.904296875
,3.9186638,1.875
,3.9239162,1.8408203125
,3.9594689,1.8212890625
,3.9601401999999997,1.796875
,4.0100097,1.7626953125
,4.0102605,1.7431640625
,4.0307721,1.7138671875
,4.040756,1.69921875
,4.0776332,1.6748046875
,4.0807789,1.66015625
,4.1165358,1.6357421875
,4.1365192,1.6162109375
,4.1418606,1.5966796875
,4.1787122,1.5771484375
,4.1789603,1.552734375
,4.2140472,1.552734375
,4.234673,1.54296875
,4.2421419,1.5478515625
,4.2777627,1.572265625
,4.2809876,1.5966796875
,4.3173428,1.6455078125
,4.3380085,1.6845703125
,4.3438783,1.748046875
,4.3607003,1.7919921875
,4.4026925,1.85546875
,4.4029346,1.9091796875
,4.4395682,1.9580078125
,4.4398092,1.9970703125
,4.4816086,2.03125
,4.4818554,2.0458984375
,4.5029755,2.05078125
,4.5210977,2.041015625
,4.5566825,2.041015625
,4.5612913,2.021484375
,4.5969346,2.01171875
,4.6017887,1.9970703125
,4.6403518,1.9677734375
,4.6716542,1.9482421875
,4.6719334,1.9140625
,4.6853538,1.8896484375
,4.7006543,1.85546875
,4.720571,1.8408203125
,4.7640298,1.826171875
,4.7642718,1.8017578125
,4.7847332,1.77734375
,4.8026286,1.7529296875
,4.8235768,1.7236328125
,4.8582527,1.7041015625
,4.8632087,1.6796875
,4.9001395,1.6552734375
,4.9056411,1.6455078125
,4.9216429,1.6162109375
,4.9658788,1.611328125
,4.9661207,1.5966796875
,4.982485,1.6015625
,5.0270054,1.591796875
,5.0273976,1.5869140625
,5.0568424,1.591796875
,5.0649825,1.630859375
,5.0821919,1.66015625
,5.1019836,1.728515625
,5.1372706,1.7724609375
,5.1572323,1.8359375
,5.1625566,1.8798828125
,5.2134267,1.93359375
,5.213672,1.9677734375
,5.2235789,2.0166015625
,5.2605542,2.0361328125
,5.2607975,2.0361328125
,5.2971567,2.041015625
,5.3019275,2.03125
,5.3376252,2.0166015625
,5.3431132,1.9970703125
,5.3864393,1.97265625
,5.3868367,1.9482421875
,5.4052567,1.9189453125
,5.4218321,1.884765625
,5.4576353,1.865234375
,5.4602232,1.8408203125
,5.4959894,1.826171875
,5.5163569,1.8017578125
,5.5237352,1.77734375
,5.5576765,1.7529296875
,5.563201,1.71875
,5.5977457,1.6943359375
,5.6177961,1.6650390625
,5.6251386,1.6064453125
,5.6421892,1.5478515625
,5.6808941,1.5625
,5.681134,1.552734375
,5.7022945,1.552734375
,5.7418127,1.533203125
,5.7420642,1.5283203125
,5.7912878,1.5087890625
,5.7915274,1.50390625
,5.8125784,1.494140625
,5.8235749,1.50390625
,5.8695533,1.5185546875
,5.8698839,1.572265625
,5.8833415,1.6259765625
,5.9191048,1.669921875
,5.9456999,1.7236328125
,5.9459494,1.7724609375
,5.9819763,1.826171875
,5.9823337,1.875
,6.0197874,1.93359375
,6.0244924,1.9677734375
,6.0723667,1.9921875
,6.0726786,1.9921875
,6.084490000000001,1.9970703125
,6.105782400000001,1.9873046875
,6.149649800000001,1.982421875
,6.149968100000001,1.962890625
,6.162178600000001,1.962890625
,6.1966757999999995,1.953125
,6.2173905000000005,1.9287109375
,6.222449599999999,1.9140625
,6.260348499999999,1.884765625
,6.2646944,1.8701171875
,6.305642000000001,1.8408203125
,6.305976299999999,1.8212890625
,6.3262751999999995,1.7919921875
,6.343565,1.7822265625
,6.3887418,1.7626953125
,6.3891069,1.7529296875
,6.405168,1.728515625
,6.4509676,1.708984375
,6.451287499999999,1.689453125
,6.4666681,1.669921875
,6.486253100000001,1.650390625
,6.520628200000001,1.6162109375
,6.540886499999999,1.6259765625
,6.543431200000001,1.62109375
,6.579579300000001,1.6259765625
,6.5841698,1.62109375
,6.619958799999999,1.630859375
,6.6246372000000004,1.6455078125
,6.6610228,1.689453125
,6.6666644999999995,1.7333984375
,6.714913299999999,1.787109375
,6.7153077,1.8408203125
,6.724997699999999,1.9091796875
,6.7603575,1.962890625
,6.763311399999999,2.0361328125
,6.7995213,2.080078125
,6.804897199999999,2.119140625
,6.842368199999999,2.1435546875
,6.8468696,2.138671875
,6.8811228,2.1337890625
,6.901665599999999,2.1142578125
,6.9046693,2.119140625
,6.9419465,2.099609375
,6.944865399999999,2.080078125
,6.991274600000001,2.0556640625
,6.991728800000001,2.03125
,7.0069491,1.9970703125
,7.041756400000001,1.982421875
,7.069754,1.953125
,7.070150399999999,1.9384765625
,7.084047699999999,1.9091796875
,7.118258900000001,1.8896484375
,7.1406955,1.8603515625
,7.1452583,1.8359375
,7.178553900000001,1.8115234375
,7.2003085,1.77734375
,7.2076232000000005,1.748046875
,7.224367600000001,1.71875
,7.259685899999999,1.708984375
,7.2640957,1.689453125
,7.2999799,1.6748046875
,7.3047676,1.650390625
,7.346667500000001,1.6259765625
,7.347063500000001,1.6015625
,7.367381099999999,1.58203125
,7.3872386,1.5625
,7.4085657000000005,1.5673828125
,7.422591300000001,1.5869140625
,7.4603584000000005,1.630859375
,7.465190399999999,1.689453125
,7.503181700000001,1.7333984375
,7.5034320999999995,1.787109375
,7.5516071,1.8408203125
,7.552012899999999,1.904296875
,7.581625799999999,1.943359375
,7.5893712,1.9873046875
,7.6055902,2.001953125
,7.644015700000001,2.0263671875
,7.644322300000001,2.021484375
,7.691202199999999,2.0166015625
,7.691581299999999,2.001953125
,7.7217185,1.9873046875
,7.726142299999999,1.9580078125
,7.7617996,1.93359375
,7.7620422,1.8994140625
,7.798809,1.8896484375
,7.8198401,1.875
,7.825161100000001,1.8505859375
,7.860532600000001,1.826171875
,7.8657556,1.796875
,7.9044886000000005,1.7724609375
,7.9074673,1.7431640625
,7.941644999999999,1.7236328125
,7.942032299999999,1.69921875
,7.9760419,1.689453125
,7.9961836,1.669921875
,8.0052462,1.650390625
,8.0476897,1.630859375
,8.0479395,1.62109375
,8.0844293,1.6064453125
,8.087124,1.591796875
,8.1229079,1.58203125
,8.1236282,1.5576171875
,8.1743274,1.5576171875
,8.174813,1.4990234375
,8.1867617,1.533203125
,8.2356588,1.5625
,8.2359041,1.6162109375
,8.2465888,1.66015625
,8.2926774,1.7236328125
,8.2929269,1.7724609375
,8.3248146,1.8408203125
,8.3250618,1.8896484375
,8.3701972,1.953125
,8.3704436,1.9921875
,8.385165,2.0263671875
,8.4230228,2.0361328125
,8.4283147,2.041015625
,8.4480718,2.0361328125
,8.4836981,2.021484375
,8.5026889,2.0068359375
,8.5029295,1.9873046875
,8.5395992,1.97265625
,8.560122,1.9580078125
,8.565412,1.9482421875
,8.6026031,1.9287109375
,8.6074894,1.9091796875
,8.6292479,1.884765625
,8.6670885,1.85546875
,8.667463,1.8310546875
,8.6854321,1.8212890625
,8.7203631,1.796875
,8.7253923,1.7822265625
,8.777021,1.7626953125
,8.7774278,1.73828125
,8.806875,1.71875
,8.8073037,1.69921875
,8.8437738,1.689453125
,8.864133,1.66015625
,8.8645243,1.6552734375
,8.9003786,1.6357421875
,8.9214094,1.630859375
,8.9256308,1.611328125
,8.9615673,1.6064453125
,8.981917,1.6015625
,8.9873141,1.6162109375
,9.00746,1.640625
,9.0288974,1.6455078125
,9.0452012,1.6650390625
,9.081862,1.767578125
,9.0871029,1.85546875
,9.1348428,1.923828125
,9.1416558,1.9873046875
,9.1479443,2.041015625
,9.1690237,2.0849609375
,9.2042193,2.1044921875
,9.226105,2.119140625
,9.2264966,2.1142578125
,9.2466727,2.119140625
,9.2898149,2.109375
,9.2900645,2.099609375
,9.3098666,2.0751953125
,9.3298776,2.060546875
,9.3671398,2.03125
,9.3695964,2.0068359375
,9.4045142,1.982421875
,9.4048329,1.9482421875
,9.4391019,1.923828125
,9.4599572,1.8994140625
,9.4686765,1.8798828125
,9.5079572,1.845703125
,9.5082273,1.8212890625
,9.5433813,1.787109375
,9.5633708,1.767578125
,9.5680766,1.73828125
,9.5863312,1.73828125
,9.632625,1.7236328125
,9.6330187,1.7138671875
,9.6519017,1.6943359375
,9.6683448,1.669921875
,9.7039412,1.640625
,9.7092567,1.6357421875
,9.7586622,1.62109375
,9.7590556,1.6015625
,9.787738,1.6064453125
,9.7879796,1.62109375
,9.8242739,1.6552734375
,9.8295998,1.6943359375
,9.8479445,1.748046875
,9.882952,1.796875
,9.9027861,1.8505859375
,9.9107719,1.89453125
,9.9606645,1.943359375
,9.9610073,1.9775390625
,9.9677718,2.0263671875
,10.007948,2.041015625
,10.0082081,2.0458984375
,10.0547682,2.0458984375
,10.0551083,2.0263671875
,10.0849463,2.0166015625
,10.0899812,1.9921875
,10.1268294,1.9775390625
,10.1271576,1.9482421875
,10.1631148,1.9384765625
,10.1701889,1.9140625
,10.1886513,1.884765625
,10.2232794,1.8603515625
,10.243464,1.8359375
,10.2486597,1.8017578125
,10.2892981,1.77734375
,10.2896235,1.748046875
,10.3186319,1.7333984375
,10.3253966,1.708984375
,10.3631669,1.69921875
,10.3683751,1.6796875
,10.4050503,1.6552734375
,10.4107183,1.630859375
,10.4586028,1.611328125
,10.458853,1.591796875
,10.4662142,1.572265625
,10.5046719,1.5673828125
,10.5088413,1.5625
,10.5519987,1.5478515625
,10.5522453,1.54296875
,10.5702628,1.5478515625
,10.6127426,1.5771484375
,10.6129892,1.6357421875
,10.6257673,1.6845703125
,10.6598412,1.7529296875
,10.6800595,1.8212890625
,10.6878614,1.875
,10.738023,1.9287109375
,10.7382742,1.9677734375
,10.7479689,2.01171875
,10.7844284,2.0263671875
,10.7904316,2.03125
,10.8267631,2.021484375
,10.8334331,2.021484375
,10.8476294,2.001953125
,10.8976993,2.0068359375
,10.8979462,1.9873046875
,10.9093578,1.97265625
,10.9460995,1.9482421875
,10.9504882,1.923828125
,10.986601,1.89453125
,11.0202265,1.8798828125
,11.0205904,1.85546875
,11.0292825,1.8310546875
,11.0678065,1.8115234375
,11.0681222,1.7919921875
,11.1131887,1.7724609375
,11.1134356,1.7529296875
,11.1333223,1.748046875
,11.1511887,1.7236328125
,11.1926901,1.708984375
,11.1933617,1.6796875
,11.2093122,1.6748046875
,11.2553554,1.66015625
,11.2555954,1.650390625
,11.2701929,1.630859375
,11.3183984,1.6162109375
,11.3187648,1.611328125
,11.3328103,1.5966796875
,11.3808425,1.591796875
,11.3813274,1.6064453125
,11.3895541,1.6552734375
,11.4090953,1.69921875
,11.4575785,1.7578125
,11.457889,1.806640625
,11.4699344,1.8701171875
,11.5195734,1.9140625
,11.5198182,1.9775390625
,11.5397404,2.01171875
,11.552201,2.01171875
,11.5686465,1.9921875
,11.6128796,2.03125
,11.6131904,2.041015625
,11.6327282,2.060546875
,11.6500473,2.060546875
,11.6851595,2.0458984375
,11.7068473,2.03125
,11.7114851,2.01171875
,11.7319878,1.9921875
,11.7490162,1.9580078125
,11.7848184,1.9482421875
,11.8053617,1.9189453125
,11.8105289,1.8994140625
,11.8489448,1.8701171875
,11.8491902,1.845703125
,11.8844189,1.81640625
,11.9045827,1.8017578125
,11.9072246,1.767578125
,11.9292682,1.7529296875
,11.9669441,1.73828125
,11.9698657,1.71875
,12.0048505,1.69921875
,12.0255595,1.6748046875
,12.0319143,1.66015625
,12.0800383,1.6357421875
,12.0803632,1.62109375
,12.0897679,1.591796875
,12.1264929,1.591796875
,12.1313105,1.58203125
,12.1741114,1.591796875
,12.1743633,1.6064453125
,12.1910944,1.6455078125
,12.2369141,1.6796875
,12.2374927,1.728515625
,12.268923,1.7626953125
,12.2693207,1.8310546875
,12.3136643,1.884765625
,12.3140369,1.93359375
,12.3343493,1.9775390625
,12.3517308,2.001953125
,12.3930925,2.01171875
,12.3933415,2.01171875
,12.4122661,2.0068359375
,12.4475295,1.9873046875
,12.4527594,1.97265625
,12.4859005,1.9482421875
,12.4892958,1.93359375
,12.53149,1.9091796875
,12.5318839,1.8896484375
,12.5674227,1.8603515625
,12.5727739,1.8310546875
,12.6233782,1.806640625
,12.6237797,1.767578125
,12.6353272,1.748046875
,12.6499466,1.7236328125
,12.6856743,1.728515625
,12.7160453,1.7138671875
,12.7163962,1.7041015625
,12.7323896,1.6845703125
,12.7776598,1.6748046875
,12.7779062,1.6455078125
,12.7926541,1.6357421875
,12.8098058,1.6015625
,12.8473141,1.6015625
,12.8517553,1.5869140625
,12.8871616,1.58203125
,12.8915996,1.5625
,12.9125372,1.5673828125
,12.9489812,1.5625
,12.9518074,1.5576171875
,12.9886695,1.572265625
,12.989029,1.6064453125
,13.0301775,1.66015625
,13.061742,1.7138671875
,13.062104,1.767578125
,13.0735667,1.81640625
,13.1106846,1.865234375
,13.1110195,1.9091796875
,13.1539845,1.953125
,13.154247,1.97265625
,13.1690121,2.0068359375
,13.204251,2.0068359375
,13.2346754,2.0068359375
,13.235115,2.01171875
,13.251447,1.9970703125
,13.272479,1.9775390625
,13.3074153,1.953125
,13.327657,1.93359375
,13.332888,1.9091796875
,13.3691265,1.8798828125
,13.3694433,1.8505859375
,13.4053681,1.8359375
,13.4253945,1.81640625
,13.4322204,1.8017578125
,13.4697361,1.77734375
,13.4743257,1.7626953125
,13.5150932,1.73828125
,13.515492,1.71875
,13.5300178,1.6943359375
,13.5521184,1.689453125
,13.5865347,1.6796875
,13.5917177,1.6552734375
,13.6378742,1.640625
,13.6382021,1.6259765625
,13.6539141,1.611328125
,13.6999001,1.5966796875
,13.7001185,1.591796875
,13.7221249,1.5771484375
,13.7320812,1.5869140625
,13.7536777,1.5869140625
,13.7734516,1.6064453125
,13.8078705,1.6357421875
,13.8138918,1.689453125
,13.848122,1.728515625
,13.8545015,1.77734375
,13.9023439,1.8359375
,13.9025884,1.875
,13.911603,1.9384765625
,13.9480829,1.9873046875
,13.9525945,2.0361328125
,13.9877623,2.05078125
,13.9926657,2.060546875
,14.041919100000001,2.05078125
,14.0423139,2.041015625
,14.062851299999998,2.0263671875
,14.0762158,1.97265625
,14.0917241,1.923828125
,14.136019300000001,1.9287109375
,14.136471799999999,1.923828125
,14.152460399999999,1.9091796875
,14.197388199999999,1.8798828125
,14.1976358,1.8701171875
,14.218696699999999,1.8505859375
,14.2347207,1.81640625
,14.269563000000002,1.7919921875
,14.289843300000001,1.7626953125
,14.292773,1.7529296875
,14.3281804,1.7236328125
,14.332978399999998,1.708984375
,14.369226600000001,1.6845703125
,14.3765137,1.6650390625
,14.3952199,1.640625
,14.4149843,1.62109375
,14.4326653,1.591796875
,14.4680703,1.591796875
,14.4729165,1.5771484375
,14.4925009,1.5625
,14.540608899999999,1.552734375
,14.541005899999998,1.533203125
,14.5606844,1.5234375
,14.575395100000001,1.513671875
,14.6184911,1.5283203125
,14.618871500000001,1.5478515625
,14.6311508,1.6015625
,14.665048200000001,1.6455078125
,14.685838400000002,1.7041015625
,14.692514599999999,1.7431640625
,14.730302300000002,1.806640625
,14.7600336,1.8505859375
,14.760281299999999,1.89453125
,14.7718268,1.9140625
,14.8100491,1.93359375
,14.810350499999998,1.93359375
,14.854137000000001,1.943359375
,14.854427600000001,1.9384765625
,14.885178400000001,1.923828125
,14.894280899999998,1.904296875
,14.932098700000001,1.884765625
,14.952351799999999,1.8603515625
,14.957229300000002,1.8359375
,14.9771356,1.77734375
,14.9932835,1.7626953125
,15.037919200000001,1.7578125
,15.038162499999999,1.7431640625
,15.053798,1.7236328125
,15.1007781,1.7041015625
,15.101021800000002,1.689453125
,15.1320819,1.6650390625
,15.1371006,1.6455078125
,15.177026600000001,1.640625
,15.177269500000001,1.6162109375
,15.1946534,1.611328125
,15.2412427,1.6015625
,15.2416367,1.6015625
,15.2559225,1.5869140625
,15.2754708,1.5869140625
,15.295686700000001,1.572265625
,15.330549399999999,1.5673828125
,15.330816899999999,1.5478515625
,15.3528846,1.5625
,15.373505900000001,1.5625
,15.4082543,1.591796875
,15.428963199999998,1.6259765625
,15.4352746,1.6748046875
,15.471666500000001,1.7138671875
,15.4750814,1.787109375
,15.512266,1.8408203125
,15.5126596,1.8896484375
,15.5491466,1.9580078125
,15.5539037,2.001953125
,15.588136500000001,2.0263671875
,15.611003400000001,2.03125
,15.615455099999998,2.0263671875
,15.651840700000001,2.01171875
,15.6571791,1.9970703125
,15.672738500000001,1.9775390625
,15.721462299999999,1.9677734375
,15.7218598,1.943359375
,15.735276500000001,1.9384765625
,15.7705765,1.9189453125
,15.7758112,1.89453125
,15.812150500000001,1.875
,15.817259499999999,1.8408203125
,15.8373977,1.8115234375
,15.8731163,1.77734375
,15.8786254,1.748046875
,15.893012200000001,1.7138671875
,15.937322300000002,1.6943359375
,15.9375629,1.6748046875
,15.9581688,1.6552734375
,15.977182500000001,1.630859375
,16.0133522,1.6162109375
,16.0163672,1.5869140625
,16.0522232,1.5673828125
,16.0527032,1.552734375
,16.0912136,1.54296875
,16.1123806,1.5283203125
,16.1144914,1.5234375
,16.1495696,1.513671875
,16.1699994,1.4990234375
,16.1758442,1.4990234375
,16.2112458,1.494140625
,16.2175175,1.5234375
,16.2345132,1.552734375
,16.2546274,1.6162109375
,16.274406,1.669921875
,16.3093769,1.7236328125
,16.3299372,1.77734375
,16.3348777,1.826171875
,16.3727421,1.865234375
,16.4030404,1.9091796875
,16.4033447,1.93359375
,16.4148036,1.9580078125
,16.4495816,1.9677734375
,16.4566843,1.9677734375
,16.4752698,1.962890625
,16.4958797,1.9580078125
,16.5452632,1.9580078125
,16.5455994,1.943359375
,16.5750479,1.9287109375
,16.5752902,1.9091796875
,16.5997813,1.8994140625
,16.6163099,1.8359375
,16.6554566,1.8310546875
,16.6557572,1.81640625
,16.701145,1.8017578125
,16.701401,1.7822265625
,16.7160766,1.7626953125
,16.7513028,1.7333984375
,16.7730234,1.7333984375
,16.780827,1.7236328125
,16.7965586,1.708984375
,16.8428419,1.7041015625
,16.8431626,1.69921875
,16.8566012,1.689453125
,16.8927003,1.6796875
,16.8971118,1.6650390625
,16.9331622,1.6455078125
,16.9382645,1.6357421875
,16.9560252,1.62109375
,16.9905187,1.6259765625
,16.9954555,1.6357421875
,17.0463033,1.669921875
,17.0466172,1.7041015625
,17.0579615,1.748046875
,17.0926226,1.8115234375
,17.0981282,1.85546875
,17.1333179,1.9091796875
,17.1335568,1.953125
,17.1532067,2.0263671875
,17.1865421,2.060546875
,17.2073743,2.099609375
,17.2171974,2.1142578125
,17.2384397,2.119140625
,17.2739075,2.109375
,17.2783383,2.109375
,17.2951859,2.08984375
,17.340907,2.08984375
,17.3417842,2.0751953125
,17.3572377,2.060546875
,17.3768514,2.0263671875
,17.4134027,2.01171875
,17.4169547,1.9873046875
,17.4529278,1.9580078125
,17.4586225,1.93359375
,17.4790592,1.9091796875
,17.4998023,1.845703125
,17.5167726,1.826171875
,17.5579306,1.826171875
,17.5581724,1.8115234375
,17.5930306,1.796875
,17.5975225,1.77734375
,17.6377938,1.7578125
,17.6380404,1.73828125
,17.6586928,1.7236328125
,17.6749777,1.69921875
,17.7160574,1.6845703125
,17.7164529,1.6845703125
,17.7464102,1.6650390625
,17.7578689,1.650390625
,17.7945053,1.6357421875
,17.7991803,1.650390625
,17.8389006,1.6552734375
,17.839186,1.689453125
,17.8551811,1.71875
,17.9031006,1.7822265625
,17.9033472,1.826171875
,17.9173256,1.884765625
,17.9390969,1.923828125
,17.9582381,1.982421875
,17.9787528,2.0263671875
,18.0144875,2.0654296875
,18.0148047,2.080078125
,18.0601289,2.1044921875
,18.0605254,2.109375
,18.0907782,2.099609375
,18.0977286,2.080078125
,18.1348351,2.060546875
,18.1395137,2.041015625
,18.1592774,2.01171875
,18.1947717,1.9873046875
,18.1951816,1.953125
,18.2284557,1.93359375
,18.2488199,1.904296875
,18.2566508,1.8798828125
,18.29386,1.845703125
,18.2987813,1.8310546875
,18.3396685,1.8017578125
,18.340062,1.77734375
,18.3764661,1.7578125
,18.3830946,1.728515625
,18.4004066,1.69921875
,18.4173956,1.6650390625
,18.4651117,1.6552734375
,18.4653606,1.6357421875
,18.4780392,1.62109375
,18.5297176,1.5966796875
,18.5301281,1.58203125
,18.5384779,1.5576171875
,18.5739875,1.5478515625
,18.5944014,1.5283203125
,18.5973323,1.533203125
,18.6341561,1.5380859375
,18.6399175,1.5625
,18.6580653,1.5869140625
,18.6919494,1.6357421875
,18.7120331,1.689453125
,18.7187197,1.7236328125
,18.762759,1.7724609375
,18.7631533,1.81640625
,18.7925274,1.875
,18.7971188,1.9140625
,18.8323519,1.962890625
,18.8535722,1.97265625
,18.8598353,1.982421875
,18.8794353,1.97265625
,18.9160483,1.962890625
,18.9165016,1.9482421875
,18.9539025,1.9482421875
,18.959226,1.9287109375
,18.9784116,1.9140625
,19.0262737,1.904296875
,19.026515,1.8798828125
,19.0388624,1.8603515625
,19.0758734,1.8359375
,19.0783758,1.8212890625
,19.1213571,1.787109375
,19.1216416,1.7822265625
,19.137305,1.7236328125
,19.1739038,1.728515625
,19.1994961,1.7138671875
,19.1998624,1.708984375
,19.2452877,1.6943359375
,19.2455311,1.6845703125
,19.2623171,1.6650390625
,19.2814565,1.6552734375
,19.2971155,1.6357421875
,19.331258,1.650390625
,19.3522267,1.650390625
,19.359531,1.6357421875
,19.4002337,1.630859375
,19.4009293,1.6259765625
,19.4218035,1.630859375
,19.4564994,1.6455078125
,19.4612396,1.689453125
,19.4770119,1.728515625
,19.510066,1.787109375
,19.5305214,1.845703125
,19.5392382,1.9091796875
,19.5594409,1.9580078125
,19.5953606,2.0166015625
,19.6005102,2.0556640625
,19.6394767,2.080078125
,19.6398819,2.109375
,19.6587563,2.099609375
,19.6777357,2.1044921875
,19.7118738,2.0947265625
,19.7324544,2.08984375
,19.7396669,2.0654296875
,19.7603419,2.0458984375
,19.7964792,2.021484375
,19.7998165,2.001953125
,19.8187804,1.9677734375
,19.838756,1.9677734375
,19.8731032,1.943359375
,19.8770094,1.9287109375
,19.9151001,1.904296875
,19.9201075,1.884765625
,19.9573699,1.85546875
,19.9614698,1.8408203125
,20.0081937,1.81640625
,20.0084351,1.7919921875
,20.0225063,1.7333984375
,20.038819,1.7236328125
,20.0601198,1.71875
,20.0999167,1.7041015625
,20.1001629,1.69921875
,20.1345582,1.6845703125
,20.1546095,1.669921875
,20.1621805,1.66015625
,20.1972623,1.6455078125
,20.1976856,1.630859375
,20.2329776,1.6357421875
,20.255429,1.6552734375
,20.2605058,1.689453125
,20.3039379,1.7431640625
,20.3041834,1.787109375
,20.3224024,1.845703125
,20.3678831,1.8896484375
,20.3682958,1.9482421875
,20.379262,1.9873046875
,20.4173278,2.041015625
,20.4181033,2.0751953125
,20.4552129,2.099609375
,20.4752722,2.0947265625
,20.4803919,2.0947265625
,20.5246321,2.0703125
,20.5249619,2.0556640625
,20.538805,2.0361328125
,20.5867187,2.021484375
,20.5871139,1.9970703125
,20.600667,1.9873046875
,20.6360958,1.962890625
,20.6636032,1.9287109375
,20.6640068,1.8994140625
,20.681359,1.8701171875
,20.7195976,1.8359375
,20.7201808,1.796875
,20.7387742,1.77734375
,20.7905199,1.748046875
,20.790891,1.7236328125
,20.799919,1.6943359375
,20.8352522,1.6748046875
,20.8682501,1.650390625
,20.8686605,1.6455078125
,20.8825562,1.6357421875
,20.9200317,1.62109375
,20.9250184,1.611328125
,20.9417177,1.591796875
,20.9757132,1.5869140625
,20.9811115,1.572265625
,21.0173815,1.5673828125
,21.0207551,1.5478515625
,21.0420454,1.5478515625
,21.0817509,1.5478515625
,21.0819941,1.5771484375
,21.0988361,1.611328125
,21.1337393,1.6796875
,21.1534722,1.7333984375
,21.162244,1.7919921875
,21.2066299,1.8408203125
,21.2070266,1.89453125
,21.2235136,1.9287109375
,21.2679953,1.9677734375
,21.2683942,1.982421875
,21.2793857,1.9775390625
,21.3166303,1.982421875
,21.3212874,1.97265625
,21.3566666,1.962890625
,21.3614726,1.9482421875
,21.3971895,1.93359375
,21.4175143,1.9140625
,21.4249414,1.89453125
,21.4404151,1.8603515625
,21.4765219,1.8505859375
,21.5012006,1.8310546875
,21.5015409,1.81640625
,21.5376243,1.787109375
,21.5422848,1.767578125
,21.5798811,1.7529296875
,21.580126,1.7236328125
,21.6273778,1.69921875
,21.6278096,1.6796875
,21.6575645,1.6796875
,21.6609364,1.611328125
,21.7044987,1.62109375
,21.7047407,1.611328125
,21.7235679,1.611328125
,21.758703,1.5966796875
,21.7615775,1.5869140625
,21.7977027,1.572265625
,21.8172335,1.5673828125
,21.8205268,1.552734375
,21.8612185,1.5625
,21.8615353,1.5771484375
,21.9082134,1.630859375
,21.90861,1.689453125
,21.9225101,1.73828125
,21.9569856,1.796875
,21.9850262,1.845703125
,21.9853891,1.9091796875
,22.0021134,1.9580078125
,22.0214774,2.021484375
,22.0410959,2.060546875
,22.0760942,2.08984375
,22.0827526,2.08984375
,22.1234464,2.08984375
,22.1236884,2.080078125
,22.1434635,2.0703125
,22.1780064,2.0458984375
,22.1808989,2.03125
,22.2175196,2.021484375
,22.220736,1.9921875
,22.2643987,1.962890625
,22.2646757,1.93359375
,22.284105,1.9091796875
,22.3056995,1.875
,22.3421539,1.845703125
,22.3425513,1.8115234375
,22.3616471,1.8017578125
,22.4060009,1.77734375
,22.4062475,1.767578125
,22.4241171,1.73828125
,22.4435675,1.71875
,22.484524,1.689453125
,22.4849101,1.6748046875
,22.5047562,1.650390625
,22.5246496,1.5966796875
,22.5457996,1.5625
,22.5619525,1.5234375
,22.5825421,1.552734375
,22.6182116,1.5625
,22.6233629,1.572265625
,22.6697576,1.5771484375
,22.6700094,1.5966796875
,22.6843865,1.6259765625
,22.7214729,1.669921875
,22.7220206,1.7236328125
,22.7648068,1.796875
,22.7651273,1.8603515625
,22.7838224,1.93359375
,22.8032654,1.9921875
,22.8380945,2.060546875
,22.858581,2.1240234375
,22.8641828,2.1533203125
,22.900853,2.177734375
,22.9011155,2.1826171875
,22.933911,2.197265625
,22.9544312,2.1923828125
,22.9615127,2.1826171875
,22.9978165,2.1533203125
,23.0019408,2.1337890625
,23.0378125,2.0947265625
,23.0600076,2.0703125
,23.0602592,2.03125
,23.0956029,2.01171875
,23.1217,1.982421875
,23.1220202,1.953125
,23.1580963,1.9189453125
,23.1632928,1.8994140625
,23.1841094,1.8701171875
,23.2044269,1.8359375
,23.2481415,1.806640625
,23.2483891,1.77734375
,23.2603194,1.7626953125
,23.2951671,1.73828125
,23.3162834,1.7138671875
,23.3232312,1.689453125
,23.3727158,1.66015625
,23.372957,1.630859375
,23.3835765,1.6064453125
,23.4203497,1.58203125
,23.4507121,1.572265625
,23.4512802,1.552734375
,23.4639431,1.552734375
,23.4985748,1.5625
,23.5041946,1.572265625
,23.5377756,1.6162109375
,23.5582625,1.66015625
,23.5638395,1.71875
,23.601244,1.7626953125
,23.6203897,1.8212890625
,23.6206376,1.8701171875
,23.6553804,1.93359375
,23.677263,1.9775390625
,23.6847663,2.0166015625
,23.7195288,2.0263671875
,23.7258322,2.0263671875
,23.7738963,2.0166015625
,23.7743764,2.0068359375
,23.781798,1.9873046875
,23.802608,1.982421875
,23.8391399,1.9775390625
,23.8444534,1.953125
,23.8822713,1.93359375
,23.8826309,1.9091796875
,23.9323489,1.8896484375
,23.9327107,1.865234375
,23.9624319,1.8505859375
,23.9626804,1.8212890625
,23.9973039,1.806640625
,24.018065,1.787109375
,24.0234538,1.767578125
,24.0728905,1.73828125
,24.0731501,1.7236328125
,24.087028,1.69921875
,24.1058267,1.6796875
,24.140634,1.6650390625
,24.1615383,1.6455078125
,24.1617987,1.640625
,24.1997746,1.6259765625
,24.2304279,1.6162109375
,24.2308503,1.5966796875
,24.2440843,1.591796875
,24.2915468,1.572265625
,24.2918663,1.5771484375
,24.3234139,1.5869140625
,24.3282265,1.630859375
,24.3453857,1.669921875
,24.3805154,1.73828125
,24.3831316,1.8017578125
,24.432507,1.865234375
,24.4327872,1.9140625
,24.4470618,1.982421875
,24.4945087,2.0361328125
,24.49509,2.0654296875
,24.508027,2.0849609375
,24.5229727,2.080078125
,24.5577421,2.08984375
,24.5797077,2.08984375
,24.5842742,2.080078125
,24.6199069,2.060546875
,24.6409653,2.0458984375
,24.6462664,2.0166015625
,24.6815315,1.9921875
,24.7020761,1.962890625
,24.7054008,1.953125
,24.7243501,1.9287109375
,24.759344,1.904296875
,24.7797467,1.8896484375
,24.7848899,1.8603515625
,24.8220489,1.8408203125
,24.8250565,1.8115234375
,24.8610446,1.7919921875
,24.8814031,1.7578125
,24.8836751,1.7529296875
,24.9174478,1.7333984375
,24.9383286,1.71875
,24.9458361,1.6943359375
,24.9821387,1.689453125
,24.9849432,1.6650390625
,25.0215359,1.650390625
,25.0544592,1.630859375
,25.0548452,1.6357421875
,25.0639504,1.572265625
,25.1001899,1.5966796875
,25.1050528,1.62109375
,25.146339,1.66015625
,25.1467339,1.7138671875
,25.1916538,1.7724609375
,25.1919451,1.8359375
,25.2081997,1.8896484375
,25.2278315,1.9482421875
,25.2452743,1.9970703125
,25.2852849,2.080078125
,25.2855275,2.138671875
,25.3219877,2.1826171875
,25.3272712,2.1923828125
,25.3621968,2.1923828125
,25.382144,2.1826171875
,25.3897165,2.1630859375
,25.4400141,2.1533203125
,25.4402704,2.119140625
,25.4453949,2.1044921875
,25.4870712,2.080078125
,25.4874691,2.060546875
,25.5079611,2.0263671875
,25.5268831,1.9921875
,25.5634292,1.953125
,25.5962021,1.923828125
,25.5965959,1.884765625
,25.6037457,1.8701171875
,25.6377762,1.8408203125
,25.658951,1.8212890625
,25.6670438,1.796875
,25.7043954,1.7724609375
,25.7092887,1.748046875
,25.7293077,1.7333984375
,25.7479724,1.7138671875
,25.7640601,1.689453125
,25.7999365,1.6796875
,25.8214125,1.6650390625
,25.8256232,1.6455078125
,25.8612899,1.62109375
,25.8667022,1.6064453125
,25.9012094,1.58203125
,25.9216402,1.5771484375
,25.9266228,1.58203125
,25.9637509,1.611328125
,25.9845374,1.6552734375
,25.9849479,1.728515625
,26.0194858,1.7919921875
,26.0417219,1.8603515625
,26.0486783,1.9287109375
,26.0678831,1.9775390625
,26.1042727,2.03125
,26.1074082,2.0654296875
,26.1447446,2.08984375
,26.1449982,2.08984375
,26.181795,2.0947265625
,26.1850404,2.0849609375
,26.2241217,2.0751953125
,26.2551084,2.0556640625
,26.2553558,2.0361328125
,26.2686405,2.0068359375
,26.317629,1.9775390625
,26.318026,1.943359375
,26.3276488,1.923828125
,26.3464644,1.8896484375
,26.3827532,1.865234375
,26.385916,1.8408203125
,26.4262675,1.8017578125
,26.4556414,1.7724609375
,26.4558895,1.73828125
,26.4682629,1.7041015625
,26.5043889,1.6748046875
,26.5046292,1.66015625
,26.5514331,1.6455078125
,26.5519892,1.6259765625
,26.5812881,1.6015625
,26.5874866,1.58203125
,26.6215748,1.552734375
,26.6423685,1.5380859375
,26.6463874,1.5185546875
,26.6659768,1.5087890625
,26.7055742,1.513671875
,26.7058252,1.50390625
,26.7430345,1.5185546875
,26.7677345,1.5478515625
,26.7680831,1.6015625
,26.8161245,1.6552734375
,26.8164318,1.728515625
,26.8294743,1.7822265625
,26.8786297,1.85546875
,26.8789526,1.9091796875
,26.8856646,1.97265625
,26.9213492,2.0068359375
,26.9422754,2.0361328125
,26.9475805,2.03125
,26.9874553,2.0166015625
,26.9876973,1.9921875
,27.0083057,1.9970703125
,27.0451381,1.9775390625
,27.0454587,1.9580078125
,27.0683105,1.9482421875
,27.1134847,1.9384765625
,27.1137865,1.9140625
,27.1294998,1.8896484375
,27.1770163,1.865234375
,27.1772584,1.8359375
,27.2069357,1.806640625
,27.2073356,1.77734375
,27.253029,1.7626953125
,27.2534267,1.73828125
,27.2694627,1.71875
,27.3044151,1.69921875
,27.3090064,1.6796875
,27.3437447,1.669921875
,27.3497512,1.6455078125
,27.3853217,1.630859375
,27.3855642,1.611328125
,27.4238853,1.6162109375
,27.4287395,1.6015625
,27.464659,1.6015625
,27.4701038,1.5869140625
,27.5157556,1.5869140625
,27.5160849,1.58203125
,27.5301536,1.611328125
,27.5470355,1.640625
,27.5920013,1.7041015625
,27.5924976,1.71875
,27.6092043,1.806640625
,27.6443169,1.865234375
,27.6486263,1.9482421875
,27.6696452,2.021484375
,27.7057094,2.0751953125
,27.7103753,2.1240234375
,27.7460533,2.1435546875
,27.7513491,2.1533203125
,27.7668948,2.1484375
,27.8031075,2.1484375
,27.8087942,2.138671875
,27.8442778,2.1240234375
,27.8484795,2.099609375
,27.8891583,2.0751953125
,27.8894699,2.0458984375
,27.9365206,2.0166015625
,27.9369142,1.982421875
,27.9663338,1.962890625
,27.9665979,1.943359375
,28.0037291,1.9140625
,28.0093346,1.8896484375
,28.0469492,1.8603515625
,28.0512596,1.845703125
,28.0703288,1.81640625
,28.1048933,1.796875
,28.1262336,1.7724609375
,28.1293375,1.7578125
,28.1680199,1.73828125
,28.1682639,1.7236328125
,28.2169477,1.69921875
,28.2173447,1.6845703125
,28.2471067,1.6650390625
,28.252432,1.650390625
,28.2671257,1.6259765625
,28.2892733,1.6259765625
,28.3088218,1.62109375
,28.3552818,1.6259765625
,28.3555281,1.6552734375
,28.3709084,1.6943359375
,28.3895589,1.7529296875
,28.4328467,1.8017578125
,28.4332417,1.865234375
,28.4625745,1.9140625
,28.4727275,1.9384765625
,28.4886034,1.9970703125
,28.5255957,2.0654296875
,28.5278446,2.1044921875
,28.5630958,2.12890625
,28.583718,2.12890625
,28.5914373,2.1240234375
,28.6349521,2.1142578125
,28.6357737,2.08984375
,28.6682205,2.060546875
,28.6685406,2.021484375
,28.7025789,1.9970703125
,28.7227658,1.9677734375
,28.731194,1.93359375
,28.7821645,1.8896484375
,28.7825961,1.8603515625
,28.7901753,1.8212890625
,28.8296564,1.787109375
,28.8300538,1.748046875
,28.8746774,1.728515625
,28.8749256,1.69921875
,28.889613,1.6748046875
,28.9245096,1.640625
,28.9456858,1.6259765625
,28.9508996,1.6064453125
,28.9719365,1.5771484375
,29.0086512,1.5625
,29.0088947,1.533203125
,29.046836,1.5283203125
,29.0758701,1.5234375
,29.0762386,1.5283203125
,29.0897486,1.5234375
,29.139641,1.5234375
,29.1398877,1.5283203125
,29.1516135,1.5478515625
,29.1676879,1.58203125
,29.2030129,1.650390625
,29.2232177,1.7138671875
,29.2287934,1.77734375
,29.2794702,1.845703125
,29.2798648,1.89453125
,29.3094189,1.953125
,29.3097373,1.9921875
,29.3447021,2.0263671875
,29.3649245,2.0263671875
,29.3728466,2.0263671875
,29.3895611,2.01171875
,29.4102279,2.01171875
,29.4481429,1.9921875
,29.4484233,1.9873046875
,29.4973503,1.9580078125
,29.4975884,1.943359375
,29.5164992,1.9189453125
,29.532544,1.8896484375
,29.5488974,1.85546875
,29.5899301,1.85546875
,29.5901746,1.845703125
,29.6244398,1.8212890625
,29.6300012,1.796875
,29.6673088,1.7724609375
,29.6723548,1.7529296875
,29.7053149,1.7236328125
,29.7272917,1.708984375
,29.7297612,1.689453125
,29.764748,1.6748046875
,29.7695804,1.66015625
,29.8039998,1.6455078125
,29.8238175,1.630859375
,29.8308739,1.6162109375
,29.8653537,1.6015625
,29.8858512,1.58203125
,29.8937013,1.5869140625
,29.9099114,1.572265625
,29.9478867,1.611328125
,29.9482511,1.6455078125
,29.9865107,1.7138671875
,29.9921456,1.7626953125
,30.0120248,1.826171875
,30.049398500000002,1.8798828125
,30.0542231,1.953125
,30.0703181,2.001953125
,30.093229700000002,2.080078125
,30.111151800000002,2.0703125
,30.131770699999997,2.119140625
,30.1655108,2.138671875
,30.1720039,2.138671875
,30.205969600000003,2.1240234375
,30.2265133,2.119140625
,30.234525599999998,2.1044921875
,30.271049400000003,2.0703125
,30.2735179,2.041015625
,30.2907375,2.001953125
,30.3096393,1.982421875
,30.3435413,1.9482421875
,30.363517299999998,1.923828125
,30.3732847,1.89453125
,30.392556300000003,1.8603515625
,30.4138565,1.826171875
,30.4658399,1.796875
,30.466165500000002,1.7626953125
,30.4699443,1.7529296875
,30.505693,1.728515625
,30.511421,1.708984375
,30.5584031,1.689453125
,30.5586523,1.66015625
,30.5801626,1.6357421875
,30.593825799999998,1.6064453125
,30.6308212,1.591796875
,30.631234499999998,1.5625
,30.6673788,1.552734375
,30.6975756,1.5380859375
,30.697845,1.5234375
,30.7106687,1.5185546875
,30.744548100000003,1.54296875
,30.764905900000002,1.572265625
,30.7726697,1.630859375
,30.7899759,1.6796875
,30.8104334,1.7529296875
,30.8444784,1.8115234375
,30.8671217,1.8896484375
,30.871038499999997,1.953125
,30.9053908,1.9921875
,30.926973099999998,2.0361328125
,30.932089599999998,2.05078125
,30.9773741,2.0556640625
,30.977625600000003,2.041015625
,30.996564,2.001953125
,31.01247,1.9873046875
,31.0559029,1.9921875
,31.056151999999997,1.9775390625
,31.073881299999996,1.962890625
,31.093261599999998,1.943359375
,31.127896399999997,1.9384765625
,31.148611099999997,1.9189453125
,31.154122100000002,1.8994140625
,31.197051799999997,1.8798828125
,31.197418499999998,1.845703125
,31.2114684,1.826171875
,31.2595059,1.8017578125
,31.259776700000003,1.787109375
,31.2894244,1.7529296875
,31.292679800000002,1.7333984375
,31.3302105,1.708984375
,31.335158300000003,1.689453125
,31.352272900000003,1.6650390625
,31.4003211,1.66015625
,31.400744600000003,1.6455078125
,31.413710100000003,1.6357421875
,31.4624179,1.6162109375
,31.4626679,1.6064453125
,31.4720067,1.591796875
,31.508247599999997,1.5966796875
,31.5277284,1.6015625
,31.530847100000003,1.62109375
,31.5666345,1.6748046875
,31.5712536,1.73828125
,31.6073334,1.796875
,31.627291399999997,1.8603515625
,31.6328063,1.923828125
,31.6824091,1.982421875
,31.6829087,2.0361328125
,31.712346099999998,2.0849609375
,31.712683300000002,2.1240234375
,31.7599296,2.138671875
,31.7601827,2.1533203125
,31.773891,2.1435546875
,31.809384799999997,2.12890625
,31.8138456,2.119140625
,31.848893500000003,2.08984375
,31.8557158,2.0751953125
,31.890706100000003,2.041015625
,31.8955865,2.021484375
,31.9291647,1.982421875
,31.9320848,1.9677734375
,31.967601799999997,1.9384765625
,31.9878625,1.9140625
,31.993270000000003,1.884765625
,32.0300007,1.865234375
,32.0503289,1.8310546875
,32.0558564,1.8115234375
,32.0720476,1.7822265625
,32.1179721,1.7724609375
,32.1182229,1.7529296875
,32.1327844,1.7578125
,32.1694675,1.748046875
,32.1976934,1.728515625
,32.1980917,1.7138671875
,32.2155717,1.69921875
,32.2497931,1.6796875
,32.2698548,1.6650390625
,32.2744874,1.669921875
,32.292864,1.6650390625
,32.3365604,1.6650390625
,32.3368775,1.689453125
,32.3564018,1.728515625
,32.3977227,1.77734375
,32.3980737,1.845703125
,32.4112943,1.8994140625
,32.4462028,1.97265625
,32.4667018,2.0458984375
,32.4725079,2.0947265625
,32.5083309,2.138671875
,32.5138448,2.16796875
,32.5523981,2.1875
,32.5549533,2.1826171875
,32.6005868,2.16796875
,32.6009804,2.1435546875
,32.6302376,2.1337890625
,32.6349747,2.0654296875
,32.6528418,2.0703125
,32.6933378,2.0556640625
,32.6938034,2.041015625
,32.7142225,2.01171875
,32.7509676,1.982421875
,32.7733168,1.9482421875
,32.7778319,1.9287109375
,32.7984736,1.89453125
,32.8136667,1.85546875
,32.8498329,1.8310546875
,32.8550844,1.8017578125
,32.8971344,1.77734375
,32.8973872,1.748046875
,32.9153882,1.728515625
,32.9602152,1.7041015625
,32.9604565,1.6845703125
,32.9825935,1.6650390625
,32.9946301,1.6552734375
,33.0399475,1.6357421875
,33.0402227,1.6259765625
,33.0540621,1.611328125
,33.0911013,1.5966796875
,33.0968542,1.58203125
,33.1343363,1.5625
,33.1346394,1.572265625
,33.1529487,1.6015625
,33.1977306,1.6748046875
,33.1981265,1.7431640625
,33.2158332,1.8115234375
,33.2358993,1.875
,33.2551099,1.943359375
,33.288695,1.9921875
,33.3097028,2.0458984375
,33.3132312,2.0654296875
,33.3512915,2.0849609375
,33.3516859,2.0703125
,33.3979817,2.0361328125
,33.3984146,1.9921875
,33.4305845,1.962890625
,33.4352632,1.93359375
,33.47027,1.8896484375
,33.4903547,1.85546875
,33.4975234,1.826171875
,33.5172837,1.7626953125
,33.534758,1.7138671875
,33.5701657,1.7333984375
,33.5753468,1.728515625
,33.6183952,1.71875
,33.6188264,1.689453125
,33.6366606,1.6748046875
,33.6789183,1.66015625
,33.6792823,1.6650390625
,33.6942892,1.6552734375
,33.7149624,1.6552734375
,33.7363806,1.6552734375
,33.7564082,1.640625
,33.804464,1.630859375
,33.8046708,1.62109375
,33.8157966,1.62109375
,33.852893,1.6015625
,33.8824367,1.5966796875
,33.8826847,1.58203125
,33.894139,1.5869140625
,33.9304351,1.58203125
,33.936662,1.611328125
,33.9570569,1.630859375
,33.9932382,1.6845703125
,33.9978029,1.73828125
,34.0336937,1.7919921875
,34.0339352,1.8359375
,34.0709363,1.9140625
,34.0737432,1.9677734375
,34.1100252,2.0068359375
,34.1153078,2.03125
,34.1636347,2.0361328125
,34.163876,2.03125
,34.1775968,2.0166015625
,34.2132099,2.01171875
,34.213544,1.9970703125
,34.2573009,1.9921875
,34.2575977,1.97265625
,34.2867254,1.9482421875
,34.2947648,1.9140625
,34.3341628,1.8798828125
,34.3367163,1.8408203125
,34.3727106,1.796875
,34.377711,1.7626953125
,34.4270542,1.7138671875
,34.4272956,1.6796875
,34.4361274,1.6455078125
,34.4748778,1.630859375
,34.4751209,1.6064453125
,34.5199808,1.5869140625
,34.5202242,1.5673828125
,34.5406362,1.552734375
,34.5580518,1.5234375
,34.5938017,1.5087890625
,34.5940481,1.484375
,34.6328935,1.484375
,34.6374633,1.4697265625
,34.6752678,1.455078125
,34.6755854,1.4306640625
,34.7118362,1.4306640625
,34.7173683,1.42578125
,34.7535053,1.4208984375
,34.7594308,1.455078125
,34.7745301,1.494140625
,34.8159656,1.5625
,34.8163769,1.6162109375
,34.8363722,1.6845703125
,34.8734308,1.73828125
,34.8780759,1.787109375
,34.927032,1.81640625
,34.9274303,1.8359375
,34.9358847,1.8359375
,34.9559194,1.8505859375
,34.9899064,1.845703125
,35.0106676,1.8408203125
,35.0156471,1.8408203125
,35.0491991,1.826171875
,35.071289,1.8115234375
,35.078296,1.796875
,35.1145354,1.787109375
,35.1147813,1.767578125
,35.1476946,1.7626953125
,35.1684544,1.7529296875
,35.1763786,1.73828125
,35.2128341,1.7236328125
,35.2181392,1.7236328125
,35.2551133,1.708984375
,35.2583878,1.69921875
,35.2964352,1.6796875
,35.2968329,1.6650390625
,35.3333382,1.640625
,35.33794,1.6455078125
,35.3774663,1.6357421875
,35.3777356,1.62109375
,35.4113132,1.611328125
,35.4315927,1.6015625
,35.4389278,1.5869140625
,35.4736595,1.5673828125
,35.4944583,1.5673828125
,35.4949401,1.5625
,35.5331769,1.5869140625
,35.5532426,1.6259765625
,35.5564771,1.6796875
,35.5921663,1.7236328125
,35.6125773,1.787109375
,35.617801,1.8359375
,35.6557291,1.8896484375
,35.6613305,1.943359375
,35.6763475,1.97265625
,35.721599,2.0068359375
,35.7223605,2.0263671875
,35.7363244,2.041015625
,35.7738791,2.03125
,35.7770462,2.0263671875
,35.8121054,2.0166015625
,35.8316232,2.0068359375
,35.8346146,1.982421875
,35.8739436,1.97265625
,35.8945978,1.9580078125
,35.8974022,1.943359375
,35.9347531,1.9140625
,35.9400764,1.89453125
,35.9849561,1.8603515625
,35.9853512,1.8408203125
,36.0019914,1.81640625
,36.0199106,1.7822265625
,36.0414759,1.7236328125
,36.0580169,1.6748046875
,36.0928322,1.689453125
,36.0979806,1.6943359375
,36.1337274,1.69921875
,36.1389298,1.689453125
,36.1747562,1.6796875
,36.1804389,1.6650390625
,36.2157723,1.650390625
,36.2161672,1.6357421875
,36.252332,1.6455078125
,36.2571699,1.640625
,36.2933994,1.6455078125
,36.3135793,1.6748046875
,36.3201286,1.69921875
,36.3563134,1.748046875
,36.3595734,1.796875
,36.3935688,1.8603515625
,36.4151203,1.9091796875
,36.4181179,1.9775390625
,36.4377195,2.0263671875
,36.4840561,2.0751953125
,36.4843022,2.099609375
,36.5042049,2.1240234375
,36.519735,2.119140625
,36.5569098,2.109375
,36.5571503,2.0849609375
,36.5940951,2.080078125
,36.5971122,2.0556640625
,36.640492,2.0458984375
,36.6408875,2.0263671875
,36.6625007,1.9921875
,36.6812764,1.962890625
,36.7188463,1.9287109375
,36.7192146,1.89453125
,36.7375526,1.865234375
,36.7587447,1.8505859375
,36.7965472,1.826171875
,36.7967869,1.8017578125
,36.8444958,1.77734375
,36.844863,1.7431640625
,36.875013,1.71875
,36.8796813,1.7041015625
,36.9211916,1.669921875
,36.9217103,1.650390625
,36.9440341,1.6357421875
,36.9594361,1.6015625
,36.9785995,1.591796875
,37.0290834,1.5771484375
,37.0294777,1.5771484375
,37.0598463,1.5576171875
,37.0602529,1.5576171875
,37.1053081,1.552734375
,37.1055507,1.5771484375
,37.1251426,1.6015625
,37.1393732,1.669921875
,37.1751901,1.7138671875
,37.1807197,1.7724609375
,37.2313315,1.8115234375
,37.2317247,1.865234375
,37.2396843,1.8896484375
,37.2770567,1.9482421875
,37.2979354,1.9775390625
,37.2983125,1.982421875
,37.3395437,1.9921875
,37.3397858,1.982421875
,37.360328,1.9775390625
,37.3956316,1.953125
,37.400851,1.9384765625
,37.4376929,1.9140625
,37.4430669,1.8896484375
,37.4592194,1.865234375
,37.4953653,1.8505859375
,37.5000888,1.8310546875
,37.5193084,1.8115234375
,37.5578229,1.7919921875
,37.5872816,1.7724609375
,37.5876115,1.7578125
,37.6030733,1.728515625
,37.6219458,1.708984375
,37.6377338,1.689453125
,37.6731312,1.689453125
,37.6968062,1.6748046875
,37.697134,1.6650390625
,37.7421926,1.6455078125
,37.7426903,1.6357421875
,37.761942,1.6162109375
,37.8056559,1.6064453125
,37.8058958,1.591796875
,37.8217442,1.58203125
,37.8395416,1.572265625
,37.8766309,1.591796875
,37.8813808,1.62109375
,37.928222,1.6796875
,37.9287303,1.7333984375
,37.9427369,1.7822265625
,37.9929486,1.8359375
,37.9933455,1.884765625
,38.0027771,1.93359375
,38.017054,1.97265625
,38.0523714,2.0263671875
,38.0737317,2.0458984375
,38.0813943,2.060546875
,38.1014556,2.05078125
,38.1231191,2.041015625
,38.161974,2.021484375
,38.1622168,2.01171875
,38.1785699,1.9873046875
,38.2134966,1.9775390625
,38.2343416,1.962890625
,38.2394866,1.9384765625
,38.2854293,1.9091796875
,38.2858206,1.884765625
,38.3021681,1.8701171875
,38.3359881,1.8505859375
,38.3575442,1.826171875
,38.3579371,1.806640625
,38.3956833,1.7919921875
,38.4246556,1.77734375
,38.4249047,1.7626953125
,38.4407857,1.7431640625
,38.4753038,1.71875
,38.495527,1.69921875
,38.503077,1.6845703125
,38.5225738,1.6552734375
,38.5427698,1.611328125
,38.5639548,1.5673828125
,38.5800398,1.533203125
,38.6288221,1.5625
,38.629065,1.572265625
,38.6590443,1.591796875
,38.6609502,1.62109375
,38.7051178,1.669921875
,38.7053629,1.71875
,38.7253866,1.7724609375
,38.7396182,1.81640625
,38.7834087,1.884765625
,38.7838724,1.9384765625
,38.8050787,2.0068359375
,38.8219656,2.041015625
,38.8589885,2.0751953125
,38.8636542,2.099609375
,38.9073521,2.08984375
,38.9076115,2.0849609375
,38.9217556,2.0703125
,38.969768,2.0654296875
,38.9700154,2.05078125
,38.9807234,2.03125
,39.017397,2.001953125
,39.0222616,1.982421875
,39.0562148,1.953125
,39.0768882,1.9287109375
,39.0797491,1.89453125
,39.1169208,1.8798828125
,39.1222622,1.85546875
,39.1707554,1.8310546875
,39.1710546,1.8017578125
,39.1818322,1.787109375
,39.2217058,1.7578125
,39.2220419,1.728515625
,39.2647949,1.7041015625
,39.2651331,1.6796875
,39.2942799,1.669921875
,39.299607,1.66015625
,39.3403591,1.650390625
,39.3406039,1.640625
,39.3603457,1.6259765625
,39.3970753,1.6064453125
,39.4199586,1.5966796875
,39.4243714,1.58203125
,39.4654328,1.552734375
,39.4658294,1.5771484375
,39.4808018,1.630859375
,39.5268807,1.6943359375
,39.5271272,1.73828125
,39.5441105,1.8017578125
,39.5627711,1.845703125
,39.5989888,1.904296875
,39.6034375,1.9384765625
,39.6391327,1.982421875
,39.6394504,1.9970703125
,39.6824276,2.021484375
,39.6826773,2.021484375
,39.7035768,2.021484375
,39.7234461,2.001953125
,39.7611239,1.9873046875
,39.7909363,1.962890625
,39.7914623,1.943359375
,39.7998771,1.9091796875
,39.8381251,1.9091796875
,39.8593869,1.8896484375
,39.8598299,1.8603515625
,39.8948435,1.8359375
,39.9159731,1.8115234375
,39.9232514,1.7822265625
,39.9594387,1.7529296875
,39.9640182,1.7333984375
,40.0110749,1.7138671875
,40.0113947,1.69921875
,40.0225734,1.6845703125
,40.0584109,1.6650390625
,40.0629513,1.6455078125
,40.0985778,1.630859375
,40.1045157,1.611328125
,40.1242763,1.591796875
,40.1652039,1.5771484375
,40.1656003,1.552734375
,40.1858692,1.5478515625
,40.2014456,1.5478515625
,40.2399987,1.5478515625
,40.2425083,1.5576171875
,40.2899017,1.591796875
,40.2901494,1.630859375
,40.3031235,1.6845703125
,40.336327,1.73828125
,40.3588376,1.806640625
,40.363029,1.85546875
,40.4001352,1.9189453125
,40.4004058,1.962890625
,40.4470068,2.001953125
,40.4473666,2.0166015625
,40.4673094,2.0361328125
,40.4841711,2.0361328125
,40.5195494,2.021484375
,40.5405164,2.01171875
,40.5407541,1.9921875
,40.5877238,1.982421875
,40.5881195,1.962890625
,40.6029985,1.953125
,40.6489888,1.9287109375
,40.6492456,1.9091796875
,40.669819,1.8798828125
,40.6868581,1.85546875
,40.7031413,1.826171875
,40.7224679,1.81640625
,40.7574338,1.796875
,40.7787644,1.7822265625
,40.7841378,1.767578125
,40.8051417,1.7431640625
,40.8235368,1.71875
,40.8675556,1.6943359375
,40.8679604,1.6845703125
,40.8977642,1.6650390625
,40.9025624,1.6650390625
,40.9376641,1.650390625
,40.9441683,1.640625
,40.9921909,1.6259765625
,40.9925337,1.62109375
,41.004729,1.611328125
,41.0546512,1.6064453125
,41.0550718,1.611328125
,41.0671204,1.6552734375
,41.0817069,1.650390625
,41.131787,1.7333984375
,41.1320345,1.806640625
,41.1521596,1.865234375
,41.1646322,1.9287109375
,41.1999651,1.97265625
,41.2058769,2.0263671875
,41.242441,2.0556640625
,41.2470136,2.0849609375
,41.2636375,2.0849609375
,41.2837136,2.0849609375
,41.3327919,2.080078125
,41.3330318,2.0751953125
,41.353222,2.0556640625
,41.3650219,2.05078125
,41.4114486,2.03125
,41.411857,2.0166015625
,41.4268336,1.9970703125
,41.4436664,1.9677734375
,41.4908466,1.953125
,41.4910888,1.9287109375
,41.5049146,1.9140625
,41.5536138,1.8896484375
,41.5538611,1.865234375
,41.5649785,1.8359375
,41.6003562,1.8115234375
,41.6210424,1.7822265625
,41.6232449,1.77734375
,41.6591558,1.7529296875
,41.6642396,1.7431640625
,41.6986686,1.71875
,41.7188823,1.7041015625
,41.7273621,1.669921875
,41.7460582,1.66015625
,41.7823102,1.6455078125
,41.782702,1.6259765625
,41.8190259,1.6162109375
,41.8244013,1.611328125
,41.8456521,1.611328125
,41.8812155,1.6259765625
,41.8859213,1.669921875
,41.9223076,1.71875
,41.9273392,1.767578125
,41.945467,1.81640625
,41.9915067,1.826171875
,41.9919024,1.884765625
,42.0222141,1.953125
,42.0225047,2.001953125
,42.0679673,2.03125
,42.0682919,2.05078125
,42.0886857,2.0361328125
,42.1236164,2.0263671875
,42.124329,2.01171875
,42.1594047,1.9970703125
,42.1789939,1.9677734375
,42.1845727,1.953125
,42.2202341,1.923828125
,42.2254881,1.904296875
,42.2466096,1.875
,42.2826214,1.8505859375
,42.2872447,1.81640625
,42.3241285,1.796875
,42.3243698,1.7578125
,42.3621775,1.7431640625
,42.3837966,1.71875
,42.3840401,1.7138671875
,42.4238734,1.69921875
,42.4242745,1.6748046875
,42.4587311,1.66015625
,42.4782913,1.640625
,42.4858111,1.62109375
,42.5203352,1.5966796875
,42.5246079,1.5966796875
,42.5604944,1.58203125
,42.565355,1.572265625
,42.6137734,1.552734375
,42.6141729,1.54296875
,42.627217,1.5234375
,42.6621536,1.5283203125
,42.662399,1.533203125
,42.6827206,1.5771484375
,42.7255478,1.6357421875
,42.7258348,1.6845703125
,42.756345,1.7431640625
,42.7657372,1.7919921875
,42.8005455,1.8505859375
,42.8221948,1.8994140625
,42.8284668,1.943359375
,42.8643629,1.962890625
,42.8666506,1.9775390625
,42.8844441,1.97265625
,42.9201634,1.982421875
,42.9446875,1.9775390625
,42.9450975,1.9775390625
,42.9900371,1.9580078125
,42.9903824,1.9384765625
,43.020187,1.9091796875
,43.0293319,1.8994140625
,43.0657273,1.8798828125
,43.0662465,1.8505859375
,43.1009081,1.8408203125
,43.1217765,1.81640625
,43.1266685,1.796875
,43.1778605,1.767578125
,43.1783005,1.748046875
,43.1886324,1.728515625
,43.2090089,1.7138671875
,43.2245318,1.689453125
,43.2709806,1.6845703125
,43.271488,1.669921875
,43.2872678,1.6650390625
,43.3241485,1.6455078125
,43.3262201,1.630859375
,43.3620922,1.62109375
,43.3946493,1.6015625
,43.3949786,1.5869140625
,43.4054486,1.58203125
,43.4412462,1.5966796875
,43.4455499,1.5966796875
,43.48136,1.62109375
,43.4865957,1.6455078125
,43.5344561,1.69921875
,43.534687,1.748046875
,43.5644103,1.81640625
,43.5646304,1.865234375
,43.6006851,1.9384765625
,43.604928,1.943359375
,43.6425312,2.021484375
,43.6455404,2.0654296875
,43.6807222,2.109375
,43.7018832,2.1240234375
,43.7075286,2.119140625
,43.7445258,2.109375
,43.749789,2.08984375
,43.7712587,2.0703125
,43.7877322,2.0458984375
,43.8083868,2.0361328125
,43.8455762,2.0166015625
,43.8484532,1.9921875
,43.8849564,1.9677734375
,43.8872037,1.9384765625
,43.9399634,1.9091796875
,43.9401721,1.8896484375
,43.9451149,1.8603515625
,43.985181,1.8505859375
,43.9853893,1.8359375
,44.0221071,1.8115234375
,44.0278288,1.796875
,44.064255,1.7724609375
,44.0668962,1.7626953125
,44.0898498,1.73828125
,44.1279344,1.7138671875
,44.1281369,1.689453125
,44.1454491,1.6845703125
,44.1817473,1.6650390625
,44.2029577,1.66015625
,44.2081744,1.640625
,44.2433378,1.6357421875
,44.2483762,1.6162109375
,44.284377,1.6162109375
,44.2846894,1.6162109375
,44.3054272,1.6748046875
,44.3557096,1.728515625
,44.3559758,1.7822265625
,44.3669083,1.8359375
,44.4168805,1.8896484375
,44.4170824,1.943359375
,44.4312546,1.9921875
,44.4499675,2.041015625
,44.4703579,2.0703125
,44.5068722,2.05078125
,44.5072022,2.0556640625
,44.5560888,2.0654296875
,44.5563989,2.060546875
,44.5676669,2.0556640625
,44.6051926,2.03125
,44.6094734,2.01171875
,44.65112,1.9921875
,44.6513765,1.953125
,44.6957215,1.923828125
,44.6959522,1.8896484375
,44.7081001,1.8701171875
,44.7439635,1.8408203125
,44.7490343,1.81640625
,44.7868432,1.7822265625
,44.7872948,1.7578125
,44.8237298,1.728515625
,44.8500512,1.7138671875
,44.8507705,1.6845703125
,44.8655177,1.669921875
,44.9027679,1.6455078125
,44.9287069,1.630859375
,44.9289886,1.6064453125
,44.974952,1.6015625
,44.9751987,1.591796875
,44.9882181,1.5673828125
,45.0243387,1.5576171875
,45.0447092,1.5380859375
,45.0472958,1.533203125
,45.083113,1.5283203125
,45.1149436,1.5380859375
,45.1152214,1.5576171875
,45.1285637,1.6015625
,45.1646715,1.640625
,45.1695186,1.69921875
,45.1853128,1.748046875
,45.2213724,1.8212890625
,45.2417046,1.8701171875
,45.2465754,1.923828125
,45.283667,1.9677734375
,45.3054179,1.9873046875
,45.3106246,1.9921875
,45.3312587,1.9873046875
,45.3520127,1.982421875
,45.3730787,1.962890625
,45.392249,1.953125
,45.4090224,1.9287109375
,45.4307712,1.9189453125
,45.4653507,1.9091796875
,45.4680638,1.9091796875
,45.5158651,1.8896484375
,45.5161739,1.875
,45.5382704,1.85546875
,45.5510983,1.8310546875
,45.5689921,1.796875
,45.5901117,1.796875
,45.6087942,1.77734375
,45.6294078,1.7529296875
,45.6504762,1.7333984375
,45.6712051,1.7138671875
,45.7173992,1.69921875
,45.7177856,1.6796875
,45.7321114,1.669921875
,45.7476506,1.650390625
,45.7948162,1.650390625
,45.7950578,1.640625
,45.8138745,1.630859375
,45.8282233,1.6162109375
,45.8650874,1.611328125
,45.8691427,1.6064453125
,45.901634,1.6015625
,45.9228662,1.630859375
,45.9279258,1.6552734375
,45.9671284,1.71875
,45.9675277,1.7822265625
,46.0043992,1.8603515625
,46.0099982,1.9140625
,46.0466336,1.9775390625
,46.0498784,2.0263671875
,46.0914809,2.080078125
,46.0917196,2.1044921875
,46.1133222,2.138671875
,46.1287403,2.08984375
,46.1650896,2.109375
,46.1702672,2.1142578125
,46.2055331,2.109375
,46.2102608,2.0849609375
,46.2466229,2.0751953125
,46.2680001,2.05078125
,46.2732473,2.021484375
,46.2925359,1.9921875
,46.3097488,1.962890625
,46.3444399,1.943359375
,46.3494336,1.9189453125
,46.3861604,1.8994140625
,46.3888811,1.8701171875
,46.4254687,1.8408203125
,46.4475839,1.81640625
,46.4516419,1.796875
,46.4684839,1.7724609375
,46.5127164,1.7724609375
,46.5130371,1.7578125
,46.5303396,1.73828125
,46.5660426,1.7333984375
,46.5706879,1.7138671875
,46.6071373,1.69921875
,46.6112982,1.6796875
,46.6480593,1.669921875
,46.6483562,1.650390625
,46.6944318,1.6552734375
,46.6948702,1.6455078125
,46.72426,1.6650390625
,46.7312391,1.6845703125
,46.7724026,1.73828125
,46.7726564,1.7822265625
,46.8057225,1.8505859375
,46.8266694,1.8994140625
,46.8290957,1.9677734375
,46.8646928,2.01171875
,46.870626,2.0751953125
,46.8889328,2.1142578125
,46.9266224,2.1240234375
,46.9298808,2.12890625
,46.9691861,2.119140625
,46.97242,2.099609375
,46.992245,2.0751953125
,47.0379494,2.021484375
,47.0381923,2.0068359375
,47.0688517,1.9970703125
,47.0691428,1.9775390625
,47.1073177,1.953125
,47.1098265,1.923828125
,47.1468507,1.8994140625
,47.1656098,1.865234375
,47.1726097,1.8310546875
,47.2224946,1.806640625
,47.2228011,1.7724609375
,47.2438858,1.7529296875
,47.2514109,1.728515625
,47.3025351,1.7138671875
,47.3027815,1.6943359375
,47.3116814,1.6748046875
,47.362916,1.6455078125
,47.363166,1.630859375
,47.3684933,1.6015625
,47.3900639,1.591796875
,47.4409243,1.5771484375
,47.441328,1.572265625
,47.4723371,1.5576171875
,47.4725807,1.552734375
,47.5183955,1.533203125
,47.518714,1.5576171875
,47.5344126,1.591796875
,47.5498965,1.6259765625
,47.5849734,1.6943359375
,47.605795,1.7529296875
,47.610741,1.81640625
,47.6584317,1.865234375
,47.6586912,1.923828125
,47.6784654,1.9677734375
,47.6996278,2.0068359375
,47.7089514,2.0166015625
,47.7443617,2.03125
,47.7653843,2.03125
,47.7709119,2.03125
,47.8156173,2.0068359375
,47.8159508,1.9921875
,47.8340801,1.9775390625
,47.8771736,1.9482421875
,47.8778462,1.923828125
,47.8928443,1.89453125
,47.9277947,1.8701171875
,47.9485146,1.8359375
,47.9490097,1.8212890625
,47.9857622,1.8017578125
,48.0178587,1.7822265625
,48.0182596,1.7578125
,48.0326717,1.748046875
,48.0704523,1.7236328125
,48.0734942,1.7041015625
,48.0904829,1.6845703125
,48.1266601,1.6748046875
,48.1300594,1.66015625
,48.172786,1.6552734375
,48.1731548,1.650390625
,48.2074437,1.6259765625
,48.2135025,1.611328125
,48.2503431,1.5966796875
,48.2558425,1.5869140625
,48.271829,1.572265625
,48.3060196,1.5869140625
,48.3108351,1.6015625
,48.3475092,1.640625
,48.3764383,1.689453125
,48.3767088,1.7529296875
,48.3939555,1.8115234375
,48.4383325,1.8798828125
,48.4385814,1.9384765625
,48.4596544,2.0068359375
,48.4725618,2.080078125
,48.5082931,2.1142578125
,48.5113428,2.138671875
,48.5489667,2.1435546875
,48.5538559,2.1484375
,48.5905873,2.12890625
,48.5958826,2.119140625
,48.6121699,2.0947265625
,48.6356023,2.0849609375
,48.6512689,2.0068359375
,48.6886825,2.01171875
,48.7196579,1.9921875
,48.7200564,1.9775390625
,48.7334701,1.953125
,48.7790989,1.9287109375
,48.7793514,1.8994140625
,48.7946788,1.8798828125
,48.8306446,1.85546875
,48.8312872,1.8212890625
,48.8750602,1.8115234375
,48.8753012,1.7919921875
,48.9072373,1.767578125
,48.9112227,1.748046875
,48.9529679,1.728515625
,48.9836607,1.7041015625
,48.9841476,1.6796875
,48.9917455,1.669921875
,49.0269264,1.66015625
,49.0315053,1.650390625
,49.0757784,1.6455078125
,49.0760798,1.640625
,49.1203019,1.6357421875
,49.1205576,1.6552734375
,49.1366745,1.6845703125
,49.1712105,1.73828125
,49.1716095,1.7919921875
,49.2055184,1.8701171875
,49.2251677,1.9287109375
,49.2325381,2.001953125
,49.2736193,2.0556640625
,49.2740409,2.119140625
,49.2963273,2.1484375
,49.3314968,2.177734375
,49.3320836,2.16796875
,49.3833434,2.16796875
,49.3836186,2.1484375
,49.3927523,2.1337890625
,49.4301981,2.099609375
,49.4356512,2.080078125
,49.4546538,2.0458984375
,49.4903897,2.0068359375
,49.4938287,1.9775390625
,49.5155005,1.9384765625
,49.5356643,1.865234375
,49.5536167,1.806640625
,49.5887137,1.8212890625
,49.5940606,1.8115234375
,49.6287725,1.806640625
,49.635208,1.7919921875
,49.6779201,1.7724609375
,49.678333,1.748046875
,49.6958946,1.73828125
,49.7130333,1.708984375
,49.7562669,1.6943359375
,49.7565608,1.689453125
,49.7732522,1.66015625
,49.8099617,1.640625
,49.831006,1.6162109375
,49.8355431,1.6064453125
,49.8820119,1.58203125
,49.8822625,1.572265625
,49.8940195,1.5625
,49.9436182,1.591796875
,49.944506,1.630859375
,49.9541546,1.6943359375
,49.9884485,1.73828125
,50.0087896,1.806640625
,50.0176136,1.8603515625
,50.0362557,1.9140625
,50.052125,1.953125
,50.0865034,2.0166015625
,50.1061528,2.0556640625
,50.1144095,2.060546875
,50.1492693,2.0556640625
,50.1546826,2.041015625
,50.1898421,2.0263671875
,50.2109018,2.0068359375
,50.2158373,1.9873046875
,50.2332742,1.9580078125
,50.269584,1.9482421875
,50.2722584,1.9287109375
,50.3166157,1.904296875
,50.3170397,1.884765625
,50.3372175,1.8701171875
,50.3555958,1.8359375
,50.3965272,1.81640625
,50.396921,1.8017578125
,50.4244831,1.77734375
,50.4369026,1.748046875
,50.4541443,1.71875
,50.489954,1.7138671875
,50.5208115,1.6943359375
,50.5212333,1.6796875
,50.5342423,1.66015625
,50.5812688,1.650390625
,50.5815221,1.6357421875
,50.595768,1.6357421875
,50.630769,1.62109375
,50.6324985,1.6259765625
,50.6742902,1.62109375
,50.6745393,1.62109375
,50.6937603,1.6259765625
,50.7373969,1.6748046875
,50.7377911,1.728515625
,50.767485,1.7822265625
,50.7776702,1.8505859375
,50.7942077,1.9091796875
,50.8308046,1.9873046875
,50.8348226,2.05078125
,50.8709671,2.1142578125
,50.8763588,2.1484375
,50.9241247,2.1728515625
,50.9244666,2.1728515625
,50.9379644,2.158203125
,50.9533118,2.12890625
,51.0026761,2.1240234375
,51.0030752,2.1044921875
,51.0141807,2.0751953125
,51.061986,2.0556640625
,51.0622384,2.0166015625
,51.076895,1.9873046875
,51.0959575,1.9482421875
,51.1294191,1.9287109375
,51.1489934,1.8896484375
,51.1554107,1.875
,51.1747828,1.8408203125
,51.2089107,1.8212890625
,51.2295843,1.7919921875
,51.2382237,1.7724609375
,51.2568371,1.7431640625
,51.291984,1.7236328125
,51.2969385,1.69921875
,51.3422387,1.6796875
,51.3425043,1.650390625
,51.3627996,1.650390625
,51.3755065,1.630859375
,51.4117683,1.6064453125
,51.4142536,1.5966796875
,51.4524403,1.5771484375
,51.4820284,1.5625
,51.4822716,1.5576171875
,51.4970891,1.5771484375
,51.5131009,1.6162109375
,51.5485862,1.6845703125
,51.5529033,1.7529296875
,51.5908812,1.81640625
,51.6116485,1.884765625
,51.6166489,1.962890625
,51.6694225,2.021484375
,51.6698145,2.0703125
,51.6782706,2.1142578125
,51.6955146,2.1142578125
,51.7455934,2.119140625
,51.745849,2.1044921875
,51.7563432,2.0947265625
,51.7946784,2.0556640625
,51.7950674,2.0361328125
,51.8340686,1.9921875
,51.8388032,1.9677734375
,51.8553131,1.9287109375
,51.9024607,1.9140625
,51.9028919,1.8798828125
,51.9150684,1.8505859375
,51.9515321,1.81640625
,51.9573419,1.787109375
,51.9951116,1.7529296875
,51.995478,1.728515625
,52.0397838,1.7041015625
,52.0400288,1.6748046875
,52.0610906,1.62109375
,52.074251,1.572265625
,52.1117116,1.58203125
,52.1167287,1.5771484375
,52.1525488,1.58203125
,52.1585566,1.5673828125
,52.1949967,1.552734375
,52.197923,1.5380859375
,52.242791,1.5234375
,52.2430874,1.5087890625
,52.2546774,1.5234375
,52.2931449,1.533203125
,52.2958861,1.5673828125
,52.3328033,1.6357421875
,52.3377931,1.689453125
,52.3843367,1.7578125
,52.3847624,1.8115234375
,52.3988965,1.875
,52.4162887,1.9189453125
,52.4525241,1.9775390625
,52.4579247,2.0068359375
,52.4934563,2.0263671875
,52.4965238,2.021484375
,52.5400924,2.0166015625
,52.5404867,1.9970703125
,52.5695464,1.982421875
,52.5757345,1.9580078125
,52.5951268,1.9482421875
,52.6303247,1.923828125
,52.650471,1.9140625
,52.6562408,1.8896484375
,52.690615,1.8603515625
,52.7137413,1.8359375
,52.7185042,1.8017578125
,52.7391161,1.77734375
,52.7574754,1.748046875
,52.7767062,1.7431640625
,52.7952031,1.7236328125
,52.8318356,1.7138671875
,52.8664089,1.6943359375
,52.8666492,1.6796875
,52.8791523,1.66015625
,52.9159806,1.650390625
,52.9189785,1.630859375
,52.9613755,1.6162109375
,52.962259,1.611328125
,52.9754723,1.591796875
,53.0231666,1.5869140625
,53.0234106,1.58203125
,53.0447211,1.5869140625
,53.0573513,1.591796875
,53.0938937,1.6259765625
,53.1135782,1.6796875
,53.1204368,1.7529296875
,53.1345791,1.8115234375
,53.1810553,1.89453125
,53.1814477,1.9580078125
,53.2104872,2.03125
,53.218125,2.080078125
,53.2526279,2.1240234375
,53.2727934,2.138671875
,53.2810884,2.1533203125
,53.3191569,2.1435546875
,53.3194131,2.119140625
,53.3373771,2.109375
,53.3716966,2.08984375
,53.3761252,2.0654296875
,53.4124322,2.0361328125
,53.4337817,2.01171875
,53.4391293,1.9775390625
,53.4603546,1.9482421875
,53.4773491,1.923828125
,53.5225448,1.904296875
,53.5229406,1.8798828125
,53.5386714,1.8603515625
,53.5750594,1.8359375
,53.5797452,1.806640625
,53.6147116,1.787109375
,53.6203947,1.7626953125
,53.6405214,1.7431640625
,53.6562426,1.7236328125
,53.6939328,1.7333984375
,53.6994928,1.71875
,53.7196525,1.7138671875
,53.7564371,1.689453125
,53.7567304,1.6796875
,53.7942477,1.6552734375
,53.7992033,1.6455078125
,53.8341943,1.6259765625
,53.8547257,1.630859375
,53.8577313,1.650390625
,53.8939621,1.708984375
,53.9132586,1.7626953125
,53.9184145,1.8408203125
,53.9553937,1.904296875
,53.9598807,1.962890625
,53.9969518,2.0263671875
,54.0019254,2.080078125
,54.0224452,2.119140625
,54.0372149,2.138671875
,54.071741,2.158203125
,54.092678,2.158203125
,54.0988572,2.1435546875
,54.1435019,2.1142578125
,54.1437604,2.0849609375
,54.1624067,2.0556640625
,54.1803246,2.021484375
,54.1981508,1.9873046875
,54.2165679,1.9580078125
,54.268393,1.9384765625
,54.2686489,1.89453125
,54.2785782,1.865234375
,54.314383,1.826171875
,54.3354448,1.796875
,54.3402291,1.7529296875
,54.3767279,1.71875
,54.3771732,1.6845703125
,54.4140926,1.6650390625
,54.4185403,1.6357421875
,54.4556787,1.6162109375
,54.4586935,1.5869140625
,54.4934626,1.5673828125
,54.5143447,1.54296875
,54.5216122,1.5234375
,54.5415674,1.4990234375
,54.5628318,1.4501953125
,54.5824262,1.4111328125
,54.5975921,1.3720703125
,54.6427855,1.396484375
,54.6431073,1.42578125
,54.6607069,1.4794921875
,54.7048027,1.533203125
,54.7050534,1.611328125
,54.7198818,1.6796875
,54.7539607,1.7529296875
,54.7743127,1.8115234375
,54.7775452,1.884765625
,54.8151792,1.9384765625
,54.8184812,1.9873046875
,54.8554468,2.001953125
,54.8609889,2.01171875
,54.8965749,2.01171875
,54.9015679,1.9921875
,54.9408137,1.97265625
,54.941113,1.953125
,54.9754586,1.9384765625
,54.9781254,1.9189453125
,55.0141394,1.89453125
,55.0359294,1.865234375
,55.0403568,1.8408203125
,55.076997,1.8115234375
,55.0828803,1.7919921875
,55.0969042,1.7724609375
,55.1308299,1.7578125
,55.1513028,1.7431640625
,55.1613817,1.7236328125
,55.1809412,1.7041015625
,55.2013284,1.6943359375
,55.2388768,1.6796875
,55.2392818,1.6552734375
,55.2765917,1.640625
,55.2768456,1.62109375
,55.3124754,1.62109375
,55.3322825,1.6064453125
,55.3396577,1.6064453125
,55.375097,1.591796875
,55.3803836,1.5869140625
,55.4192169,1.5771484375
,55.4197175,1.6015625
,55.4698351,1.6357421875
,55.4700986,1.69921875
,55.4911199,1.7529296875
,55.499165,1.8310546875
,55.5338934,1.904296875
,55.5405489,1.962890625
,55.5764671,2.0263671875
,55.5819118,2.0703125
,55.6275835,2.1142578125
,55.6279783,2.1240234375
,55.6424648,2.12890625
,55.6591327,2.1142578125
,55.7042832,2.1142578125
,55.7046149,2.1044921875
,55.7207385,2.099609375
,55.7566228,2.0751953125
,55.761874,2.0556640625
,55.7968415,2.021484375
,55.802737,1.9921875
,55.818452,1.953125
,55.86172,1.943359375
,55.8620064,1.923828125
,55.8810665,1.8994140625
,55.9159691,1.884765625
,55.9211119,1.8603515625
,55.9568717,1.8359375
,55.9610704,1.806640625
,55.9970308,1.7822265625
,56.0195426,1.7578125
,56.0203216,1.748046875
,56.0400678,1.728515625
,56.079366,1.708984375
,56.0796179,1.689453125
,56.1150069,1.6748046875
,56.1351236,1.6552734375
,56.1432341,1.6455078125
,56.1874366,1.640625
,56.1876938,1.630859375
,56.198759,1.669921875
,56.2484787,1.7138671875
,56.2487253,1.7919921875
,56.2698965,1.8505859375
,56.2828371,1.923828125
,56.3180176,1.9775390625
,56.3240823,2.05078125
,56.373183,2.08984375
,56.3734339,2.138671875
,56.38102,2.1533203125
,56.4002121,2.177734375
,56.4352447,2.16796875
,56.4555903,2.1533203125
,56.4624057,2.1240234375
,56.4981257,2.109375
,56.5016022,2.0751953125
,56.5433137,2.041015625
,56.5435546,2.01171875
,56.5654489,1.97265625
,56.5822254,1.9482421875
,56.6228173,1.9189453125
,56.6232102,1.89453125
,56.6686633,1.865234375
,56.6691511,1.8310546875
,56.6843135,1.8017578125
,56.7310718,1.767578125
,56.7314666,1.73828125
,56.7405377,1.73828125
,56.7755961,1.71875
,56.8085382,1.7041015625
,56.8087905,1.689453125
,56.8227151,1.6650390625
,56.8566981,1.6455078125
,56.8768088,1.62109375
,56.8833775,1.6064453125
,56.9009663,1.58203125
,56.9215473,1.58203125
,56.9566952,1.572265625
,56.9802325,1.5771484375
,56.9804649,1.591796875
,57.0173819,1.640625
,57.0430294,1.6845703125
,57.0435902,1.748046875
,57.0609533,1.8017578125
,57.1053268,1.8701171875
,57.1058698,1.8798828125
,57.1213216,1.962890625
,57.1675582,2.021484375
,57.1678002,2.05078125
,57.1890268,2.060546875
,57.2033749,2.05078125
,57.2369145,2.041015625
,57.2588321,2.0166015625
,57.2651777,2.001953125
,57.2825524,1.97265625
,57.3213804,1.953125
,57.3216227,1.9287109375
,57.3571082,1.904296875
,57.3776492,1.875
,57.383381,1.8505859375
,57.4195372,1.81640625
,57.4241666,1.787109375
,57.4456702,1.7626953125
,57.4608282,1.728515625
,57.4959249,1.71875
,57.5160029,1.6943359375
,57.5218519,1.6796875
,57.5587735,1.6552734375
,57.5790385,1.630859375
,57.5833398,1.6064453125
,57.619875,1.591796875
,57.6505183,1.572265625
,57.6507921,1.572265625
,57.6616151,1.5576171875
,57.6963972,1.552734375
,57.7166894,1.54296875
,57.7244274,1.5380859375
,57.7593851,1.54296875
,57.7651012,1.6015625
,57.8011684,1.6650390625
,57.801565,1.71875
,57.8218171,1.8017578125
,57.8575964,1.865234375
,57.8797286,1.9384765625
,57.882675,1.9921875
,57.9186899,2.05078125
,57.9245845,2.0849609375
,57.9595617,2.099609375
,57.9892497,2.0947265625
,57.9894948,2.0458984375
,58.0026465,2.0361328125
,58.0366446,2.041015625
,58.0569339,2.0263671875
,58.0637709,2.0068359375
,58.1011498,1.982421875
,58.1054681,1.953125
,58.141985,1.923828125
,58.1453603,1.884765625
,58.1831283,1.8603515625
,58.1836173,1.826171875
,58.2019936,1.8115234375
,58.2371731,1.787109375
,58.2562828,1.7724609375
,58.2634906,1.748046875
,58.2984265,1.7333984375
,58.3187012,1.708984375
,58.3246794,1.69921875
,58.3415511,1.669921875
,58.3788446,1.6650390625
,58.3817494,1.640625
,58.4188799,1.6357421875
,58.4257017,1.62109375
,58.4741936,1.6064453125
,58.474587,1.5966796875
,58.4864688,1.58203125
,58.5067784,1.5869140625
,58.5225604,1.6064453125
,58.5557421,1.669921875
,58.57736,1.728515625
,58.5828746,1.8017578125
,58.6183285,1.8701171875
,58.6236786,1.93359375
,58.6597287,1.9970703125
,58.6914891,2.060546875
,58.6918854,2.1044921875
,58.7032624,2.138671875
,58.7532687,2.16796875
,58.7535126,2.1630859375
,58.7652506,2.1533203125
,58.8015454,2.1337890625
,58.806247,2.119140625
,58.8254144,2.08984375
,58.8746276,2.0654296875
,58.8748794,2.03125
,58.8870998,2.001953125
,58.9026314,1.9677734375
,58.9539609,1.9482421875
,58.9543988,1.9140625
,58.9829602,1.89453125
,58.9832053,1.865234375
,59.0185503,1.8408203125
,59.0386205,1.806640625
,59.0474802,1.787109375
,59.0816244,1.7626953125
,59.1028956,1.73828125
,59.1033985,1.7138671875
,59.1537473,1.6943359375
,59.1539904,1.6796875
,59.1664412,1.66015625
,59.2011943,1.640625
,59.2076577,1.62109375
,59.2277209,1.6064453125
,59.2453694,1.5869140625
,59.2634054,1.5869140625
,59.2993856,1.591796875
,59.3049983,1.6357421875
,59.3411676,1.6748046875
,59.3443674,1.73828125
,59.3854538,1.8115234375
,59.3856943,1.875
,59.4053743,1.9384765625
,59.4250008,1.9921875
,59.4596441,2.0556640625
,59.4625243,2.099609375
,59.4967194,2.1240234375
,59.5185458,2.1240234375
,59.5261854,2.109375
,59.5740087,2.0849609375
,59.5744066,2.0654296875
,59.5837548,2.0263671875
,59.6205799,2.0068359375
,59.6233138,1.93359375
,59.6612245,1.9189453125
,59.6843076,1.8896484375
,59.6845528,1.8701171875
,59.7310267,1.8408203125
,59.7312691,1.806640625
,59.7512647,1.77734375
,59.7679588,1.748046875
,59.8040187,1.71875
,59.80426,1.6943359375
,59.8535077,1.6943359375
,59.8537726,1.6796875
,59.8660438,1.6650390625
,59.903471,1.6455078125
,59.9079389,1.630859375
,59.9435139,1.6064453125
,59.9469595,1.5966796875
,59.9624336,1.572265625
,60.0018195,1.572265625
,60.0048291,1.572265625
,60.0237688,1.552734375
,60.0584502,1.552734375
,60.086113,1.5673828125
,60.0865836,1.611328125
,60.1076095,1.650390625
,60.1432419,1.708984375
,60.1434931,1.767578125
,60.1666688,1.8408203125
,60.1846083,1.8994140625
,60.2189486,1.962890625
,60.2390805,2.0068359375
,60.2468238,2.0361328125
,60.2674789,2.0361328125
,60.3024039,2.0361328125
,60.3218847,2.01171875
,60.3246857,2.021484375
,60.3602148,2.0068359375
,60.365534,1.9873046875
,60.4027212,1.9677734375
,60.4066286,1.9384765625
,60.4465108,1.9091796875
,60.446885,1.8798828125
,60.4672769,1.85546875
,60.48933,1.8212890625
,60.5243675,1.7578125
,60.5540367,1.7431640625
,60.5542806,1.73828125
,60.565844,1.7236328125
,60.6171128,1.708984375
,60.6173545,1.689453125
,60.6268298,1.6748046875
,60.6647856,1.6650390625
,60.6697483,1.640625
,60.7060484,1.62109375
,60.7063216,1.6015625
,60.7428676,1.6015625
,60.7457286,1.591796875
,60.7828819,1.58203125
,60.7875291,1.5673828125
,60.8338744,1.5673828125
,60.8341171,1.572265625
,60.8494707,1.6162109375
,60.8654298,1.66015625
,60.8865004,1.7431640625
,60.9075509,1.806640625
,60.9588316,1.8798828125
,60.9592278,1.93359375
,60.9679727,2.001953125
,61.0050827,2.0556640625
,61.0097705,2.08984375
,61.053533,2.109375
,61.0537821,2.109375
,61.0654268,2.109375
,61.0990656,2.0947265625
,61.1191905,2.0849609375
,61.1261736,2.05078125
,61.1766264,2.03125
,61.1768799,2.001953125
,61.1896033,1.97265625
,61.2037597,1.943359375
,61.2395809,1.923828125
,61.2592243,1.8994140625
,61.2674736,1.875
,61.3164344,1.85546875
,61.316852,1.826171875
,61.3270628,1.806640625
,61.3620807,1.77734375
,61.3848522,1.7626953125
,61.3892248,1.7333984375
,61.4269083,1.71875
,61.4273081,1.689453125
,61.4452121,1.6845703125
,61.4815541,1.6650390625
,61.5020444,1.6552734375
,61.5078203,1.6357421875
,61.5509622,1.630859375
,61.551356,1.611328125
,61.5696395,1.6064453125
,61.585246,1.591796875
,61.6278498,1.62109375
,61.6280996,1.6650390625
,61.6489989,1.7138671875
,61.6687206,1.77734375
,61.7046249,1.8310546875
,61.7074441,1.8896484375
,61.742239,1.9384765625
,61.763317,1.9970703125
,61.7662011,2.0361328125
,61.8160906,2.0751953125
,61.8164425,2.08984375
,61.8273804,2.08984375
,61.8630679,2.0751953125
,61.8682465,2.0849609375
,61.9048188,2.0703125
,61.9092523,2.05078125
,61.954545,2.03125
,61.9547924,1.9921875
,61.9671733,1.9677734375
,61.9869994,1.93359375
,62.022116,1.9091796875
,62.027324899999996,1.875
,62.0766861,1.8408203125
,62.076931900000005,1.806640625
,62.0977652,1.77734375
,62.106411800000004,1.748046875
,62.154716300000004,1.73828125
,62.154962100000006,1.6650390625
,62.167212500000005,1.669921875
,62.20564160000001,1.6552734375
,62.2059641,1.640625
,62.2486681,1.6162109375
,62.279555599999995,1.611328125
,62.27987709999999,1.591796875
,62.2915605,1.5673828125
,62.3278811,1.552734375
,62.32828550000001,1.5283203125
,62.374020400000006,1.5234375
,62.374380200000004,1.5185546875
,62.3878308,1.5478515625
,62.4362981,1.58203125
,62.436640499999996,1.6357421875
,62.450189300000005,1.689453125
,62.498625200000006,1.748046875
,62.4990243,1.8017578125
,62.528021100000004,1.875
,62.5284271,1.9189453125
,62.56189740000001,1.9677734375
,62.5820379,1.9970703125
,62.58826259999999,1.9970703125
,62.626819,1.982421875
,62.6290372,1.9677734375
,62.662634499999996,1.9580078125
,62.6857483,1.93359375
,62.686053099999995,1.9140625
,62.7203305,1.89453125
,62.74112289999999,1.875
,62.748645499999995,1.845703125
,62.7902199,1.8212890625
,62.790687000000005,1.787109375
,62.8365733,1.7626953125
,62.8367703,1.728515625
,62.848673700000006,1.708984375
,62.8985309,1.6845703125
,62.898928299999994,1.689453125
,62.9082894,1.6796875
,62.944471699999994,1.66015625
,62.9506059,1.640625
,62.9714676,1.6259765625
,63.0057791,1.6064453125
,63.0107512,1.5869140625
,63.045831500000006,1.5380859375
,63.065775099999996,1.533203125
,63.0679674,1.5380859375
,63.102603,1.533203125
,63.1231174,1.5234375
,63.128427099999996,1.5234375
,63.175983900000006,1.54296875
,63.176377900000006,1.5673828125
,63.1949458,1.6259765625
,63.2115778,1.689453125
,63.2277428,1.73828125
,63.27083330000001,1.806640625
,63.271148999999994,1.865234375
,63.3012744,1.93359375
,63.3103617,1.9775390625
,63.3618625,2.021484375
,63.362266500000004,2.0361328125
,63.371611,2.041015625
,63.3884396,2.0263671875
,63.4240377,2.0361328125
,63.4289397,2.021484375
,63.464205899999996,2.01171875
,63.485256699999994,1.9873046875
,63.48976330000001,1.962890625
,63.526714999999996,1.9287109375
,63.531402400000005,1.9091796875
,63.5809108,1.8798828125
,63.581492999999995,1.8505859375
,63.5878261,1.826171875
,63.6249325,1.8017578125
,63.627883600000004,1.77734375
,63.663993700000006,1.7529296875
,63.6893718,1.73828125
,63.6897618,1.71875
,63.7348832,1.69921875
,63.73514230000001,1.6748046875
,63.749343100000004,1.66015625
,63.787398800000005,1.6455078125
,63.7876181,1.6357421875
,63.8271886,1.6162109375
,63.832117800000006,1.6015625
,63.852173199999996,1.5966796875
,63.8887555,1.58203125
,63.891132799999994,1.572265625
,63.937172700000005,1.572265625
,63.9374638,1.611328125
,63.9575402,1.640625
,63.9683277,1.708984375
,64.0034907,1.7626953125
,64.0242726,1.8310546875
,64.0314837,1.884765625
,64.069398,1.9580078125
,64.0698717,2.0068359375
,64.1060651,2.0556640625
,64.1399441,2.0849609375
,64.1404187,2.1142578125
,64.1506371,2.1142578125
,64.1866858,2.119140625
,64.1915063,2.1044921875
,64.2103975,2.080078125
,64.2458171,2.060546875
,64.2659959,2.03125
,64.2716232,2.001953125
,64.2902471,1.9677734375
,64.3261851,1.9482421875
,64.3290091,1.9189453125
,64.3754971,1.8896484375
,64.3758909,1.8603515625
,64.4061407,1.826171875
,64.4130044,1.796875
,64.4480776,1.77734375
,64.4484,1.748046875
,64.4822917,1.73828125
,64.5025116,1.7236328125
,64.5098654,1.69921875
,64.5461922,1.6796875
,64.5508984,1.6552734375
,64.5732307,1.6357421875
,64.591915,1.611328125
,64.6397915,1.591796875
,64.6401826,1.5625
,64.6713326,1.5576171875
,64.671768,1.494140625
,64.717344,1.5185546875
,64.7178703,1.5283203125
,64.7318261,1.572265625
,64.7796785,1.6162109375
,64.7799203,1.6748046875
,64.7909969,1.7236328125
,64.8280838,1.787109375
,64.8578654,1.845703125
,64.858187,1.8896484375
,64.8711447,1.953125
,64.9073325,1.9873046875
,64.9118269,2.01171875
,64.9510786,2.0166015625
,64.9514768,2.021484375
,64.9862558,2.001953125
,65.0136625,1.9873046875
,65.0141024,1.962890625
,65.0294645,1.9482421875
,65.0755108,1.9189453125
,65.0759543,1.904296875
,65.1056833,1.8701171875
,65.1111742,1.845703125
,65.1494588,1.81640625
,65.1563225,1.7822265625
,65.1743339,1.748046875
,65.1913279,1.7236328125
,65.210705,1.708984375
,65.2471695,1.689453125
,65.250056,1.6650390625
,65.2845076,1.6455078125
,65.3051679,1.6259765625
,65.3126231,1.5966796875
,65.3529568,1.58203125
,65.3532267,1.5576171875
,65.3724416,1.552734375
,65.3910091,1.5380859375
,65.4315407,1.5283203125
,65.4319358,1.50390625
,65.452035,1.5087890625
,65.4876184,1.5087890625
,65.507593,1.513671875
,65.5130718,1.552734375
,65.5325174,1.5966796875
,65.5689367,1.6162109375
,65.5896801,1.6845703125
,65.5900794,1.77734375
,65.6322771,1.845703125
,65.6639521,1.9140625
,65.6643511,1.962890625
,65.6728413,2.0068359375
,65.7096017,2.021484375
,65.741542,2.0361328125
,65.7419368,2.03125
,65.7522148,2.03125
,65.789105,2.0263671875
,65.7939461,2.0068359375
,65.8124591,1.982421875
,65.8511513,1.9580078125
,65.853524,1.9384765625
,65.8981795,1.904296875
,65.8983893,1.8798828125
,65.9167991,1.845703125
,65.9309653,1.826171875
,65.9683779,1.8017578125
,65.9731004,1.796875
,66.0222392,1.7822265625
,66.0226707,1.767578125
,66.0342232,1.7431640625
,66.0706993,1.728515625
,66.0709483,1.69921875
,66.1075421,1.6943359375
,66.1129156,1.6845703125
,66.1616046,1.6650390625
,66.1622842,1.650390625
,66.172704,1.6357421875
,66.2089327,1.6162109375
,66.2288671,1.6064453125
,66.2341399,1.6015625
,66.2511117,1.5966796875
,66.3003991,1.62109375
,66.3006496,1.6552734375
,66.3118757,1.708984375
,66.3478726,1.767578125
,66.3538112,1.8359375
,66.387121,1.89453125
,66.4091217,1.953125
,66.4157985,2.021484375
,66.4615412,2.060546875
,66.4617996,2.099609375
,66.4723237,2.1142578125
,66.5081244,2.138671875
,66.5115973,2.1337890625
,66.5477595,2.1240234375
,66.5527455,2.099609375
,66.5883453,2.080078125
,66.6081987,2.05078125
,66.6154484,2.03125
,66.6314853,1.9970703125
,66.6681127,1.9775390625
,66.6734086,1.953125
,66.7141601,1.923828125
,66.7144041,1.884765625
,66.7608138,1.865234375
,66.7610754,1.8408203125
,66.775781,1.806640625
,66.8211436,1.7822265625
,66.8215537,1.7529296875
,66.8307673,1.73828125
,66.8669312,1.7138671875
,66.8870591,1.69921875
,66.8926723,1.6796875
,66.9273627,1.66015625
,66.9480277,1.6357421875
,66.9564422,1.6162109375
,66.9715512,1.5966796875
,67.0061079,1.6064453125
,67.0263004,1.6015625
,67.0335671,1.5966796875
,67.0674749,1.611328125
,67.0877983,1.630859375
,67.0963979,1.6796875
,67.1170187,1.728515625
,67.1358994,1.796875
,67.1514173,1.8505859375
,67.187403,1.923828125
,67.2084643,1.982421875
,67.2128695,2.0458984375
,67.2542594,2.080078125
,67.2546564,2.119140625
,67.2876716,2.1240234375
,67.29527,2.119140625
,67.3321339,2.099609375
,67.3368859,2.0751953125
,67.3537224,2.0458984375
,67.37314,2.0361328125
,67.4078416,2.01171875
,67.4129235,1.97265625
,67.4606187,1.943359375
,67.4609414,1.904296875
,67.476812,1.875
,67.4970635,1.8359375
,67.5314661,1.81640625
,67.5317291,1.7822265625
,67.5701973,1.7626953125
,67.5993946,1.73828125
,67.5996493,1.7138671875
,67.6157974,1.689453125
,67.6504334,1.669921875
,67.6559748,1.640625
,67.694066,1.6162109375
,67.6945128,1.6015625
,67.7304182,1.5771484375
,67.73491,1.5625
,67.7543659,1.5478515625
,67.8005112,1.5478515625
,67.800757,1.533203125
,67.8218827,1.5234375
,67.8365185,1.513671875
,67.8570702,1.5283203125
,67.8727499,1.5576171875
,67.9114118,1.6259765625
,67.9118211,1.6845703125
,67.9592934,1.7529296875
,67.9596849,1.806640625
,67.9890793,1.875
,67.9962818,1.9189453125
,68.0169212,1.9921875
,68.0500246,2.03125
,68.0722761,2.041015625
,68.0788584,2.0068359375
,68.0946235,1.9677734375
,68.1455435,1.982421875
,68.1459511,1.982421875
,68.1550929,1.97265625
,68.1901552,1.953125
,68.1957574,1.9287109375
,68.2322127,1.904296875
,68.2374267,1.875
,68.2540197,1.8408203125
,68.3014381,1.8310546875
,68.3016825,1.806640625
,68.3162778,1.7822265625
,68.3614174,1.7578125
,68.3616899,1.728515625
,68.3775047,1.708984375
,68.3986411,1.6796875
,68.4186723,1.6650390625
,68.4358009,1.6357421875
,68.4852964,1.630859375
,68.4856357,1.611328125
,68.4955613,1.6015625
,68.5328076,1.58203125
,68.5373777,1.5771484375
,68.5807058,1.5576171875
,68.5809469,1.552734375
,68.5952024,1.5380859375
,68.615369,1.552734375
,68.6569653,1.5625
,68.6573583,1.62109375
,68.6770078,1.6845703125
,68.7177048,1.73828125
,68.718199,1.806640625
,68.7373185,1.8701171875
,68.7719236,1.93359375
,68.7928514,1.9873046875
,68.7934508,2.0556640625
,68.8420565,2.08984375
,68.8423113,2.1044921875
,68.8556259,2.1044921875
,68.8899653,2.0947265625
,68.896702,2.0703125
,68.9369322,2.0556640625
,68.937177,2.0263671875
,68.9724943,2.001953125
,68.9936526,1.982421875
,68.9941341,1.9482421875
,69.045309,1.9287109375
,69.0457036,1.9091796875
,69.0764833,1.89453125
,69.0768827,1.8701171875
,69.1224761,1.8505859375
,69.122721,1.81640625
,69.1381249,1.7919921875
,69.1548802,1.7626953125
,69.1894452,1.7529296875
,69.2320325,1.7333984375
,69.2325204,1.71875
,69.3069161,1.6943359375
,69.3072141,1.6748046875
,69.3073524,1.650390625
,69.3074893,1.650390625
,69.3195045,1.630859375
,69.3342459,1.6064453125
,69.3694967,1.6064453125
,69.3904908,1.6064453125
,69.3975002,1.6162109375
,69.4177536,1.6357421875
,69.4649743,1.6845703125
,69.4652196,1.7333984375
,69.4780428,1.8017578125
,69.4947196,1.8603515625
,69.530755,1.93359375
,69.5348594,1.9970703125
,69.5697905,2.0703125
,69.5920202,2.119140625
,69.5969081,2.1630859375
,69.6367364,2.1826171875
,69.6369815,2.177734375
,69.6842175,2.1630859375
,69.6845559,2.138671875
,69.7136867,2.1337890625
,69.7140123,2.109375
,69.7462075,2.080078125
,69.7664471,2.0458984375
,69.77849,2.021484375
,69.8231563,1.982421875
,69.8234286,1.9580078125
,69.8394545,1.9189453125
,69.8767341,1.884765625
,69.8770348,1.85546875
,69.9170328,1.8359375
,69.9172884,1.806640625
,69.9506004,1.7919921875
,69.9712268,1.767578125
,69.9772487,1.73828125
,70.0270569,1.7138671875
,70.0274502,1.689453125
,70.0574235,1.6650390625
,70.0576675,1.6455078125
,70.0917801,1.6552734375
,70.0966902,1.650390625
,70.1177957,1.6455078125
,70.1666869,1.6259765625
,70.1669361,1.6162109375
,70.1771561,1.6064453125
,70.2300815,1.6162109375
,70.2304387,1.6455078125
,70.2368299,1.7041015625
,70.256723,1.77734375
,70.2771488,1.8310546875
,70.3100709,1.8994140625
,70.3315848,1.953125
,70.3387799,2.021484375
,70.386197,2.060546875
,70.3865945,2.1044921875
,70.3974411,2.1142578125
,70.4176132,2.1240234375
,70.4521262,2.109375
,70.4565727,2.099609375
,70.4924258,2.0654296875
,70.5265522,2.041015625
,70.5269452,2.001953125
,70.5406257,1.9677734375
,70.5594898,1.923828125
,70.5811186,1.865234375
,70.6002467,1.806640625
,70.6178288,1.7529296875
,70.6663966,1.7578125
,70.6667928,1.748046875
,70.6792787,1.7333984375
,70.7175333,1.71875
,70.7179302,1.69921875
,70.7551719,1.6796875
,70.7592006,1.66015625
,70.7764112,1.630859375
,70.8123547,1.6162109375
,70.8171772,1.6015625
,70.853326,1.5966796875
,70.8578972,1.58203125
,70.9004653,1.5673828125
,70.9007776,1.5576171875
,70.920783,1.533203125
,70.963155,1.5234375
,70.9634751,1.5087890625
,70.9768009,1.5478515625
,71.0143338,1.5771484375
,71.0196369,1.640625
,71.0393756,1.6845703125
,71.074848,1.7578125
,71.0800969,1.8212890625
,71.1193729,1.8994140625
,71.119616,1.9482421875
,71.1389483,2.021484375
,71.1574603,2.05078125
,71.1923507,2.080078125
,71.1971981,2.0703125
,71.2319416,2.0654296875
,71.258868,2.0458984375
,71.2593474,2.0263671875
,71.3043011,2.001953125
,71.3047033,1.9677734375
,71.3159896,1.953125
,71.3514264,1.9287109375
,71.3716918,1.9091796875
,71.3766908,1.8798828125
,71.4139007,1.8505859375
,71.4345368,1.81640625
,71.4398587,1.787109375
,71.4770279,1.7578125
,71.4826307,1.73828125
,71.4982606,1.7138671875
,71.5326639,1.69921875
,71.5378818,1.689453125
,71.5744759,1.669921875
,71.5800987,1.6552734375
,71.59983,1.6357421875
,71.6357969,1.6259765625
,71.6409112,1.611328125
,71.6786321,1.5966796875
,71.6789584,1.572265625
,71.7252398,1.572265625
,71.7257591,1.5673828125
,71.7399179,1.5771484375
,71.7874104,1.591796875
,71.7876647,1.630859375
,71.7995727,1.6845703125
,71.8375184,1.7529296875
,71.8379388,1.8115234375
,71.8558558,1.904296875
,71.8923082,1.9775390625
,71.914131,2.041015625
,71.9190353,2.1044921875
,71.9547182,2.1337890625
,71.9607657,2.1533203125
,71.9956072,2.1484375
,72.0163633,2.138671875
,72.0168331,2.1142578125
,72.0556756,2.099609375
,72.0773387,2.0751953125
,72.0777508,2.05078125
,72.1162274,2.021484375
,72.1212794,2.01171875
,72.1632334,1.982421875
,72.1634837,1.9580078125
,72.181675,1.9287109375
,72.1980099,1.8896484375
,72.2444096,1.875
,72.2448043,1.8017578125
,72.2759327,1.8017578125
,72.2804154,1.787109375
,72.3149225,1.7724609375
,72.3204064,1.748046875
,72.3535896,1.7333984375
,72.3743684,1.7138671875
,72.3818392,1.69921875
,72.3995398,1.6796875
,72.4447996,1.6748046875
,72.4451947,1.66015625
,72.475584,1.6455078125
,72.480293,1.630859375
,72.5158361,1.62109375
,72.521191,1.611328125
,72.571132,1.611328125
,72.5716106,1.6455078125
,72.5787728,1.6845703125
,72.6151235,1.7578125
,72.6215348,1.826171875
,72.6396533,1.904296875
,72.6758189,1.97265625
,72.6808927,2.041015625
,72.7260605,2.0947265625
,72.7263352,2.1337890625
,72.756442,2.158203125
,72.756882,2.177734375
,72.802469,2.16796875
,72.8027083,2.1533203125
,72.8232307,2.1337890625
,72.8580315,2.1044921875
,72.8623807,2.0703125
,72.9132952,2.0361328125
,72.9135498,2.0068359375
,72.9190824,1.9677734375
,72.9393473,1.9482421875
,72.9770127,1.9091796875
,72.981672,1.884765625
,73.0228331,1.845703125
,73.0231541,1.8212890625
,73.0703374,1.7822265625
,73.0708608,1.7578125
,73.0822033,1.7236328125
,73.1046773,1.6650390625
,73.1202454,1.6064453125
,73.1553448,1.6357421875
,73.1605979,1.640625
,73.1951763,1.630859375
,73.2168336,1.62109375
,73.2216638,1.6064453125
,73.2705356,1.58203125
,73.270793,1.5673828125
,73.2846193,1.5576171875
,73.29929,1.5380859375
,73.3208095,1.5380859375
,73.3554576,1.5576171875
,73.3763603,1.6015625
,73.3810545,1.6455078125
,73.4273017,1.71875
,73.4275479,1.7822265625
,73.4471648,1.8505859375
,73.4657058,1.9189453125
,73.479418,1.962890625
,73.5148433,2.03125
,73.535467,2.060546875
,73.5415244,2.08984375
,73.5830277,2.080078125
,73.5832673,2.0703125
,73.6309273,2.041015625
,73.6311734,2.0263671875
,73.6611387,1.9921875
,73.6615331,1.982421875
,73.7080125,1.953125
,73.7083316,1.9287109375
,73.7225944,1.89453125
,73.7411654,1.8603515625
,73.7858762,1.8212890625
,73.7861923,1.7919921875
,73.8214307,1.7578125
,73.8217367,1.7236328125
,73.84038,1.708984375
,73.8602435,1.6845703125
,73.8937321,1.669921875
,73.9144863,1.6455078125
,73.9217233,1.6357421875
,73.9575534,1.611328125
,73.9789351,1.591796875
,73.9839095,1.5673828125
,74.0339817,1.552734375
,74.0342687,1.5283203125
,74.0393401,1.5283203125
,74.074975,1.513671875
,74.0957263,1.5087890625
,74.1034391,1.513671875
,74.1401965,1.5234375
,74.1428597,1.5625
,74.1798334,1.6259765625
,74.2055414,1.708984375
,74.2058661,1.7822265625
,74.2213739,1.8701171875
,74.242519,1.93359375
,74.2619619,2.01171875
,74.3102676,2.060546875
,74.3107849,2.1044921875
,74.3297756,2.119140625
,74.3432468,2.119140625
,74.3602734,2.099609375
,74.3978507,2.08984375
,74.4004868,2.0654296875
,74.4373892,2.060546875
,74.4416314,2.041015625
,74.4832542,2.0068359375
,74.4834667,1.9775390625
,74.512422,1.943359375
,74.5250649,1.9091796875
,74.5410178,1.875
,74.5902762,1.85546875
,74.590477,1.8310546875
,74.60097,1.81640625
,74.6365128,1.787109375
,74.6693296,1.7626953125
,74.6696521,1.73828125
,74.6854194,1.7333984375
,74.7010727,1.708984375
,74.7476209,1.7041015625
,74.7478596,1.69921875
,74.7613328,1.6357421875
,74.8080897,1.6357421875
,74.8083331,1.630859375
,74.8291014,1.6259765625
,74.8433272,1.611328125
,74.8780152,1.6015625
,74.8833255,1.5966796875
,74.9185085,1.611328125
,74.9385639,1.650390625
,74.9419157,1.7236328125
,74.9626851,1.787109375
,74.9968803,1.8701171875
,75.0184959,1.93359375
,75.0239524,2.001953125
,75.0722112,2.0556640625
,75.072604,2.119140625
,75.1022561,2.158203125
,75.1026594,2.1728515625
,75.1226102,2.177734375
,75.1634721,2.16796875
,75.1638474,2.1484375
,75.1980188,2.119140625
,75.218025,2.1044921875
,75.2253784,2.0751953125
,75.2729021,2.041015625
,75.2732082,2.001953125
,75.2837322,1.9775390625
,75.303638,1.9482421875
,75.3490099,1.923828125
,75.3495861,1.8896484375
,75.3630438,1.8603515625
,75.3998538,1.8310546875
,75.4048245,1.796875
,75.4394078,1.7724609375
,75.4597181,1.7431640625
,75.4644898,1.73828125
,75.4821575,1.71875
,75.5174636,1.7041015625
,75.5222026,1.6796875
,75.5583361,1.66015625
,75.5785931,1.640625
,75.5849771,1.630859375
,75.6059207,1.6015625
,75.6267325,1.5576171875
,75.6436655,1.513671875
,75.6796661,1.5380859375
,75.6844424,1.5625
,75.7042472,1.62109375
,75.74065,1.689453125
,75.7425472,1.7529296875
,75.7840522,1.8310546875
,75.784315,1.8896484375
,75.8049999,1.9580078125
,75.8212873,2.01171875
,75.8567211,2.080078125
,75.8765511,2.1240234375
,75.883984,2.1435546875
,75.9220084,2.1337890625
,75.9248187,2.1142578125
,75.9615111,2.08984375
,75.9658672,2.0654296875
,75.9825142,2.0361328125
,76.0168128,2.0166015625
,76.0374529,1.9970703125
,76.0432124,1.9580078125
,76.0942218,1.923828125
,76.0946171,1.8798828125
,76.1065716,1.8505859375
,76.155605,1.806640625
,76.1559543,1.77734375
,76.1614989,1.73828125
,76.1984121,1.7236328125
,76.218173,1.7041015625
,76.2231937,1.69921875
,76.2585685,1.6748046875
,76.2814667,1.66015625
,76.2846255,1.6357421875
,76.3060402,1.6162109375
,76.3229069,1.5869140625
,76.3588884,1.58203125
,76.3644125,1.5673828125
,76.3853859,1.5478515625
,76.4043823,1.533203125
,76.4531102,1.513671875
,76.4534269,1.5087890625
,76.4666515,1.513671875
,76.5030275,1.5576171875
,76.5075635,1.6064453125
,76.543558,1.669921875
,76.5438094,1.728515625
,76.5792373,1.8017578125
,76.5854834,1.865234375
,76.6254731,1.93359375
,76.6257164,1.9775390625
,76.6619743,2.021484375
,76.6675749,2.0458984375
,76.6866445,2.0361328125
,76.7206875,2.021484375
,76.7404081,2.001953125
,76.7427796,1.9970703125
,76.7809828,1.97265625
,76.8027387,1.9580078125
,76.8056818,1.9287109375
,76.8442493,1.8994140625
,76.8444963,1.865234375
,76.8900972,1.845703125
,76.890423,1.8115234375
,76.9108241,1.8017578125
,76.9240797,1.7724609375
,76.9436864,1.7529296875
,76.9863394,1.728515625
,76.9867331,1.71875
,77.0171262,1.7041015625
,77.0270229,1.6748046875
,77.0633171,1.66015625
,77.0635635,1.6357421875
,77.0842728,1.630859375
,77.1258847,1.611328125
,77.1262826,1.6015625
,77.171903,1.5869140625
,77.1722995,1.5771484375
,77.1872694,1.5576171875
,77.222413,1.5478515625
,77.2227936,1.5478515625
,77.2559627,1.591796875
,77.276932,1.640625
,77.2842669,1.708984375
,77.3239362,1.77734375
,77.32751,1.8408203125
,77.346909,1.9140625
,77.3853102,1.9775390625
,77.3857898,2.0458984375
,77.4326196,2.0849609375
,77.4328795,2.1142578125
,77.4434691,2.119140625
,77.4786105,2.12890625
,77.4983222,2.109375
,77.5072074,2.1044921875
,77.5564401,2.080078125
,77.5566879,2.0556640625
,77.5684563,2.0263671875
,77.6174507,1.9921875
,77.6178916,1.953125
,77.6251646,1.9384765625
,77.662498,1.9140625
,77.6669229,1.884765625
,77.7028759,1.8603515625
,77.7077018,1.8310546875
,77.7270584,1.8017578125
,77.7701063,1.7724609375
,77.7705163,1.7578125
,77.7845435,1.7333984375
,77.8319113,1.7236328125
,77.8321877,1.708984375
,77.8459104,1.6943359375
,77.8967868,1.6748046875
,77.8971481,1.66015625
,77.927493,1.640625
,77.9278845,1.62109375
,77.9481633,1.6064453125
,77.9653627,1.5869140625
,78.0029745,1.591796875
,78.0033,1.6015625
,78.0416079,1.640625
,78.0473634,1.6845703125
,78.0818335,1.7578125
,78.1023687,1.81640625
,78.1074632,1.8896484375
,78.1288675,1.9482421875
,78.149873,1.982421875
,78.1657743,2.01171875
,78.2052584,2.0947265625
,78.2055795,2.138671875
,78.2538356,2.1630859375
,78.2541886,2.158203125
,78.2739907,2.1728515625
,78.2868895,2.1630859375
,78.3213538,2.1435546875
,78.3428158,2.119140625
,78.3458032,2.08984375
,78.3926642,2.0654296875
,78.3932495,2.0361328125
,78.4078684,2.0068359375
,78.4429999,1.97265625
,78.4476767,1.9384765625
,78.4858917,1.904296875
,78.5169679,1.875
,78.5172121,1.8408203125
,78.5261202,1.8212890625
,78.5631236,1.796875
,78.5680348,1.7724609375
,78.6098217,1.7626953125
,78.6101419,1.728515625
,78.6282194,1.7041015625
,78.6716891,1.6748046875
,78.672117,1.66015625
,78.6863778,1.6259765625
,78.7212101,1.6162109375
,78.7266444,1.6015625
,78.7618532,1.5869140625
,78.7669124,1.572265625
,78.8005343,1.58203125
,78.8210959,1.5966796875
,78.8287536,1.650390625
,78.8448741,1.7041015625
,78.8934722,1.7822265625
,78.8938678,1.8408203125
,78.9224681,1.9189453125
,78.9257287,1.9873046875
,78.9704822,2.03125
,78.9708831,2.0751953125
,78.9894101,2.099609375
,79.0237579,2.1142578125
,79.0435512,2.0947265625
,79.049561,2.080078125
,79.0657088,2.05078125
,79.1007906,2.03125
,79.1213259,2.01171875
,79.1289518,1.982421875
,79.1468567,1.943359375
,79.1824821,1.9140625
,79.2029716,1.875
,79.2103928,1.8408203125
,79.250585,1.8115234375
,79.2509033,1.767578125
,79.2677324,1.748046875
,79.3127845,1.7236328125
,79.3130317,1.7138671875
,79.3333513,1.6845703125
,79.3497782,1.669921875
,79.3917265,1.640625
,79.3921817,1.6259765625
,79.4066087,1.5966796875
,79.4443894,1.5869140625
,79.447628,1.5673828125
,79.4677003,1.552734375
,79.5168196,1.5380859375
,79.5171381,1.5234375
,79.5309171,1.50390625
,79.5510183,1.50390625
,79.5935993,1.5087890625
,79.5940122,1.5283203125
,79.6082651,1.5966796875
,79.6558478,1.6552734375
,79.6562425,1.7333984375
,79.6697,1.796875
,79.7174816,1.875
,79.7177492,1.93359375
,79.7300525,1.9970703125
,79.7451962,2.0361328125
,79.7822286,2.0751953125
,79.8118652,2.0849609375
,79.8121113,2.08984375
,79.8267249,2.0751953125
,79.8625065,2.05078125
,79.8922041,2.0361328125
,79.8926283,2.0068359375
,79.9112934,1.9775390625
,79.9536131,1.943359375
,79.9538563,1.9140625
,79.9672538,1.875
,80.0047517,1.8603515625
,80.0087727,1.826171875
,80.0457062,1.806640625
,80.0500173,1.77734375
,80.0936238,1.7578125
,80.0938877,1.728515625
,80.1111689,1.7041015625
,80.1265323,1.6748046875
,80.1714075,1.6650390625
,80.1716989,1.6455078125
,80.2021782,1.6455078125
,80.2087113,1.630859375
,80.2448938,1.6064453125
,80.2494957,1.591796875
,80.2946993,1.572265625
,80.2950892,1.5576171875
,80.3247138,1.5478515625
,80.327051,1.5625
,80.3630665,1.58203125
,80.3831294,1.62109375
,80.3884189,1.6796875
,80.4234824,1.7431640625
,80.44428,1.8115234375
,80.450482,1.89453125
,80.4683089,1.9580078125
,80.4892319,2.0361328125
,80.5247884,2.119140625
,80.5294344,2.158203125
,80.5659965,2.1875
,80.5688538,2.1923828125
,80.6051521,2.1923828125
,80.6354653,2.16796875
,80.6357171,2.1484375
,80.6525493,2.109375
,80.6728108,2.041015625
,80.6894697,1.97265625
,80.7270092,1.982421875
,80.7274127,1.962890625
,80.7642472,1.9482421875
,80.7950969,1.9189453125
,80.795342,1.89453125
,80.8124845,1.85546875
,80.8487019,1.845703125
,80.8516285,1.8212890625
,80.8675225,1.787109375
,80.9048203,1.7724609375
,80.9100975,1.7529296875
,80.9518352,1.728515625
,80.9521149,1.708984375
,80.9730083,1.6943359375
,80.991337,1.6748046875
,81.0299918,1.6552734375
,81.0302653,1.640625
,81.0513942,1.6357421875
,81.0691733,1.62109375
,81.1054904,1.611328125
,81.1259003,1.5966796875
,81.1313913,1.5966796875
,81.172234,1.62109375
,81.1726276,1.6552734375
,81.2169668,1.71875
,81.2172839,1.77734375
,81.2287205,1.865234375
,81.2660044,1.9287109375
,81.2699707,2.0068359375
,81.3101015,2.060546875
,81.310349,2.119140625
,81.3452515,2.1435546875
,81.3657127,2.16796875
,81.3687237,2.1630859375
,81.4186933,2.1533203125
,81.418944,2.12890625
,81.4293626,2.099609375
,81.4660636,2.060546875
,81.4692405,2.0263671875
,81.4901783,1.9873046875
,81.5254126,1.943359375
,81.545795,1.9091796875
,81.5532652,1.8701171875
,81.5904514,1.8310546875
,81.5908323,1.7919921875
,81.6365913,1.7724609375
,81.6368577,1.7431640625
,81.6511399,1.71875
,81.6984538,1.6943359375
,81.6988711,1.6650390625
,81.7188635,1.6357421875
,81.7339335,1.62109375
,81.7493566,1.591796875
,81.7939114,1.58203125
,81.7943075,1.5771484375
,81.8109188,1.5576171875
,81.8569477,1.54296875
,81.8572712,1.5234375
,81.8731402,1.5185546875
,81.8929084,1.4990234375
,81.9280695,1.4892578125
,81.9286596,1.494140625
,81.9658328,1.54296875
,81.9704479,1.6015625
,82.0066692,1.6748046875
,82.0128376,1.7431640625
,82.047849,1.81640625
,82.0536576,1.884765625
,82.0723303,1.9482421875
,82.0905024,1.9970703125
,82.1248459,2.060546875
,82.1295501,2.08984375
,82.1651734,2.080078125
,82.1860168,2.0703125
,82.1909453,2.041015625
,82.2261171,2.0166015625
,82.2478615,1.982421875
,82.2526065,1.9482421875
,82.269734,1.9091796875
,82.308751,1.8798828125
,82.3090677,1.85546875
,82.3444777,1.826171875
,82.3652548,1.796875
,82.3707383,1.7822265625
,82.4069689,1.7578125
,82.4126765,1.73828125
,82.4506494,1.728515625
,82.4558481,1.69921875
,82.4743644,1.6748046875
,82.4916241,1.6455078125
,82.5120459,1.6455078125
,82.5578674,1.6259765625
,82.5581396,1.6162109375
,82.5719556,1.5966796875
,82.619374,1.58203125
,82.6197725,1.5673828125
,82.6343725,1.5625
,82.6498158,1.5380859375
,82.684831,1.552734375
,82.7053344,1.5478515625
,82.7119534,1.5673828125
,82.7591397,1.591796875
,82.759704,1.66015625
,82.7735611,1.7333984375
,82.823549,1.8017578125
,82.8240195,1.875
,82.8294766,1.9384765625
,82.8661666,2.01171875
,82.9002322,2.0703125
,82.9004813,2.1240234375
,82.9127235,2.1533203125
,82.9505519,2.1533203125
,82.9508671,2.1337890625
,82.9964769,2.109375
,82.9968729,2.080078125
,83.0258886,2.060546875
,83.0304516,2.0361328125
,83.0726019,2.001953125
,83.0729192,1.982421875
,83.1095563,1.943359375
,83.1125819,1.9091796875
,83.1477765,1.8701171875
,83.153074,1.8505859375
,83.1741947,1.806640625
,83.1946354,1.73828125
,83.2130323,1.6796875
,83.2318036,1.6943359375
,83.276664,1.6845703125
,83.2770785,1.6845703125
,83.2965956,1.6650390625
,83.3324332,1.6552734375
,83.3328472,1.6357421875
,83.3689798,1.630859375
,83.3707206,1.6015625
,83.4065645,1.6162109375
,83.4124615,1.611328125
,83.4474459,1.6015625
,83.4529024,1.591796875
,83.4726655,1.58203125
,83.5082596,1.5869140625
,83.5288135,1.611328125
,83.5357307,1.6748046875
,83.5525855,1.73828125
,83.5891665,1.826171875
,83.5896445,1.904296875
,83.6257835,1.982421875
,83.6528739,2.05078125
,83.6531248,2.1240234375
,83.6889353,2.16796875
,83.6938798,2.2021484375
,83.7305487,2.2119140625
,83.7606394,2.1875
,83.7610059,2.1728515625
,83.7710514,2.1484375
,83.8064285,2.1240234375
,83.827652,2.08984375
,83.8317618,2.0556640625
,83.8680976,2.0166015625
,83.8881948,1.982421875
,83.8926145,1.943359375
,83.9324273,1.9287109375
,83.9327527,1.89453125
,83.9804664,1.8701171875
,83.9807104,1.8408203125
,83.9938304,1.8115234375
,84.0291496,1.767578125
,84.0341987,1.748046875
,84.0749256,1.7236328125
,84.1041546,1.689453125
,84.1044037,1.6650390625
,84.1120886,1.6357421875
,84.1469688,1.630859375
,84.1669854,1.611328125
,84.1726093,1.5966796875
,84.2062004,1.572265625
,84.2270664,1.5576171875
,84.2341071,1.5380859375
,84.2700223,1.5185546875
,84.2921791,1.5087890625
,84.2924698,1.5380859375
,84.3276742,1.572265625
,84.3335966,1.6357421875
,84.369483,1.71875
,84.3747412,1.7822265625
,84.4161006,1.8505859375
,84.416495,1.9189453125
,84.4473253,1.9921875
,84.4518943,2.041015625
,84.487371,2.0849609375
,84.4940506,2.1044921875
,84.5402083,2.099609375
,84.540458,2.0751953125
,84.5537405,2.05078125
,84.5907016,2.021484375
,84.6200706,1.9873046875
,84.6203285,1.953125
,84.6337666,1.9287109375
,84.6828878,1.8896484375
,84.683193,1.8701171875
,84.6947042,1.8408203125
,84.7297012,1.806640625
,84.7501998,1.77734375
,84.7550105,1.7431640625
,84.8068697,1.7138671875
,84.8071119,1.6796875
,84.8136382,1.669921875
,84.852526,1.650390625
,84.8527773,1.630859375
,84.8888613,1.611328125
,84.8950056,1.5869140625
,84.9320789,1.5673828125
,84.9372572,1.5576171875
,84.9724525,1.533203125
,84.9780168,1.513671875
,85.012867,1.5087890625
,85.0131112,1.4892578125
,85.0477218,1.484375
,85.0690067,1.4794921875
,85.0764905,1.4990234375
,85.1195147,1.5283203125
,85.1199101,1.5966796875
,85.1366878,1.66015625
,85.1813758,1.7333984375
,85.1816209,1.796875
,85.193626,1.89453125
,85.2294667,1.953125
,85.2613032,2.021484375
,85.2615458,2.0556640625
,85.2757886,2.080078125
,85.3110181,2.0703125
,85.3169314,2.060546875
,85.3540059,2.041015625
,85.3542572,2.01171875
,85.3911789,1.9921875
,85.3953251,1.97265625
,85.4310599,1.943359375
,85.434233,1.9091796875
,85.4710985,1.8896484375
,85.4762955,1.85546875
,85.5117925,1.826171875
,85.5122505,1.796875
,85.5546527,1.7724609375
,85.5549156,1.7529296875
,85.5743885,1.7333984375
,85.608643,1.708984375
,85.6299092,1.6845703125
,85.636996,1.6748046875
,85.6736405,1.6455078125
,85.6783112,1.6259765625
,85.6991654,1.6015625
,85.7176168,1.552734375
,85.7346214,1.50390625
,85.7542367,1.5283203125
,85.7890395,1.5283203125
,85.8093349,1.533203125
,85.8147555,1.5234375
,85.8522257,1.5283203125
,85.8819549,1.5283203125
,85.882349,1.572265625
,85.8937974,1.6259765625
,85.9445228,1.7138671875
,85.9449259,1.787109375
,85.9564943,1.8798828125
,85.99095,1.9580078125
,85.9965617,2.021484375
,86.0307059,2.0849609375
,86.0515083,2.1240234375
,86.057146,2.1484375
,86.0745112,2.1435546875
,86.1095857,2.1435546875
,86.1149621,2.1240234375
,86.1504653,2.1044921875
,86.1708566,2.080078125
,86.176152,2.0458984375
,86.2158944,2.01171875
,86.216137,1.982421875
,86.2358755,1.943359375
,86.2791941,1.9189453125
,86.2795912,1.8994140625
,86.2960212,1.8701171875
,86.3155491,1.8359375
,86.350248,1.806640625
,86.3702683,1.7822265625
,86.3783702,1.748046875
,86.4143449,1.71875
,86.4147415,1.689453125
,86.450215,1.6796875
,86.4552992,1.66015625
,86.4907827,1.66015625
,86.5114058,1.6455078125
,86.5160092,1.6357421875
,86.5538863,1.611328125
,86.5585855,1.5966796875
,86.5774504,1.5673828125
,86.6128482,1.5576171875
,86.6200708,1.5478515625
,86.6362445,1.533203125
,86.6819931,1.5576171875
,86.6822349,1.591796875
,86.6981811,1.6552734375
,86.7196639,1.7138671875
,86.7539404,1.787109375
,86.7581112,1.8505859375
,86.8049717,1.9189453125
,86.805217,1.97265625
,86.814004,2.03125
,86.8483403,2.0654296875
,86.8689427,2.0849609375
,86.8765852,2.0751953125
,86.9113289,2.05078125
,86.9329695,2.03125
,86.9395506,1.9921875
,86.9763441,1.9580078125
,86.9766215,1.9189453125
,87.0126878,1.904296875
,87.0171221,1.875
,87.0552708,1.8408203125
,87.0555922,1.806640625
,87.1015137,1.7724609375
,87.1018216,1.7431640625
,87.121006,1.708984375
,87.1360181,1.6748046875
,87.1708493,1.6552734375
,87.1758792,1.6357421875
,87.2258552,1.611328125
,87.226219,1.5869140625
,87.2371317,1.5771484375
,87.2869742,1.5576171875
,87.2872285,1.5283203125
,87.2977243,1.513671875
,87.3152201,1.494140625
,87.348726,1.484375
,87.3688706,1.474609375
,87.3768269,1.4599609375
,87.4125213,1.4453125
,87.4168853,1.4404296875
,87.4538285,1.4404296875
,87.4581805,1.46484375
,87.4915297,1.5087890625
,87.5130277,1.5869140625
,87.5150291,1.650390625
,87.550171,1.728515625
,87.5691054,1.8115234375
,87.5765105,1.865234375
,87.613288,1.9287109375
,87.6337636,1.9677734375
,87.638715,2.001953125
,87.6742697,2.001953125
,87.6788484,1.9970703125
,87.696986,1.9775390625
,87.737224,1.97265625
,87.7374627,1.953125
,87.7730695,1.9384765625
,87.7779402,1.9091796875
,87.8160946,1.884765625
,87.8180478,1.85546875
,87.854805,1.8310546875
,87.8551852,1.796875
,87.8744087,1.787109375
,87.9085911,1.767578125
,87.9298437,1.7431640625
,87.9374629,1.7236328125
,87.9738693,1.7041015625
,87.9944153,1.6845703125
,87.9974048,1.6650390625
,88.050369,1.650390625
,88.0506143,1.6357421875
,88.055783,1.630859375
,88.0978305,1.6162109375
,88.0980705,1.6064453125
,88.1424129,1.591796875
,88.1426594,1.5771484375
,88.1590777,1.5576171875
,88.1808799,1.54296875
,88.2162302,1.5478515625
,88.2190056,1.5380859375
,88.2543527,1.5283203125
,88.2589305,1.54296875
,88.2993529,1.6455078125
,88.2997478,1.7236328125
,88.319023,1.81640625
,88.3541898,1.884765625
,88.3752178,1.962890625
,88.3800436,2.0166015625
,88.4247941,2.0703125
,88.4251869,2.0947265625
,88.4548573,2.1240234375
,88.4591385,2.119140625
,88.5010542,2.1044921875
,88.5014437,2.080078125
,88.5193399,2.0751953125
,88.5628565,2.05078125
,88.5633278,2.021484375
,88.5811761,1.9921875
,88.5964998,1.9580078125
,88.6419152,1.9384765625
,88.6421739,1.9140625
,88.6715581,1.8896484375
,88.6799397,1.85546875
,88.7180187,1.826171875
,88.7209258,1.796875
,88.7642939,1.767578125
,88.7645513,1.7333984375
,88.7775187,1.728515625
,88.8266822,1.708984375
,88.8269289,1.6943359375
,88.838847,1.6796875
,88.8746334,1.6552734375
,88.8800884,1.640625
,88.9000094,1.611328125
,88.9368043,1.591796875
,88.9371999,1.5673828125
,88.9688099,1.5673828125
,88.9896249,1.5478515625
,88.9991184,1.5478515625
,89.0346715,1.54296875
,89.053499,1.5771484375
,89.0589107,1.6162109375
,89.0930935,1.6796875
,89.1134392,1.7333984375
,89.1206085,1.796875
,89.1387226,1.8408203125
,89.1824984,1.9189453125
,89.1828023,1.982421875
,89.2010323,2.0166015625
,89.2357659,2.041015625
,89.240251,2.0458984375
,89.2759051,2.0361328125
,89.280832,2.01171875
,89.3178035,1.9873046875
,89.3183027,1.9580078125
,89.3549596,1.9384765625
,89.3579408,1.9140625
,89.4010564,1.884765625
,89.4013232,1.845703125
,89.4469328,1.81640625
,89.4471819,1.77734375
,89.462509,1.748046875
,89.4975548,1.7138671875
,89.4979448,1.6796875
,89.5318346,1.66015625
,89.5533535,1.6455078125
,89.5607014,1.630859375
,89.6054921,1.611328125
,89.6059654,1.5966796875
,89.6214588,1.572265625
,89.667736,1.552734375
,89.6679868,1.5283203125
,89.6775843,1.5234375
,89.7140558,1.50390625
,89.7189418,1.494140625
,89.7404433,1.474609375
,89.7767182,1.4599609375
,89.7799727,1.4453125
,89.8235297,1.455078125
,89.8239199,1.474609375
,89.8548701,1.513671875
,89.8593349,1.5771484375
,89.8994678,1.640625
,89.8997102,1.708984375
,89.9455627,1.7626953125
,89.9458102,1.8212890625
,89.9663756,1.865234375
,89.9811102,1.904296875
,90.0148658,1.9287109375
,90.0371228,1.93359375
,90.0374418,1.9287109375
,90.087321,1.9384765625
,90.0875937,1.923828125
,90.1180718,1.9140625
,90.1184743,1.8994140625
,90.1545755,1.8701171875
,90.1744141,1.8505859375
,90.1814268,1.81640625
,90.2187311,1.7919921875
,90.2191315,1.7626953125
,90.2554735,1.748046875
,90.2876435,1.728515625
,90.2879009,1.7138671875
,90.2998276,1.689453125
,90.3373988,1.6748046875
,90.3425574,1.650390625
,90.3786471,1.6357421875
,90.3788908,1.611328125
,90.4128252,1.611328125
,90.4340493,1.591796875
,90.4412893,1.5869140625
,90.4770881,1.572265625
,90.5053835,1.5625
,90.5056246,1.54296875
,90.5217776,1.5283203125
,90.5559168,1.513671875
,90.5760645,1.513671875
,90.5787382,1.533203125
,90.6146513,1.5673828125
,90.634425,1.62109375
,90.6410577,1.6796875
,90.6758023,1.748046875
,90.6960898,1.8115234375
,90.7015089,1.8798828125
,90.7200738,1.93359375
,90.7427781,2.0068359375
,90.7650093,2.0263671875
,90.7788295,2.021484375
,90.8135439,2.0703125
,90.8355372,2.0849609375
,90.8425796,2.0947265625
,90.8617852,2.0849609375
,90.9129295,2.0751953125
,90.9132003,2.05078125
,90.9241159,2.0361328125
,90.9398584,2.001953125
,90.9770221,1.9921875
,90.9827689,1.962890625
,91.0232021,1.9384765625
,91.023448,1.904296875
,91.069636,1.8798828125
,91.0698766,1.845703125
,91.0835873,1.8310546875
,91.1325363,1.8115234375
,91.1329175,1.77734375
,91.1636552,1.767578125
,91.1640512,1.748046875
,91.1836884,1.728515625
,91.2022769,1.708984375
,91.2231918,1.689453125
,91.2584036,1.669921875
,91.2635047,1.6552734375
,91.2796016,1.630859375
,91.3181063,1.62109375
,91.3205065,1.6162109375
,91.3571525,1.611328125
,91.361748,1.611328125
,91.3979025,1.62109375
,91.4020934,1.66015625
,91.4367982,1.7041015625
,91.4567407,1.7578125
,91.4600726,1.8115234375
,91.497786,1.8798828125
,91.5009548,1.9384765625
,91.5372762,1.9970703125
,91.54195,2.0458984375
,91.578054,2.08984375
,91.5828905,2.109375
,91.6289564,2.119140625
,91.6295112,2.1044921875
,91.6447584,2.05078125
,91.661702,2.041015625
,91.6808109,2.03125
,91.7227321,2.01171875
,91.7232735,1.9970703125
,91.7537112,1.9677734375
,91.764239,1.93359375
,91.7842122,1.8994140625
,91.8293009,1.865234375
,91.8295611,1.8359375
,91.8508013,1.796875
,91.8622829,1.7822265625
,91.8817575,1.7529296875
,91.9177253,1.728515625
,91.9383817,1.69921875
,91.9437376,1.6748046875
,91.9828886,1.6455078125
,91.9831581,1.6259765625
,92.0028226,1.5966796875
,92.0378734,1.58203125
,92.0431247,1.572265625
,92.0618396,1.552734375
,92.1101014,1.5380859375
,92.110411,1.5185546875
,92.1426035,1.513671875
,92.1430028,1.494140625
,92.1864974,1.4990234375
,92.1868958,1.50390625
,92.2178245,1.5576171875
,92.2221063,1.6064453125
,92.2628589,1.669921875
,92.2631053,1.7236328125
,92.3112246,1.787109375
,92.3114658,1.8408203125
,92.3252211,1.8994140625
,92.341701,1.93359375
,92.3752206,1.9873046875
,92.398442,2.0068359375
,92.4031451,2.001953125
,92.4521264,1.9921875
,92.4525252,1.97265625
,92.4635891,1.953125
,92.5129787,1.923828125
,92.5132722,1.8994140625
,92.5267745,1.875
,92.5629658,1.8408203125
,92.5632786,1.8115234375
,92.6067658,1.7919921875
,92.6070081,1.7724609375
,92.6242866,1.767578125
,92.668488,1.748046875
,92.6693666,1.728515625
,92.6859065,1.7138671875
,92.7277493,1.6845703125
,92.7281603,1.6650390625
,92.7430926,1.6455078125
,92.7773959,1.6455078125
,92.7819274,1.6259765625
,92.817046,1.6162109375
,92.8369369,1.5966796875
,92.8437571,1.5869140625
,92.8859379,1.5673828125
,92.886332,1.5625
,92.9013084,1.5478515625
,92.9367186,1.552734375
,92.9582992,1.552734375
,92.9630446,1.5673828125
,92.9846172,1.5966796875
,93.0238769,1.6552734375
,93.024126,1.7138671875
,93.060645,1.7724609375
,93.0664916,1.8359375
,93.081746,1.89453125
,93.1208648,1.9677734375
,93.1501791,2.0263671875
,93.1504729,2.0751953125
,93.1638961,2.099609375
,93.2014277,2.099609375
,93.206551,2.099609375
,93.2437403,2.080078125
,93.2464096,2.060546875
,93.2659882,2.0068359375
,93.2813076,1.953125
,93.3246786,1.9580078125
,93.3249196,1.962890625
,93.3446952,1.9384765625
,93.3798754,1.9189453125
,93.3846508,1.89453125
,93.4209843,1.875
,93.4502929,1.8505859375
,93.4505393,1.826171875
,93.4642079,1.796875
,93.5152506,1.787109375
,93.5155769,1.767578125
,93.5248868,1.7578125
,93.5623144,1.728515625
,93.5649994,1.71875
,93.6081036,1.6943359375
,93.6083783,1.6796875
,93.6379787,1.6552734375
,93.6429622,1.669921875
,93.679403,1.66015625
,93.6861812,1.650390625
,93.7047576,1.6357421875
,93.7465292,1.6259765625
,93.7467379,1.6259765625
,93.7760204,1.640625
,93.7862189,1.6845703125
,93.803935,1.7333984375
,93.8259619,1.8115234375
,93.8436124,1.8798828125
,93.8837089,1.9482421875
,93.8840522,2.01171875
,93.9202664,2.0849609375
,93.924809,2.12890625
,93.9473672,2.1630859375
,93.9812699,2.177734375
,93.9815177,2.16796875
,94.0237339,2.16796875
,94.0540633,2.1435546875
,94.0543074,2.12890625
,94.0664885,2.1044921875
,94.1004156,2.0751953125
,94.1047124,2.0361328125
,94.1413476,2.0068359375
,94.1463333,1.9677734375
,94.1947588,1.9384765625
,94.194999,1.904296875
,94.2041892,1.8896484375
,94.2418611,1.8603515625
,94.2445227,1.8359375
,94.2902225,1.8017578125
,94.2904642,1.77734375
,94.3201725,1.7529296875
,94.3273343,1.71875
,94.3634969,1.6943359375
,94.3638787,1.6650390625
,94.3994585,1.6552734375
,94.4047494,1.630859375
,94.4405037,1.6162109375
,94.4454814,1.6015625
,94.4815013,1.5869140625
,94.4884558,1.5625
,94.5073043,1.5478515625
,94.5251436,1.5234375
,94.5712946,1.5380859375
,94.5716911,1.5625
,94.5846901,1.611328125
,94.6215197,1.6748046875
,94.6247532,1.728515625
,94.6600475,1.7919921875
,94.6803854,1.8603515625
,94.687294,1.943359375
,94.7053498,1.9921875
,94.7419804,2.0556640625
,94.7444491,2.0849609375
,94.7884489,2.099609375
,94.7888451,2.08984375
,94.8080597,2.080078125
,94.8444415,2.0556640625
,94.847368,2.03125
,94.8638257,1.9970703125
,94.8836368,1.9775390625
,94.9201538,1.943359375
,94.942904,1.9287109375
,94.9453664,1.8994140625
,94.9802592,1.8603515625
,95.0014106,1.8310546875
,95.0075134,1.8017578125
,95.0520798,1.767578125
,95.0523273,1.7333984375
,95.0685268,1.708984375
,95.0855139,1.6796875
,95.1214101,1.66015625
,95.1248499,1.6455078125
,95.1615271,1.6259765625
,95.1660216,1.6064453125
,95.2107784,1.5966796875
,95.2110954,1.5771484375
,95.2395852,1.5625
,95.2476797,1.552734375
,95.266626,1.533203125
,95.2861716,1.533203125
,95.3220593,1.5283203125
,95.3264711,1.54296875
,95.3645078,1.552734375
,95.3677618,1.5966796875
,95.4116895,1.640625
,95.4120884,1.7138671875
,95.4257898,1.767578125
,95.472935,1.85546875
,95.4732764,1.9091796875
,95.4874248,1.982421875
,95.5071344,2.0263671875
,95.5414465,2.0703125
,95.5631078,2.0751953125
,95.5688292,2.08984375
,95.5886602,2.080078125
,95.605418,2.0556640625
,95.6405453,2.0458984375
,95.6460359,2.03125
,95.6905422,2.001953125
,95.6911597,1.982421875
,95.7064193,1.9580078125
,95.7405609,1.9287109375
,95.7613636,1.904296875
,95.7689275,1.875
,95.7887148,1.8115234375
,95.8055962,1.7529296875
,95.8404405,1.767578125
,95.8606281,1.7578125
,95.8659259,1.748046875
,95.9012145,1.7431640625
,95.922601,1.71875
,95.9292179,1.7041015625
,95.973627,1.6845703125
,95.9738674,1.6748046875
,95.9858274,1.6552734375
,96.0078722,1.6552734375
,96.0514656,1.640625
,96.0518645,1.6357421875
,96.0685389,1.6162109375
,96.1127698,1.62109375
,96.1130165,1.6064453125
,96.1336264,1.6162109375
,96.146997,1.640625
,96.1902404,1.69921875
,96.1906397,1.7578125
,96.2088149,1.8408203125
,96.2278578,1.9140625
,96.2615948,1.97265625
,96.282304,2.041015625
,96.2876702,2.0947265625
,96.3255949,2.1435546875
,96.3259904,2.16796875
,96.3743726,2.197265625
,96.3746579,2.1923828125
,96.395096,2.1826171875
,96.4081698,2.158203125
,96.4534178,2.1337890625
,96.4538087,2.1044921875
,96.4836851,2.0849609375
,96.4839332,2.05078125
,96.5200558,2.0263671875
,96.5403657,2.0068359375
,96.5462682,1.9677734375
,96.5666689,1.9384765625
,96.6020531,1.9091796875
,96.6235104,1.884765625
,96.6302537,1.85546875
,96.6704616,1.826171875
,96.670879,1.796875
,96.7071436,1.767578125
,96.7081156,1.7431640625
,96.7263649,1.748046875
,96.7625168,1.728515625
,96.7940876,1.7138671875
,96.7944117,1.6943359375
,96.8080833,1.6796875
,96.8435569,1.650390625
,96.8733303,1.640625
,96.8736087,1.6259765625
,96.8871783,1.6015625
,96.9336498,1.6064453125
,96.933906,1.6064453125
,96.9475468,1.6357421875
,96.9838516,1.6748046875
,97.0052736,1.73828125
,97.0107969,1.796875
,97.0595079,1.8603515625
,97.0598772,1.9189453125
,97.0692078,1.9873046875
,97.1053562,2.0361328125
,97.1079777,2.08984375
,97.1273472,2.1142578125
,97.1649713,2.119140625
,97.1701202,2.119140625
,97.2162137,2.0947265625
,97.2164547,2.0703125
,97.2277293,2.041015625
,97.2629895,2.03125
,97.2689974,1.9970703125
,97.2879171,1.97265625
,97.3236209,1.9384765625
,97.3293105,1.9091796875
,97.3745164,1.8701171875
,97.374912,1.845703125
,97.3871887,1.806640625
,97.4226038,1.787109375
,97.4275662,1.7578125
,97.4629128,1.7333984375
,97.4678707,1.7041015625
,97.50504,1.6943359375
,97.5094876,1.6748046875
,97.5575934,1.650390625
,97.5579022,1.6357421875
,97.5710233,1.611328125
,97.6180282,1.591796875
,97.6182711,1.5673828125
,97.6274129,1.5673828125
,97.662881,1.5576171875
,97.6851846,1.5478515625
,97.6896603,1.5380859375
,97.7264895,1.5283203125
,97.7306996,1.533203125
,97.7687088,1.5771484375
,97.7691754,1.62109375
,97.7875451,1.689453125
,97.8234474,1.7724609375
,97.8291367,1.8310546875
,97.8657743,1.89453125
,97.8678848,1.9482421875
,97.9026528,2.0068359375
,97.9233158,2.0361328125
,97.932519,2.0556640625
,97.9483021,2.0458984375
,97.9846875,2.05078125
,97.9877249,2.03125
,98.0269288,2.0263671875
,98.0568753,1.9970703125
,98.0571345,1.97265625
,98.0707568,1.943359375
,98.1218033,1.9091796875
,98.1221224,1.875
,98.1295196,1.865234375
,98.1491558,1.8408203125
,98.1988701,1.8212890625
,98.19913,1.796875
,98.2100928,1.7724609375
,98.2457574,1.7529296875
,98.2514635,1.728515625
,98.2922455,1.7138671875
,98.2924988,1.689453125
,98.3114526,1.6357421875
,98.3463338,1.591796875
,98.3492234,1.6064453125
,98.3851024,1.6064453125
,98.3912317,1.611328125
,98.4329568,1.6015625
,98.4332029,1.591796875
,98.45209,1.591796875
,98.4876759,1.572265625
,98.4922132,1.572265625
,98.5085899,1.5771484375
,98.543153,1.6357421875
,98.5641588,1.689453125
,98.5709479,1.7626953125
,98.5915738,1.826171875
,98.6365634,1.89453125
,98.6369621,1.953125
,98.6545663,2.021484375
,98.6679178,2.0654296875
,98.7059003,2.1240234375
,98.7259021,2.1435546875
,98.7316789,2.1533203125
,98.751362,2.12890625
,98.7852674,2.1337890625
,98.7903327,2.119140625
,98.8245089,2.0947265625
,98.8444855,2.0703125
,98.8477456,2.0361328125
,98.8937254,2.0166015625
,98.8941273,1.9921875
,98.9244096,1.9677734375
,98.9310478,1.9384765625
,98.9672333,1.9091796875
,98.9722527,1.875
,99.0162581,1.845703125
,99.016615,1.81640625
,99.0284111,1.8115234375
,99.0650842,1.787109375
,99.0952842,1.7724609375
,99.0956078,1.7578125
,99.1109776,1.7333984375
,99.1573735,1.708984375
,99.157616,1.6845703125
,99.1784927,1.6796875
,99.1937507,1.6552734375
,99.2371207,1.630859375
