Time,PPG_Signal
0.5633389,0.78125
0.5695559,0.8837890625
0.6044542,1.083984375
0.6048174,1.279296875
0.6384767,1.455078125
0.6685996,1.5771484375
0.6689083,1.669921875
0.7033527,1.7236328125
0.7076109,1.7626953125
0.7419473,1.767578125
0.7472295,1.7529296875
0.7807656,1.7236328125
0.7827445,1.689453125
0.8171543,1.6357421875
0.836908,1.591796875
0.8477188,1.552734375
0.8836206,1.533203125
0.8854427,1.5234375
0.9204434,1.494140625
0.9407264,1.4599609375
0.9426905,1.4208984375
0.9893775,1.3916015625
0.9895637,1.357421875
1.0094473,1.3134765625
1.0274817,1.26953125
1.0462993,1.2255859375
1.0818583,1.1865234375
1.1025962,1.1572265625
1.1029792,1.1181640625
1.1361551,1.0888671875
1.1576298,1.025390625
1.1661037,1.0205078125
1.2049344,1.005859375
1.2052313,0.99609375
1.2421819,0.9716796875
1.275458,0.9423828125
1.275795,0.9375
1.2884354,0.927734375
1.3340873,0.9033203125
1.3343755,0.87890625
1.3541796,0.8642578125
1.3676601,0.859375
1.4035847,0.9033203125
1.4082702,1.0205078125
1.4440752,1.2060546875
1.4502187,1.3720703125
1.4708813,1.5234375
1.4867952,1.630859375
1.5070947,1.708984375
1.5479542,1.7626953125
1.5481869,1.77734375
1.5810342,1.796875
1.5854302,1.7919921875
1.6266196,1.767578125
1.6571794,1.71875
1.6573874,1.6650390625
1.6664107,1.6259765625
1.6858192,1.6064453125
1.7366685,1.58203125
1.7370518,1.5625
1.7684832,1.533203125
1.768825,1.513671875
1.8137076,1.4794921875
1.813893,1.435546875
1.8244051,1.38671875
1.8602097,1.3525390625
1.8647211,1.318359375
1.9077871,1.2841796875
1.9079677,1.2353515625
1.9269303,1.19140625
1.9602213,1.15234375
1.9804418,1.123046875
1.9884654,1.09375
2.0085042,1.0595703125
2.0525853,1.005859375
2.0530995,0.986328125
2.0731662,0.9912109375
2.0870464,0.986328125
2.1212448,0.9814453125
2.1437366,0.966796875
2.1499977,0.9521484375
2.1902009,0.9423828125
2.1904449,0.91796875
2.2121311,0.8984375
2.2280479,0.9228515625
2.2468173,1.0595703125
2.2838967,1.240234375
2.3142959,1.4208984375
2.3145574,1.552734375
2.3289525,1.6552734375
2.3694311,1.7236328125
2.3696093,1.787109375
2.3910821,1.81640625
2.4059943,1.8359375
2.4497769,1.8359375
2.4501675,1.8115234375
2.4790038,1.7724609375
2.4885568,1.7333984375
2.5103632,1.6796875
2.5564355,1.640625
2.5567241,1.611328125
2.5680649,1.5869140625
2.6033315,1.5673828125
2.6052316,1.533203125
2.6377579,1.494140625
2.6585567,1.4501953125
2.6684875,1.4111328125
2.704139,1.357421875
2.724538,1.30859375
2.724716,1.25
2.760771,1.2109375
2.7668439,1.1767578125
2.8020433,1.142578125
2.8248673,1.1083984375
2.8269385,1.0693359375
2.8631755,1.0400390625
2.8847301,1.015625
2.8896625,0.9912109375
2.9249049,0.966796875
2.9449548,0.9423828125
2.9451386,0.9228515625
2.9881882,0.91796875
2.9883635,0.908203125
3.0089892,0.888671875
3.0455532,0.8642578125
3.0474044,0.849609375
3.0803772,0.849609375
3.1016162,0.927734375
3.1063291,1.07421875
3.1415203,1.279296875
3.1636035,1.4599609375
3.1679896,1.591796875
3.2092348,1.6845703125
3.2095226,1.7431640625
3.2294458,1.7822265625
3.2630902,1.796875
3.2842584,1.806640625
3.2844334,1.787109375
3.3365258,1.7529296875
3.3368333,1.708984375
3.3667398,1.6650390625
3.366926,1.6357421875
3.4059578,1.6162109375
3.4080367,1.591796875
3.4438338,1.5625
3.4657583,1.54296875
3.4660944,1.5087890625
3.5014881,1.474609375
3.5228377,1.4306640625
3.5292732,1.3818359375
3.5636856,1.3330078125
3.5682021,1.2939453125
3.6103406,1.2451171875
3.6106598,1.201171875
3.6297748,1.1474609375
3.6658082,1.1181640625
3.6662079,1.0546875
3.7029119,1.03515625
3.7224769,1.0107421875
3.7294235,0.9912109375
3.7728084,0.966796875
3.7731863,0.966796875
3.8030213,0.947265625
3.8111426,0.9326171875
3.8490532,0.9130859375
3.8493913,0.8935546875
3.8857523,0.888671875
3.8904426,0.8642578125
3.9275398,0.8740234375
3.929414,0.9375
3.9669875,1.103515625
3.9898585,1.279296875
3.9900381,1.4404296875
4.0261404,1.5478515625
4.0263179,1.640625
4.0685728,1.7041015625
4.0983165,1.748046875
4.0987325,1.7626953125
4.1107293,1.7578125
4.146509,1.7333984375
4.1507525,1.69921875
4.1867813,1.6650390625
4.1871356,1.611328125
4.2222868,1.58203125
4.2527422,1.5478515625
4.2530408,1.5380859375
4.2695052,1.513671875
4.3061805,1.484375
4.3101841,1.4404296875
4.3434054,1.4013671875
4.3638919,1.3525390625
4.3679984,1.3232421875
4.4036327,1.2744140625
4.4332735,1.240234375
4.4336148,1.1962890625
4.4676209,1.1669921875
4.4693663,1.1328125
4.5050685,1.0986328125
4.5250918,1.0595703125
4.5317102,1.025390625
4.5666327,0.9814453125
4.5858772,0.966796875
4.5881065,0.9521484375
4.6331387,0.9326171875
4.6334411,0.91796875
4.6536753,0.9033203125
4.6712498,0.8935546875
4.7072167,0.87890625
4.7113466,0.8544921875
4.745952,0.8349609375
4.7671204,0.8349609375
4.7674825,0.9228515625
4.804773,1.0693359375
4.8366833,1.25
4.837072,1.3916015625
4.8518236,1.5283203125
4.8892261,1.611328125
4.8936484,1.6748046875
4.910967,1.708984375
4.9298598,1.7431640625
4.97724,1.7578125
4.9776011,1.7626953125
4.9908516,1.728515625
5.0253122,1.6845703125
5.0479884,1.6357421875
5.0530836,1.611328125
5.0729329,1.5771484375
5.0904002,1.5478515625
5.109673,1.5185546875
5.131964,1.494140625
5.1501031,1.4697265625
5.1873081,1.4306640625
5.2159804,1.3818359375
5.2162515,1.3330078125
5.2320504,1.2841796875
5.2502621,1.2451171875
5.2691415,1.2060546875
5.2900215,1.162109375
5.3105104,1.1279296875
5.3462592,1.0888671875
5.3510251,1.064453125
5.38609,1.0400390625
5.4068591,1.0009765625
5.4113416,0.9619140625
5.4477121,0.9375
5.4801394,0.9228515625
5.4804417,0.8935546875
5.4912495,0.8740234375
5.5423686,0.849609375
5.5426549,0.83984375
5.5520265,0.830078125
5.5869777,0.810546875
5.5912528,0.7861328125
5.6271047,0.78125
5.6482488,0.849609375
5.6485456,1.0302734375
5.6852252,1.2109375
5.7063967,1.376953125
5.7104275,1.5087890625
5.7444386,1.6015625
5.7644868,1.6748046875
5.7735332,1.708984375
5.8118469,1.7236328125
5.8121424,1.7236328125
5.8305455,1.71875
5.8677883,1.6943359375
5.8878129,1.650390625
5.8909686,1.6015625
5.9263576,1.5576171875
5.9477794,1.5283203125
5.9575165,1.5185546875
5.9693917,1.4892578125
5.9927403,1.46484375
6.0120721,1.4306640625
6.0551442,1.396484375
6.0554522,1.357421875
6.0724513,1.30859375
6.116032,1.2646484375
6.1164073,1.2109375
6.137517,1.1767578125
6.1556511,1.1376953125
6.1739149,1.07421875
6.1920646,1.015625
6.212682,1.005859375
6.2313095,0.986328125
6.2670179,0.9814453125
6.2723309,0.9619140625
6.3076978,0.9375
6.3353247,0.908203125
6.335614,0.8984375
6.3704652,0.8935546875
6.3708597,0.869140625
6.4031291,0.8544921875
6.4252251,0.830078125
6.434663,0.8154296875
6.4531268,0.80078125
6.5015454,0.8349609375
6.5018398,0.947265625
6.5141775,1.1328125
6.5323473,1.30859375
6.5797707,1.4697265625
6.5799456,1.572265625
6.5941856,1.650390625
6.6409216,1.689453125
6.6412988,1.7236328125
6.6531628,1.7431640625
6.6889953,1.728515625
6.7187507,1.69921875
6.7190458,1.650390625
6.7313631,1.62109375
6.7536333,1.5869140625
6.7722934,1.5576171875
6.8079238,1.5283203125
6.8421403,1.5087890625
6.8423158,1.484375
6.8536943,1.46484375
6.8868918,1.4208984375
6.8915082,1.3818359375
6.9124249,1.3330078125
6.9515822,1.298828125
6.9518865,1.2548828125
6.9978304,1.220703125
6.9980004,1.1767578125
7.0137375,1.1376953125
7.0483638,1.11328125
7.0686349,1.0791015625
7.0746417,1.044921875
7.0911073,1.015625
7.1260646,0.99609375
7.1473976,0.986328125
7.1545481,0.9716796875
7.1744965,0.947265625
7.2091188,0.927734375
7.2131677,0.9033203125
7.2459047,0.8984375
7.2782945,0.87890625
7.2786869,0.8544921875
7.2927257,0.83984375
7.3406225,0.869140625
7.3409237,0.99609375
7.3701275,1.1669921875
7.3727578,1.337890625
7.4079025,1.46484375
7.4318702,1.572265625
7.4320584,1.6455078125
7.4671183,1.708984375
7.487802,1.7333984375
7.4940896,1.7578125
7.5300708,1.7578125
7.5342324,1.7529296875
7.5723281,1.71875
7.5742807,1.6748046875
7.6080136,1.630859375
7.6119506,1.6064453125
7.6464882,1.591796875
7.6660083,1.5673828125
7.6729021,1.5380859375
7.7090245,1.4990234375
7.7427482,1.46484375
7.7429743,1.42578125
7.7544752,1.3818359375
7.772035,1.328125
7.8208839,1.2841796875
7.8211726,1.2451171875
7.8490735,1.2158203125
7.8529857,1.171875
7.886565,1.1376953125
7.907803,1.0986328125
7.91477,1.0791015625
7.9487842,1.064453125
7.969611,1.03515625
7.9759845,0.99609375
8.0091746,0.95703125
8.013803,0.947265625
8.0651742,0.9326171875
8.0654633,0.91796875
8.0749774,0.8935546875
8.0953316,0.8740234375
8.1325947,0.8544921875
8.138569,0.8447265625
8.1526605,0.8251953125
8.1880619,0.83984375
8.2215237,0.9228515625
8.2218135,1.103515625
8.2340405,1.2744140625
8.2696521,1.4306640625
8.2756237,1.5478515625
8.311361,1.6162109375
8.3317958,1.6748046875
8.3320668,1.7041015625
8.3665129,1.71875
8.3854464,1.71875
8.3935451,1.69921875
8.4273099,1.669921875
8.4474909,1.630859375
8.4557233,1.5771484375
8.4941081,1.5380859375
8.4944315,1.50390625
8.5292366,1.4990234375
8.5335665,1.4892578125
8.5685783,1.4599609375
8.5887442,1.4306640625
8.5955505,1.38671875
8.6288067,1.34765625
8.6507599,1.30859375
8.656494,1.259765625
8.6762198,1.2109375
8.6968972,1.142578125
8.714285,1.0888671875
8.7597927,1.083984375
8.7601393,1.0546875
8.7747428,1.0400390625
8.8092049,1.015625
8.8298476,1.0009765625
8.8368589,0.9814453125
8.8721855,0.95703125
8.8725615,0.927734375
8.906293,0.91796875
8.9268747,0.91796875
8.9358,0.9033203125
8.9558201,0.8837890625
8.9923429,0.859375
8.9946764,0.8349609375
9.0300867,0.8203125
9.0589285,0.8203125
9.0593104,0.8740234375
9.0772671,1.0400390625
9.0952252,1.220703125
9.1366167,1.396484375
9.1370021,1.513671875
9.1583817,1.6015625
9.2047299,1.6552734375
9.2049481,1.6796875
9.2171126,1.708984375
9.2323446,1.7041015625
9.2817458,1.689453125
9.2819524,1.66015625
9.3136055,1.62109375
9.3161395,1.5771484375
9.3380547,1.552734375
9.3579113,1.5185546875
9.3928715,1.4990234375
9.3931523,1.474609375
9.4148863,1.474609375
9.4498172,1.4453125
9.4537537,1.4111328125
9.4871983,1.3671875
9.507033,1.3232421875
9.5159989,1.2841796875
9.5523104,1.25
9.5770113,1.2060546875
9.5773209,1.1669921875
9.6144399,1.1328125
9.6146969,1.1083984375
9.6354736,1.083984375
9.6572845,1.0546875
9.6773411,1.0302734375
9.7120232,1.0107421875
9.7161065,1.0009765625
9.75051,0.9765625
9.7770454,0.95703125
9.7772458,0.9375
9.8123275,0.9326171875
9.8174778,0.9228515625
9.8548702,0.908203125
9.8551103,0.87890625
9.899739,0.8642578125
9.9000476,0.9228515625
9.9197742,1.0546875
9.953001,1.23046875
9.9533016,1.3720703125
9.9746909,1.494140625
10.007938,1.5771484375
10.0286021,1.6455078125
10.0352643,1.6748046875
10.0706638,1.6943359375
10.0928356,1.69921875
10.0980646,1.69921875
10.1169955,1.6748046875
10.1610693,1.6455078125
10.1616514,1.6015625
10.1781947,1.5625
10.1967051,1.54296875
10.2367712,1.5234375
10.2369551,1.4990234375
10.2719737,1.4697265625
10.3065265,1.4404296875
10.3068205,1.40625
10.3166821,1.376953125
10.3514621,1.3330078125
10.3579606,1.2890625
10.3989297,1.240234375
10.3991716,1.2060546875
10.4336508,1.171875
10.4380045,1.1328125
10.4731681,1.09375
10.497504,1.0595703125
10.5017598,1.0400390625
10.5162213,1.015625
10.5513783,0.986328125
10.5553677,0.9765625
10.5921247,0.9619140625
10.611881,0.9521484375
10.6182258,0.9423828125
10.6515725,0.9228515625
10.6727946,0.8984375
10.6768989,0.8740234375
10.6969893,0.869140625
10.7315998,0.8544921875
10.736609,0.8642578125
10.7711935,0.95703125
10.7924289,1.1279296875
10.7983173,1.3037109375
10.8336375,1.4599609375
10.862181,1.5673828125
10.8624746,1.630859375
10.8772197,1.689453125
10.9228618,1.7236328125
10.9231167,1.73828125
10.9373795,1.73828125
10.9831702,1.71875
10.983376,1.6796875
11.0039369,1.640625
11.0154784,1.5966796875
11.062388,1.5576171875
11.0627251,1.533203125
11.0772108,1.513671875
11.1220077,1.4990234375
11.1221868,1.474609375
11.1445636,1.4404296875
11.1599509,1.3916015625
11.1793051,1.34765625
11.2007822,1.298828125
11.236552,1.2353515625
11.2368638,1.19140625
11.2699541,1.1572265625
11.2914299,1.123046875
11.2984018,1.103515625
11.3445752,1.0693359375
11.3447492,1.0400390625
11.3655789,1.0009765625
11.3829463,0.9814453125
11.3966531,0.9619140625
11.4167911,0.9521484375
11.4515915,0.9326171875
11.4736985,0.91796875
11.4781315,0.9130859375
11.5133133,0.8984375
11.5350637,0.87890625
11.5391389,0.859375
11.5774067,0.8349609375
11.5778154,0.8154296875
11.6132873,0.859375
11.6172753,0.9716796875
11.6517734,1.1572265625
11.6703355,1.328125
11.679079,1.474609375
11.7141952,1.572265625
11.7491327,1.640625
11.7494233,1.669921875
11.7573681,1.689453125
11.7915914,1.7138671875
11.8124492,1.708984375
11.817081,1.6845703125
11.839036,1.640625
11.8757597,1.5966796875
11.8801097,1.5576171875
11.9018739,1.5380859375
11.9176566,1.513671875
11.9642041,1.4990234375
11.9645826,1.474609375
11.9764483,1.4599609375
12.0117049,1.4208984375
12.0324194,1.3818359375
12.0388722,1.337890625
12.0800873,1.2939453125
12.0962938,1.25
12.1009991,1.2255859375
12.1352856,1.1865234375
12.1560723,1.1474609375
12.1580663,1.1181640625
12.1924273,1.0986328125
12.2142948,1.083984375
12.2211403,1.0595703125
12.2682537,1.0400390625
12.2685957,1.0205078125
12.281861,1.015625
12.2978191,1.005859375
12.3434789,0.9912109375
12.3437729,0.9716796875
12.3653038,0.9619140625
12.379887,0.9521484375
12.4278608,0.9375
12.4281404,0.9228515625
12.441852,0.947265625
12.4623035,1.07421875
12.4777991,1.23046875
12.5153018,1.38671875
12.5180207,1.4990234375
12.5526062,1.58203125
12.5750633,1.630859375
12.5804857,1.6748046875
12.6167883,1.6943359375
12.6209161,1.69921875
12.6593966,1.689453125
12.6642031,1.669921875
12.6798695,1.640625
12.7146848,1.6064453125
12.7190233,1.5673828125
12.7541217,1.54296875
12.7751173,1.5234375
12.78148,1.50390625
12.8027653,1.484375
12.8187763,1.4501953125
12.8546628,1.416015625
12.8591228,1.3525390625
12.8928279,1.3330078125
12.9133073,1.2939453125
12.9193712,1.2548828125
12.9529622,1.220703125
12.9735778,1.1865234375
12.9822836,1.15234375
13.0167923,1.1279296875
13.0362098,1.09375
13.0380918,1.0693359375
13.0746231,1.0595703125
13.0957306,1.0400390625
13.1001077,1.025390625
13.1210192,1.005859375
13.1422998,0.9912109375
13.1642768,0.9765625
13.1831213,0.9765625
13.1979386,0.9521484375
13.2192893,0.9375
13.2550975,0.9130859375
13.2758856,0.9130859375
13.2805345,0.9619140625
13.3164732,1.09375
13.3302966,1.2451171875
13.34246,1.3916015625
13.365324,1.4990234375
13.3796588,1.6064453125
13.429312,1.66015625
13.4296203,1.689453125
13.4415212,1.708984375
13.4604501,1.71875
13.4964062,1.7138671875
13.514425,1.6845703125
13.5239311,1.640625
13.5391818,1.591796875
13.582564,1.5673828125
13.582859,1.54296875
13.6012445,1.513671875
13.6444229,1.4892578125
13.6448212,1.4697265625
13.6604133,1.4453125
13.6945026,1.416015625
13.7155048,1.376953125
13.7215252,1.3232421875
13.7555148,1.25
13.775806,1.2109375
13.7818055,1.181640625
13.8022693,1.142578125
13.838303,1.1083984375
13.8425969,1.064453125
13.8934119,1.044921875
13.8935924,1.015625
13.9042586,0.9912109375
13.9199554,0.966796875
13.9669183,0.9521484375
13.9670944,0.947265625
13.980589,0.947265625
14.0282491,0.9326171875
14.0285455,0.9228515625
14.0423323,0.9033203125
14.082162,0.8837890625
14.1135918,0.8642578125
14.1140776,0.83984375
14.1210367,0.8544921875
14.1409301,0.95703125
14.1613876,1.15234375
14.1971589,1.3232421875
14.2013852,1.4697265625
14.2478662,1.5673828125
14.2523829,1.6357421875
14.2597433,1.6796875
14.2946195,1.7138671875
14.3156024,1.71875
14.3200747,1.7138671875
14.3542333,1.69921875
14.3766934,1.6650390625
14.3837237,1.62109375
14.4317387,1.572265625
14.432109,1.54296875
14.4406575,1.5185546875
14.4614934,1.5185546875
14.5017496,1.494140625
14.5019212,1.46484375
14.5369873,1.42578125
14.5638975,1.3916015625
14.5641212,1.3525390625
14.5985773,1.30859375
14.6030919,1.259765625
14.6366611,1.2109375
14.6569832,1.171875
14.6595001,1.1572265625
14.694497,1.1328125
14.7292423,1.0986328125
14.7296198,1.0693359375
14.7448633,1.0498046875
14.7647287,1.03515625
14.7853585,1.0107421875
14.8063921,0.9912109375
14.8329573,0.966796875
14.842032,0.9619140625
14.8849225,0.95703125
14.8854551,0.9423828125
14.9045235,0.91796875
14.940869,0.8984375
14.9412716,0.8935546875
14.9916499,0.9619140625
14.9918266,1.11328125
15.0126097,1.26953125
15.0217282,1.4208984375
15.058522,1.533203125
15.0636428,1.630859375
15.0995547,1.6748046875
15.1017669,1.7041015625
15.1381262,1.708984375
15.1677452,1.71875
15.1679296,1.7041015625
15.1793664,1.6796875
15.2140788,1.6357421875
15.2373766,1.591796875
15.2419679,1.5673828125
15.2624929,1.5478515625
15.3111612,1.5234375
15.3114637,1.50390625
15.3247092,1.474609375
15.3468904,1.4404296875
15.3652587,1.3818359375
15.3809877,1.318359375
15.4203312,1.2841796875
15.4206304,1.25
15.4568124,1.23046875
15.4795523,1.1962890625
15.4839,1.1572265625
15.5254,1.123046875
15.5256992,1.0888671875
15.5421691,1.064453125
15.5870049,1.0498046875
15.5873107,1.025390625
15.6019035,1.0009765625
15.6345096,0.986328125
15.6548562,0.966796875
15.6628826,0.9521484375
15.6989198,0.9326171875
15.7201114,0.91796875
15.7203497,0.8935546875
15.7613633,0.8837890625
15.7861688,0.8740234375
15.7864222,0.908203125
15.8038828,1.025390625
15.8487713,1.2060546875
15.8490694,1.3623046875
15.8644527,1.50390625
15.8985819,1.591796875
15.9035562,1.66015625
15.9390448,1.69921875
15.9441243,1.73828125
15.9857141,1.7578125
15.9860151,1.7431640625
16.0041947,1.71875
16.0410647,1.6748046875
16.0461177,1.640625
16.0600971,1.6015625
16.0952311,1.572265625
16.115475,1.5478515625
16.1225473,1.5283203125
16.1713319,1.5087890625
16.1715068,1.484375
16.1840877,1.4404296875
16.22302,1.4013671875
16.2237101,1.3525390625
16.2615996,1.2890625
16.281063,1.2548828125
16.2812611,1.2109375
16.3176944,1.1767578125
16.3383837,1.142578125
16.3452822,1.1181640625
16.3804938,1.0791015625
16.3855218,1.0400390625
16.4203778,0.99609375
16.4399818,0.9716796875
16.4420182,0.947265625
16.476714,0.9326171875
16.5044476,0.908203125
16.5088813,0.888671875
16.5255471,0.869140625
16.5680697,0.8544921875
16.5682438,0.830078125
16.5860069,0.8056640625
16.6056121,0.7958984375
16.623166,0.8544921875
16.6434044,1.0302734375
16.6796098,1.2109375
16.684321,1.376953125
16.7206682,1.4990234375
16.7248284,1.6015625
16.7595116,1.669921875
16.7789894,1.7041015625
16.7814249,1.7138671875
16.8173343,1.7138671875
16.8372333,1.7041015625
16.8436776,1.6845703125
16.8642351,1.630859375
16.8848477,1.5771484375
16.9213344,1.54296875
16.9238763,1.5185546875
16.9590894,1.50390625
16.9817959,1.474609375
16.9819675,1.455078125
17.016686,1.416015625
17.0376331,1.38671875
17.0442269,1.3525390625
17.0964921,1.3037109375
17.0966656,1.2548828125
17.1057551,1.2109375
17.1415768,1.171875
17.1609364,1.1376953125
17.1652624,1.0986328125
17.1857354,1.0693359375
17.2215193,1.03515625
17.2265391,1.025390625
17.2455484,1.005859375
17.2806587,0.9814453125
17.2856224,0.966796875
17.320272,0.947265625
17.3417202,0.9423828125
17.3421156,0.927734375
17.3781798,0.9130859375
17.3982947,0.8935546875
17.4056095,0.869140625
17.4392169,0.8740234375
17.4585847,0.9423828125
17.4660111,1.0791015625
17.5002602,1.2548828125
17.5216692,1.4013671875
17.5241621,1.5380859375
17.5609244,1.6357421875
17.5838746,1.6845703125
17.584275,1.7138671875
17.6190341,1.7236328125
17.6411279,1.73828125
17.6482695,1.7236328125
17.6914292,1.6845703125
17.6917542,1.6357421875
17.7042864,1.5966796875
17.7423927,1.572265625
17.7426865,1.5625
17.7774942,1.5380859375
17.7992184,1.5185546875
17.8060155,1.4892578125
17.8458209,1.4697265625
17.8461108,1.4306640625
17.8804174,1.3916015625
17.8877954,1.3134765625
17.904871,1.2451171875
17.9251287,1.2255859375
17.9695544,1.19140625
17.9697282,1.1572265625
17.989246,1.1181640625
18.0069147,1.0986328125
18.0424715,1.07421875
18.063683,1.0595703125
18.0639746,1.0400390625
18.0852693,1.025390625
18.1052379,1.005859375
18.1419124,1.0009765625
18.1465288,0.9814453125
18.1666102,0.95703125
18.2098257,0.9326171875
18.2100086,0.8984375
18.2304532,0.87890625
18.2437816,0.8642578125
18.2956056,0.927734375
18.2959854,1.0595703125
18.3245607,1.240234375
18.3248681,1.396484375
18.3724304,1.5185546875
18.3726213,1.591796875
18.4033441,1.650390625
18.4035273,1.6748046875
18.4362207,1.7138671875
18.4572369,1.71875
18.4654181,1.7138671875
18.4983657,1.6845703125
18.5182668,1.650390625
18.5263127,1.6162109375
18.5603121,1.5771484375
18.5801746,1.54296875
18.5830292,1.5087890625
18.6214968,1.494140625
18.625712,1.474609375
18.6673229,1.4453125
18.6675081,1.4013671875
18.6884489,1.357421875
18.7233412,1.318359375
18.7450968,1.2744140625
18.7471295,1.23046875
18.7803673,1.19140625
18.8003608,1.15234375
18.8047464,1.1279296875
18.8394744,1.11328125
18.8601832,1.07421875
18.8663535,1.0400390625
18.912945,1.005859375
18.9131228,0.9912109375
18.9323996,0.9716796875
18.9503317,0.947265625
18.9671866,0.91796875
18.9868427,0.8984375
19.0234156,0.87890625
19.0276521,0.8642578125
19.0488254,0.8349609375
19.0869783,0.8056640625
19.0872757,0.791015625
19.1205072,0.859375
19.141429,1.0107421875
19.1556296,1.2109375
19.167805,1.3818359375
19.2036698,1.50390625
19.2078622,1.6015625
19.2523185,1.66015625
19.2528905,1.689453125
19.2848228,1.7041015625
19.2886039,1.7041015625
19.3228173,1.6943359375
19.3268679,1.6796875
19.3631866,1.6357421875
19.3690429,1.591796875
19.3874309,1.552734375
19.4350696,1.5380859375
19.43538,1.5185546875
19.4670945,1.4892578125
19.4674819,1.4599609375
19.4900003,1.4208984375
19.5068821,1.396484375
19.5428486,1.357421875
19.5472561,1.318359375
19.5820976,1.2646484375
19.6025425,1.220703125
19.6095715,1.1767578125
19.6590597,1.1376953125
19.6592303,1.0888671875
19.6713496,1.0400390625
19.6872001,0.99609375
19.7063648,0.9814453125
19.7571289,0.95703125
19.7575301,0.9375
19.7686473,0.9130859375
19.8050262,0.9130859375
19.8341437,0.91796875
19.8343189,0.908203125
19.8507246,0.8984375
19.8671374,0.8837890625
19.9017091,0.87890625
19.9078352,0.869140625
19.9577367,0.8984375
19.9580316,0.99609375
19.9685935,1.1669921875
20.0027962,1.328125
20.0347123,1.484375
20.0350152,1.5869140625
20.0450681,1.6650390625
20.0780387,1.69921875
20.099488,1.7236328125
20.1118754,1.7431640625
20.1314377,1.73828125
20.1485251,1.708984375
20.1833822,1.6650390625
20.2041549,1.62109375
20.2061152,1.58203125
20.2410927,1.5625
20.2722521,1.5380859375
20.2729443,1.5234375
20.2885766,1.50390625
20.330507,1.4892578125
20.3308983,1.455078125
20.3675081,1.416015625
20.3678208,1.3671875
20.4079726,1.298828125
20.4082599,1.240234375
20.4447149,1.2158203125
20.4488817,1.1865234375
20.4875564,1.15234375
20.4878509,1.123046875
20.5318973,1.0986328125
20.5320998,1.07421875
20.55192,1.044921875
20.5860229,1.025390625
20.5863158,1.0107421875
20.6213054,1.0107421875
20.6578272,0.99609375
20.6582033,0.9814453125
20.6691137,0.9619140625
20.7187336,0.95703125
20.71893,0.9375
20.7311535,0.9228515625
20.7649642,0.947265625
20.7853289,1.044921875
20.7874771,1.2158203125
20.8227348,1.3720703125
20.8460929,1.50390625
20.8511826,1.591796875
20.8707861,1.6552734375
20.8921785,1.69921875
20.9105369,1.7333984375
20.9265282,1.7333984375
20.9603763,1.7333984375
20.9815012,1.7041015625
20.9884502,1.6748046875
21.0238618,1.630859375
21.048233,1.5869140625
21.0503628,1.5478515625
21.0766214,1.5234375
21.091311,1.5087890625
21.1069806,1.4892578125
21.1421192,1.4599609375
21.1630682,1.42578125
21.1679626,1.3818359375
21.2044815,1.34765625
21.2085341,1.30859375
21.2417799,1.259765625
21.2638246,1.2109375
21.2719354,1.1669921875
21.3101764,1.1328125
21.3105677,1.0986328125
21.3282674,1.0791015625
21.3614898,1.0498046875
21.3830311,1.0302734375
21.3887929,1.0205078125
21.4244254,1.0009765625
21.4443974,0.9765625
21.4509615,0.9521484375
21.485022,0.9326171875
21.5048362,0.9130859375
21.5096095,0.9033203125
21.5288422,0.8740234375
21.5689827,0.849609375
21.5738868,0.8349609375
21.5906464,0.9130859375
21.6318604,1.0546875
21.632149,1.23046875
21.653139,1.3671875
21.6690644,1.484375
21.6895353,1.5625
21.7098652,1.62109375
21.7464754,1.650390625
21.7489837,1.6552734375
21.7855639,1.6552734375
21.816613,1.6455078125
21.816909,1.611328125
21.8283393,1.5673828125
21.8658458,1.5283203125
21.8715367,1.4990234375
21.8901865,1.4892578125
21.9394092,1.4697265625
21.9395938,1.4501953125
21.9679237,1.416015625
21.9705769,1.38671875
21.9881918,1.3525390625
22.0273827,1.318359375
22.0344524,1.279296875
22.0511048,1.201171875
22.0699013,1.171875
22.1036418,1.15234375
22.1261345,1.123046875
22.1320421,1.09375
22.15911,1.0595703125
22.1835033,1.03515625
22.1952162,1.0205078125
22.2082603,1.0009765625
22.2441127,0.9814453125
22.2653788,0.9619140625
22.276695,0.9521484375
22.2921389,0.9423828125
22.3266806,0.927734375
22.3320082,0.908203125
22.3682912,0.888671875
22.3980873,0.8740234375
22.3982714,0.8740234375
22.4108977,0.9326171875
22.4608086,1.07421875
22.4611,1.2548828125
22.4711329,1.4013671875
22.5070233,1.533203125
22.5121701,1.6015625
22.5454218,1.650390625
22.5683638,1.669921875
22.5686587,1.6943359375
22.6050341,1.7041015625
22.6372092,1.6943359375
22.6374795,1.66015625
22.6517146,1.6162109375
22.6896282,1.58203125
22.6937825,1.5576171875
22.7139535,1.533203125
22.7293733,1.5087890625
22.7502853,1.494140625
22.7857368,1.474609375
22.7904688,1.455078125
22.8340142,1.416015625
22.8343944,1.376953125
22.8804208,1.337890625
22.8808445,1.30859375
22.8932053,1.2744140625
22.9141865,1.2109375
22.9295918,1.1572265625
22.9667116,1.142578125
22.9724142,1.1279296875
22.9912706,1.123046875
23.0286447,1.0986328125
23.0330375,1.07421875
23.0791029,1.0546875
23.0793817,1.0400390625
23.0940158,1.03515625
23.1103991,1.015625
23.1546674,0.99609375
23.1548568,0.9765625
23.1715493,0.966796875
23.2065907,0.966796875
23.2264289,1.0205078125
23.2332427,1.1376953125
23.2682121,1.2890625
23.294569,1.416015625
23.2947908,1.5380859375
23.3123969,1.62109375
23.3492368,1.6650390625
23.354273,1.69921875
23.3707824,1.7236328125
23.4053138,1.7431640625
23.4264252,1.728515625
23.4333327,1.7041015625
23.4666222,1.66015625
23.4696301,1.640625
23.5039083,1.6064453125
23.5254176,1.58203125
23.5340522,1.5576171875
23.5526403,1.533203125
23.5747744,1.5087890625
23.6099807,1.484375
23.610161,1.4404296875
23.6438027,1.40625
23.6640523,1.3671875
23.6718575,1.3330078125
23.7096296,1.298828125
23.7099403,1.2548828125
23.7460296,1.2158203125
23.7667556,1.181640625
23.7747375,1.1572265625
23.8168831,1.1328125
23.8171424,1.0986328125
23.831722,1.0693359375
23.8821244,1.0546875
23.8824137,1.0400390625
23.8929716,1.03515625
23.9345088,1.0205078125
23.9348803,0.99609375
23.9661204,0.9765625
23.9747022,0.9521484375
24.0120541,0.9326171875
24.0124448,0.927734375
24.0475947,1.0009765625
24.0524602,1.142578125
24.1012268,1.30859375
24.1016075,1.4306640625
24.1318149,1.5380859375
24.1321311,1.6015625
24.1552949,1.6552734375
24.1728617,1.689453125
24.1918177,1.71875
24.2120749,1.7236328125
24.254002,1.71875
24.2541993,1.689453125
24.2893911,1.6650390625
24.3163628,1.6259765625
24.3167522,1.5869140625
24.3627889,1.552734375
24.3634157,1.533203125
24.3719161,1.5234375
24.4110265,1.494140625
24.4112195,1.4599609375
24.4552224,1.416015625
24.4555212,1.3818359375
24.4892495,1.3427734375
24.5091743,1.298828125
24.5095483,1.2548828125
24.5442905,1.220703125
24.5650479,1.1572265625
24.5719419,1.142578125
24.6064007,1.123046875
24.6279739,1.09375
24.63621,1.0693359375
24.6541567,1.0498046875
24.6901565,1.0400390625
24.6942935,1.015625
24.7325435,0.9912109375
24.751276,0.966796875
24.7516612,0.966796875
24.7948494,0.9521484375
24.7951731,0.927734375
24.8144754,0.9033203125
24.8479596,0.8935546875
24.8692431,0.9375
24.8756873,1.0791015625
24.8913288,1.23046875
24.9257913,1.38671875
24.9471376,1.5087890625
24.952063,1.5966796875
24.987911,1.6650390625
25.0110897,1.69921875
25.0131656,1.71875
25.0473024,1.71875
25.0749932,1.7138671875
25.0753259,1.689453125
25.0926771,1.650390625
25.1125844,1.6064453125
25.1506916,1.572265625
25.1529995,1.552734375
25.1864722,1.54296875
25.206942,1.513671875
25.2160859,1.484375
25.2357641,1.455078125
25.2520263,1.4208984375
25.2869651,1.3916015625
25.3175983,1.3525390625
25.3235783,1.3134765625
25.3351943,1.26953125
25.3713667,1.2451171875
25.3752675,1.2158203125
25.4168352,1.181640625
25.4170309,1.1474609375
25.4385398,1.123046875
25.4549814,1.103515625
25.4755774,1.0986328125
25.4952533,1.0791015625
25.5410801,1.064453125
25.5412578,1.0400390625
25.55636,1.0400390625
25.6022448,1.0302734375
25.6024903,1.005859375
25.6157835,0.9814453125
25.6487834,0.9521484375
25.655113,0.9619140625
25.6998225,1.0205078125
25.7001097,1.15234375
25.7133422,1.2841796875
25.7462989,1.4111328125
25.7676409,1.5087890625
25.7763392,1.591796875
25.7919546,1.6357421875
25.8279954,1.669921875
25.8481334,1.689453125
25.8546581,1.708984375
25.9036092,1.708984375
25.9037874,1.6796875
25.9156639,1.640625
25.9373101,1.6015625
25.9581432,1.5869140625
25.9744183,1.5673828125
26.0087439,1.552734375
26.0176338,1.5234375
26.0358768,1.50390625
26.0561626,1.474609375
26.0928403,1.4453125
26.0948893,1.4013671875
26.1291547,1.3525390625
26.1535329,1.3037109375
26.1538381,1.279296875
26.1886238,1.240234375
26.1926177,1.2060546875
26.2275471,1.171875
26.2467057,1.142578125
26.2555025,1.123046875
26.290791,1.0986328125
26.3103391,1.0693359375
26.3170031,1.0400390625
26.3573474,1.0205078125
26.3576493,1.0107421875
26.3887257,0.9912109375
26.3946073,0.966796875
26.4307884,0.947265625
26.466737,0.927734375
26.4671061,0.91796875
26.4770936,0.9033203125
26.512398,0.9326171875
26.5326569,1.044921875
26.5345238,1.1865234375
26.5670837,1.3427734375
26.5885898,1.455078125
26.5949806,1.5478515625
26.6328681,1.6064453125
26.638146,1.6552734375
26.6807146,1.6845703125
26.6809069,1.7041015625
26.6957826,1.69921875
26.7221944,1.6943359375
26.7359143,1.6650390625
26.7714722,1.640625
26.7771147,1.6015625
26.7988682,1.5673828125
26.8184483,1.5380859375
26.8524636,1.5185546875
26.8569385,1.4990234375
26.8896984,1.4599609375
26.8936118,1.42578125
26.9363767,1.38671875
26.9366702,1.3525390625
26.9658253,1.3232421875
26.9767485,1.2841796875
27.0102593,1.2451171875
27.0321536,1.2060546875
27.0385458,1.1767578125
27.0582702,1.123046875
27.0764509,1.0693359375
27.0953234,1.0595703125
27.1314769,1.044921875
27.1358964,1.03515625
27.1689726,1.03515625
27.1887461,1.0107421875
27.1991364,0.986328125
27.2396816,0.95703125
27.2399818,0.947265625
27.2554633,0.927734375
27.2759408,0.9033203125
27.3110612,0.8740234375
27.3314426,0.8544921875
27.3365231,0.87890625
27.3864612,1.005859375
27.3866513,1.1572265625
27.4072849,1.3134765625
27.4141793,1.435546875
27.4505626,1.54296875
27.4772336,1.611328125
27.4776137,1.66015625
27.5240316,1.689453125
27.524207,1.69921875
27.5532856,1.708984375
27.558906,1.689453125
27.5959612,1.650390625
27.5963271,1.6064453125
27.6430259,1.572265625
27.6473016,1.552734375
27.6562281,1.5380859375
27.6925763,1.513671875
27.6972275,1.484375
27.7371012,1.4501953125
27.7374435,1.42578125
27.7731198,1.3916015625
27.7752756,1.34765625
27.8089823,1.30859375
27.8306215,1.2646484375
27.837283,1.23046875
27.8594845,1.1962890625
27.8950535,1.1572265625
27.8991946,1.1181640625
27.9320524,1.0888671875
27.9536966,1.064453125
27.9578657,1.044921875
27.9986576,1.0205078125
27.9988521,1.0107421875
28.0160362,0.9912109375
28.0521229,0.9912109375
28.0761117,0.9814453125
28.0784565,0.95703125
28.1148866,0.927734375
28.119141,0.908203125
28.1403805,0.8984375
28.1560317,0.9033203125
28.1982938,0.986328125
28.1985841,1.1279296875
28.2179362,1.2890625
28.2537895,1.416015625
28.2581506,1.5283203125
28.2981498,1.5966796875
28.2983281,1.6455078125
28.3188641,1.669921875
28.3534992,1.7041015625
28.358248,1.708984375
28.4075362,1.6943359375
28.4085579,1.66015625
28.4174953,1.62109375
28.4514305,1.591796875
28.4852662,1.552734375
28.4855566,1.5185546875
28.4968045,1.4892578125
28.5320161,1.474609375
28.5519986,1.455078125
28.5567824,1.42578125
28.5955449,1.3818359375
28.5998128,1.337890625
28.6197822,1.2939453125
28.6565835,1.2646484375
28.656975,1.220703125
28.7025506,1.1865234375
28.7029443,1.15234375
28.724288,1.123046875
28.7376854,1.0986328125
28.7580709,1.083984375
28.8116868,1.0498046875
28.8120914,1.0205078125
28.8204631,1.0009765625
28.8414224,0.986328125
28.8798103,0.9619140625
28.8802332,0.9375
28.9140793,0.91796875
28.9201832,0.9033203125
28.9379862,0.888671875
28.9815589,0.859375
28.9819203,0.830078125
29.0162219,0.849609375
29.0215019,0.9814453125
29.03586,1.15234375
29.0701281,1.318359375
29.0922097,1.455078125
29.0995713,1.54296875
29.1370644,1.6259765625
29.1415007,1.6748046875
29.1600072,1.708984375
29.1949871,1.7138671875
29.1991621,1.71875
29.2182723,1.69921875
29.2532027,1.6845703125
29.2577398,1.6357421875
29.3002948,1.5966796875
29.3221496,1.5576171875
29.322383,1.533203125
29.3566425,1.513671875
29.3614368,1.4892578125
29.3764911,1.4453125
29.4156356,1.416015625
29.4197265,1.38671875
29.4557716,1.3525390625
29.456062,1.3037109375
29.4925378,1.2548828125
29.5148735,1.2060546875
29.5200551,1.171875
29.5716347,1.142578125
29.57193,1.103515625
29.579895,1.0400390625
29.6146989,1.005859375
29.6188959,0.986328125
29.6628462,0.966796875
29.6630467,0.9423828125
29.6959593,0.91796875
29.7082297,0.8935546875
29.7204293,0.888671875
29.7575681,0.869140625
29.7629185,0.83984375
29.7788675,0.810546875
29.7998583,0.791015625
29.8186374,0.78125
29.8414658,0.80078125
29.8760424,0.8935546875
29.8805318,1.0693359375
29.9154202,1.2353515625
29.9374376,1.40625
29.9377344,1.5185546875
29.9594247,1.6015625
29.9986467,1.6455078125
30.004076,1.6796875
30.0209067,1.6943359375
30.056097,1.7138671875
30.0611239,1.69921875
30.0979429,1.66015625
30.1022429,1.611328125
30.1188323,1.572265625
30.1389321,1.5478515625
30.1791219,1.5234375
30.1792926,1.50390625
30.2128038,1.474609375
30.240639,1.4501953125
30.240976,1.416015625
30.2738368,1.3720703125
30.2944864,1.3232421875
30.2966561,1.2841796875
30.3191726,1.2451171875
30.3628981,1.2109375
30.3630761,1.171875
30.3830734,1.1279296875
30.4014768,1.0888671875
30.4215443,1.0546875
30.4658605,1.03515625
30.4710217,1.005859375
30.4828047,0.9765625
30.4996455,0.9521484375
30.5495178,0.9521484375
30.5501052,0.9326171875
30.5611719,0.91796875
30.5980089,0.8984375
30.6001422,0.8837890625
30.6363112,0.869140625
30.6625176,0.849609375
30.6628047,0.830078125
30.6785898,0.87890625
30.7145938,1.025390625
30.7398451,1.201171875
30.7400479,1.3671875
30.7811202,1.484375
30.7815013,1.572265625
30.8157765,1.6259765625
30.8446919,1.6748046875
30.844993,1.6943359375
30.8614541,1.7041015625
30.882106,1.6943359375
30.9198516,1.669921875
30.9202492,1.630859375
30.9636504,1.591796875
30.9638312,1.5478515625
30.9975912,1.513671875
31.0015218,1.50390625
31.0190908,1.4794921875
31.0539108,1.4599609375
31.0586562,1.4306640625
31.0919643,1.40625
31.1139887,1.3671875
31.1237252,1.3427734375
31.1420665,1.2939453125
31.1805258,1.2548828125
31.1808273,1.2060546875
31.2161275,1.1767578125
31.218911,1.11328125
31.2544644,1.09375
31.2760877,1.064453125
31.282641,1.03515625
31.30915,1.005859375
31.3232035,1.0009765625
31.3424715,0.9814453125
31.3774165,0.95703125
31.3989953,0.9375
31.3993039,0.9228515625
31.4332908,0.91796875
31.4546749,0.8984375
31.4598686,0.8837890625
31.4943433,0.869140625
31.5142015,0.908203125
31.5229866,1.025390625
31.5440375,1.19140625
31.559219,1.337890625
31.6014336,1.474609375
31.6017266,1.5771484375
31.6268699,1.6552734375
31.6433558,1.69921875
31.6802837,1.7138671875
31.6805992,1.7236328125
31.7191202,1.71875
31.7438873,1.7138671875
31.7442601,1.6650390625
31.7628,1.6259765625
31.7821535,1.58203125
31.8199843,1.5625
31.8219453,1.5380859375
31.8556225,1.513671875
31.8765913,1.484375
31.8846006,1.4501953125
31.9002966,1.416015625
31.9446504,1.3916015625
31.9449418,1.3427734375
31.9663639,1.30859375
31.9815517,1.259765625
32.0185373,1.2255859375
32.0369961,1.1865234375
32.0443684,1.1474609375
32.0842617,1.103515625
32.0844701,1.064453125
32.1177557,1.025390625
32.1379001,1.0107421875
32.1409392,0.9912109375
32.1790423,0.9716796875
32.183437,0.9521484375
32.2249709,0.9375
32.2251421,0.9326171875
32.245237,0.9130859375
32.2648108,0.8837890625
32.3161908,0.8642578125
32.3164818,0.83984375
32.3220152,0.83984375
32.3630466,0.8935546875
32.3632381,1.044921875
32.3966332,1.2109375
32.4172528,1.376953125
32.4234865,1.494140625
32.4720959,1.58203125
32.4728578,1.6259765625
32.4826008,1.6650390625
32.5203564,1.689453125
32.5224286,1.7041015625
32.5567056,1.689453125
32.5772494,1.6552734375
32.5843584,1.611328125
32.6212248,1.5771484375
32.6239826,1.5478515625
32.6422861,1.513671875
32.685467,1.494140625
32.6857564,1.474609375
32.7031198,1.4599609375
32.7385705,1.42578125
32.7447403,1.38671875
32.7829084,1.337890625
32.7833038,1.298828125
32.8033206,1.2548828125
32.836397,1.2158203125
32.8425063,1.171875
32.8628012,1.1376953125
32.8986472,1.0986328125
32.9037742,1.07421875
32.9232872,1.044921875
32.9684501,1.015625
32.984697,0.986328125
32.9849936,0.9619140625
33.019944,0.9521484375
33.0408158,0.9375
33.0412122,0.9228515625
33.0801578,0.9033203125
33.109611,0.888671875
33.1100013,0.87890625
33.123062,0.8642578125
33.1728405,0.8447265625
33.1730405,0.8740234375
33.1826237,0.99609375
33.2230352,1.19140625
33.2281034,1.3525390625
33.241647,1.4892578125
33.2746296,1.591796875
33.2953582,1.650390625
33.3101302,1.708984375
33.3253077,1.728515625
33.3619205,1.728515625
33.3623004,1.71875
33.394738,1.69921875
33.4164688,1.669921875
33.4237934,1.6259765625
33.4586034,1.5869140625
33.4782636,1.552734375
33.4829828,1.5283203125
33.5269101,1.5185546875
33.5272038,1.4892578125
33.557745,1.455078125
33.5619598,1.42578125
33.5988216,1.38671875
33.6032587,1.357421875
33.6413131,1.3134765625
33.6463233,1.26953125
33.6808814,1.220703125
33.6848854,1.1865234375
33.7047212,1.15234375
33.7308407,1.09375
33.74259,1.0400390625
33.7785323,1.03515625
33.7828982,1.025390625
33.8186887,1.0302734375
33.8382779,1.015625
33.8447778,1.005859375
33.8783411,0.9814453125
33.8984323,0.9765625
33.9052604,0.966796875
33.9212214,0.9375
33.9549318,0.9130859375
33.9790983,0.9033203125
33.9834294,0.9619140625
34.0301426,1.0986328125
34.0303746,1.2646484375
34.0512215,1.4013671875
34.0692086,1.513671875
34.0842027,1.6015625
34.1327239,1.6748046875
34.1329001,1.7138671875
34.1436705,1.73828125
34.1790316,1.748046875
34.2124992,1.748046875
34.2128066,1.7333984375
34.2255895,1.689453125
34.2690581,1.640625
34.2694488,1.5966796875
34.2846099,1.58203125
34.3031501,1.5625
34.3523845,1.5380859375
34.3527401,1.50390625
34.3749003,1.4697265625
34.387757,1.42578125
34.423315,1.396484375
34.4237148,1.34765625
34.4609514,1.3037109375
34.4611393,1.2548828125
34.4840902,1.2255859375
34.5220029,1.1865234375
34.5245736,1.1572265625
34.5662553,1.123046875
34.5829883,1.083984375
34.5855751,1.0595703125
34.6200784,1.03515625
34.6415844,1.005859375
34.641878,0.9765625
34.6796502,0.9619140625
34.7000492,0.9521484375
34.7064461,0.9423828125
34.7466451,0.9228515625
34.7468622,0.9033203125
34.7801049,0.8740234375
34.8021902,0.8642578125
34.8024896,0.8740234375
34.8394509,0.95703125
34.8604017,1.1181640625
34.8644317,1.2744140625
34.897346,1.4306640625
34.9178787,1.5380859375
34.9251743,1.62109375
34.9617835,1.6650390625
34.9866666,1.6943359375
34.9868414,1.7138671875
35.0034612,1.728515625
35.0367447,1.7138671875
35.0581123,1.6796875
35.0653926,1.6259765625
35.1044344,1.5869140625
35.1048383,1.5478515625
35.1510745,1.513671875
35.1514611,1.474609375
35.1800669,1.46484375
35.1847895,1.4501953125
35.2260526,1.42578125
35.2262284,1.38671875
35.2464751,1.337890625
35.2817957,1.2939453125
35.3053749,1.2548828125
35.3057986,1.2158203125
35.3243811,1.171875
35.359606,1.1376953125
35.381865,1.0986328125
35.3865886,1.07421875
35.4064932,1.0498046875
35.4436306,1.025390625
35.4483232,0.99609375
35.4883978,0.966796875
35.4889347,0.95703125
35.5096733,0.9375
35.5298436,0.9130859375
35.5448082,0.888671875
35.5817458,0.87890625
35.5857889,0.8642578125
35.6202922,0.8447265625
35.6408199,0.8154296875
35.6481767,0.8154296875
35.6841255,0.8984375
35.6884174,1.0888671875
35.7055406,1.259765625
35.7407625,1.416015625
35.7458885,1.5283203125
35.7799168,1.6162109375
35.8000161,1.669921875
35.8085152,1.708984375
35.8427021,1.71875
35.8468758,1.7138671875
35.8795597,1.6943359375
35.8996517,1.66015625
35.9044748,1.62109375
35.9471129,1.5771484375
35.9472891,1.5478515625
35.9671149,1.5234375
36.0105638,1.5087890625
36.0108686,1.484375
36.0314918,1.4453125
36.0452452,1.40625
36.0665244,1.376953125
36.0851915,1.34765625
36.1183383,1.30859375
36.1394486,1.2646484375
36.1491767,1.220703125
36.1850275,1.19140625
36.1870093,1.162109375
36.2224185,1.1328125
36.2415382,1.0986328125
36.2479053,1.044921875
36.2813969,1.025390625
36.2856329,1.025390625
36.3203706,1.0107421875
36.3414285,1.0009765625
36.3477633,0.9765625
36.3812751,0.966796875
36.4019107,0.9521484375
36.4099252,0.9326171875
36.4262185,0.8984375
36.4709871,0.87890625
36.4713034,0.888671875
36.4864573,0.9716796875
36.531362,1.123046875
36.5319069,1.2744140625
36.5478135,1.4111328125
36.5839285,1.5185546875
36.6040817,1.6064453125
36.6043161,1.6552734375
36.6398761,1.6845703125
36.6599882,1.69921875
36.6665959,1.708984375
36.7007944,1.69921875
36.729955,1.6650390625
36.73025,1.62109375
36.7671803,1.572265625
36.7724918,1.5478515625
36.7866611,1.5234375
36.8225431,1.50390625
36.8265721,1.474609375
36.8685834,1.4453125
36.8687584,1.416015625
36.8883827,1.38671875
36.9217039,1.337890625
36.942166,1.2939453125
36.9452367,1.2451171875
36.98406,1.220703125
36.9887642,1.1865234375
37.0240854,1.15234375
37.0286927,1.11328125
37.0490247,1.0791015625
37.0736877,1.0546875
37.1029551,1.0400390625
37.1111309,1.015625
37.1299654,0.986328125
37.1656106,0.9619140625
37.1658963,0.9423828125
37.1862434,0.9423828125
37.2201443,0.9228515625
37.2467619,0.908203125
37.2492451,0.8837890625
37.2872393,0.8740234375
37.2887341,0.8740234375
37.3245349,0.927734375
37.3439928,1.0546875
37.3461194,1.23046875
37.3814506,1.3818359375
37.4024187,1.513671875
37.4086965,1.6064453125
37.4478525,1.6552734375
37.4480421,1.6943359375
37.4809497,1.7138671875
37.5008969,1.728515625
37.5059693,1.7138671875
37.5411048,1.6845703125
37.561334,1.640625
37.5677892,1.6064453125
37.6024143,1.572265625
37.6347226,1.5478515625
37.6350185,1.5185546875
37.6564978,1.4892578125
37.6672798,1.46484375
37.7040795,1.4404296875
37.7099991,1.4013671875
37.7447154,1.3671875
37.7471199,1.3232421875
37.7839843,1.2841796875
37.8177834,1.2451171875
37.818071,1.1962890625
37.8308981,1.1474609375
37.8461707,1.1083984375
37.872627,1.0888671875
37.8879797,1.025390625
37.9300401,1.0009765625
37.9302501,0.9716796875
37.962975,0.947265625
37.9828557,0.9326171875
37.9919271,0.9228515625
38.0261031,0.9033203125
38.0302058,0.87890625
38.0642819,0.859375
38.086467,0.83984375
38.0868698,0.8203125
38.1247707,0.7958984375
38.1288868,0.791015625
38.1518126,0.859375
38.1713221,1.0302734375
38.2074113,1.2060546875
38.2128123,1.3671875
38.229101,1.474609375
38.2661492,1.5673828125
38.2713333,1.630859375
38.289821,1.669921875
38.3180878,1.6845703125
38.3472236,1.6796875
38.3501913,1.66015625
38.3848507,1.640625
38.4043507,1.5966796875
38.4061171,1.552734375
38.4402474,1.5234375
38.4620243,1.4990234375
38.4700188,1.494140625
38.4894533,1.4697265625
38.5274058,1.4453125
38.5611992,1.40625
38.5619188,1.3671875
38.5665373,1.328125
38.603409,1.298828125
38.607902,1.2548828125
38.6435826,1.220703125
38.6721418,1.181640625
38.6724765,1.1572265625
38.7175851,1.1328125
38.7177574,1.09375
38.7299279,1.0595703125
38.7633717,1.03515625
38.7720482,0.99609375
38.8055227,0.9814453125
38.8075293,0.9716796875
38.8564401,0.95703125
38.8566802,0.9521484375
38.8871924,0.9423828125
38.8918105,0.9326171875
38.9287896,0.908203125
38.9332821,0.8837890625
38.9504974,0.8740234375
38.9867052,0.947265625
38.9870658,1.0791015625
39.0352245,1.2451171875
39.0356005,1.38671875
39.0663108,1.4892578125
39.0734933,1.572265625
39.1098789,1.6162109375
39.1115016,1.6357421875
39.1311404,1.6455078125
39.1495449,1.650390625
39.1883482,1.650390625
39.1885212,1.62109375
39.2269868,1.5771484375
39.2314275,1.533203125
39.2668857,1.50390625
39.2730128,1.4990234375
39.2892091,1.484375
39.3262518,1.46484375
39.3283811,1.4501953125
39.3641426,1.4208984375
39.38625,1.396484375
39.3903814,1.3525390625
39.4312282,1.3134765625
39.4314199,1.2646484375
39.4527232,1.23046875
39.4690734,1.1962890625
39.5041471,1.1669921875
39.508876,1.1328125
39.5435986,1.103515625
39.5628562,1.07421875
39.5710516,1.0546875
39.6055024,1.025390625
39.630371,1.0009765625
39.6307618,0.9716796875
39.6706229,0.9619140625
39.6884014,0.95703125
39.6887871,0.9326171875
39.7237097,0.908203125
39.743757,0.8837890625
39.7499593,0.869140625
39.7857812,0.8740234375
39.8063445,0.947265625
39.810789,1.0888671875
39.8446153,1.2548828125
39.8667472,1.3916015625
39.8715386,1.513671875
39.8915083,1.5869140625
39.9338474,1.6357421875
39.934024,1.6650390625
39.9694307,1.689453125
39.9735207,1.7041015625
40.0098157,1.6845703125
40.0140237,1.6552734375
40.0304365,1.6064453125
40.0502413,1.58203125
40.0884045,1.5576171875
40.0926895,1.533203125
40.1132438,1.50390625
40.1327786,1.4794921875
40.170232,1.4501953125
40.1751966,1.42578125
40.1909233,1.38671875
40.2291679,1.34765625
40.2293697,1.30859375
40.2648044,1.2841796875
40.286691,1.2548828125
40.2911216,1.23046875
40.3261395,1.1962890625
40.3490841,1.162109375
40.3548404,1.1376953125
40.3749478,1.11328125
40.3949146,1.0595703125
40.4119616,1.0107421875
40.4316249,1.005859375
40.46731,1.0009765625
40.4934071,1.0009765625
40.4935842,0.9814453125
40.5120685,0.9619140625
40.5457398,0.9423828125
40.5664516,0.9326171875
40.5727335,0.9130859375
40.5920138,0.8984375
40.6321322,0.91796875
40.6325217,1.0107421875
40.6685487,1.181640625
40.6730071,1.3330078125
40.7079627,1.4599609375
40.7268951,1.54296875
40.7335523,1.6064453125
40.7505479,1.6455078125
40.7884499,1.6796875
40.7908787,1.6845703125
40.8351549,1.6845703125
40.8354436,1.66015625
40.8641098,1.6357421875
40.8730247,1.591796875
40.9104181,1.5478515625
40.9106186,1.513671875
40.9303684,1.50390625
40.9716221,1.4990234375
40.971821,1.484375
40.9914766,1.455078125
41.0265302,1.4208984375
41.0476402,1.3818359375
41.0524847,1.34765625
41.0854905,1.3134765625
41.1063129,1.26953125
41.1102976,1.23046875
41.147838,1.19140625
41.1719171,1.1669921875
41.1720925,1.1376953125
41.2048301,1.1083984375
41.2260094,1.07421875
41.2326261,1.0498046875
41.2685013,1.0400390625
41.2926722,1.015625
41.2930102,0.99609375
41.3117282,0.9765625
41.3480511,0.9765625
41.3519961,0.966796875
41.3851865,0.9521484375
41.4065562,0.9228515625
41.415518,0.9033203125
41.4362967,0.8935546875
41.4574552,0.9814453125
41.4728716,1.1181640625
41.5084697,1.2841796875
41.5111421,1.416015625
41.546273,1.5283203125
41.5660485,1.6015625
41.5732227,1.66015625
41.6118999,1.689453125
41.6120933,1.6943359375
41.6655762,1.69921875
41.6658843,1.69921875
41.6901907,1.669921875
41.6904983,1.630859375
41.7137904,1.591796875
41.7491029,1.5673828125
41.7779185,1.5576171875
41.7780936,1.5380859375
41.7964613,1.5087890625
41.8122023,1.4794921875
41.8597215,1.4599609375
41.8599029,1.435546875
41.8735664,1.4013671875
41.9106306,1.3623046875
41.9147228,1.3134765625
41.9521089,1.2841796875
41.9543278,1.25
41.9893462,1.220703125
42.0101064,1.1767578125
42.0119559,1.15234375
42.0485074,1.1279296875
42.053208,1.1181640625
42.0892222,1.09375
42.0930635,1.0791015625
42.1277429,1.0546875
42.1611983,1.0400390625
42.1615035,1.0302734375
42.1753533,1.005859375
42.1920055,0.9716796875
42.2366674,0.947265625
42.2368611,0.9423828125
42.2578239,0.9912109375
42.2914119,1.11328125
42.2940812,1.2548828125
42.3295218,1.3818359375
42.3504237,1.4892578125
42.3545987,1.5869140625
42.4042332,1.6357421875
42.4045233,1.669921875
42.4138696,1.689453125
42.4346798,1.7138671875
42.4795552,1.71875
42.4797512,1.69921875
42.4952583,1.66015625
42.516046,1.6162109375
42.5511588,1.591796875
42.5515717,1.5673828125
42.5847657,1.5478515625
42.6067527,1.5185546875
42.6144202,1.4990234375
42.6531539,1.4697265625
42.6535306,1.4404296875
42.6887198,1.4013671875
42.7104353,1.3525390625
42.7108157,1.30859375
42.7452817,1.2841796875
42.7661253,1.2548828125
42.7729085,1.220703125
42.8063518,1.1865234375
42.8282134,1.15234375
42.8353502,1.123046875
42.8703126,1.1083984375
42.8751985,1.0791015625
42.9090348,1.0498046875
42.916087,1.0009765625
42.9362177,0.9912109375
42.9551271,0.9912109375
42.9766042,0.9716796875
42.9950026,0.9521484375
43.0302887,0.927734375
43.0513128,0.9130859375
43.0579859,0.9130859375
43.0938009,0.9716796875
43.0941951,1.0986328125
43.1382476,1.2548828125
43.1385362,1.3916015625
43.1559866,1.5087890625
43.1919429,1.591796875
43.1946481,1.6357421875
43.2316743,1.6748046875
43.2520758,1.69921875
43.2563073,1.71875
43.2739948,1.708984375
43.2958215,1.689453125
43.3143648,1.6552734375
43.3491184,1.6259765625
43.3743748,1.6015625
43.3792673,1.58203125
43.3981556,1.5576171875
43.4380365,1.533203125
43.4382146,1.513671875
43.4551466,1.494140625
43.4918016,1.4501953125
43.4960892,1.416015625
43.5357676,1.376953125
43.5360859,1.337890625
43.5718793,1.30859375
43.5769159,1.2646484375
43.6126842,1.220703125
43.636259,1.181640625
43.6365495,1.1669921875
43.6744391,1.142578125
43.6747323,1.11328125
43.7079609,1.083984375
43.7290565,1.0595703125
43.7378159,1.0400390625
43.7568391,1.025390625
43.7921275,0.99609375
43.7987922,0.9716796875
43.8429038,0.9521484375
43.8430777,0.9326171875
43.854197,0.91796875
43.9037501,0.8984375
43.9039245,0.9521484375
43.9248588,1.064453125
43.9375753,1.23046875
43.9740053,1.357421875
43.9763076,1.46484375
44.0108121,1.5283203125
44.0174066,1.591796875
44.0348748,1.630859375
44.0690681,1.66015625
44.0897108,1.6650390625
44.0963962,1.66015625
44.1306001,1.6357421875
44.1583152,1.6162109375
44.1586518,1.5771484375
44.1765581,1.54296875
44.217106,1.5185546875
44.2173914,1.50390625
44.2370763,1.494140625
44.2717409,1.4697265625
44.2756349,1.4404296875
44.3127395,1.4013671875
44.3314807,1.3671875
44.3343353,1.337890625
44.3791113,1.3037109375
44.3954316,1.26953125
44.3957808,1.240234375
44.4318757,1.2109375
44.4612432,1.19140625
44.4614319,1.1669921875
44.477478,1.1376953125
44.5121772,1.1083984375
44.5421915,1.0888671875
44.5425194,1.0888671875
44.5571373,1.0400390625
44.5931232,1.03515625
44.5949403,1.0205078125
44.632112,1.015625
44.6621114,1.005859375
44.6624011,0.986328125
44.677084,0.95703125
44.7118399,0.9716796875
44.7317643,1.0498046875
44.7360321,1.1962890625
44.7698328,1.30859375
44.7909421,1.416015625
44.798234,1.4892578125
44.835594,1.5380859375
44.8358847,1.5869140625
44.885186,1.6064453125
44.8855907,1.6162109375
44.9155871,1.6064453125
44.9159861,1.611328125
44.962782,1.591796875
44.9631719,1.5625
44.9786009,1.5283203125
45.0154218,1.4990234375
45.0204514,1.4794921875
45.0672729,1.474609375
45.0674611,1.4453125
45.0771246,1.4208984375
45.1131111,1.396484375
45.1172923,1.3720703125
45.152281,1.3427734375
45.1567824,1.30859375
45.1920076,1.26953125
45.2128698,1.23046875
45.2173442,1.2060546875
45.2508969,1.181640625
45.2553502,1.1572265625
45.29532,1.1279296875
45.3119231,1.1083984375
45.3166434,1.09375
45.3514243,1.0791015625
45.3703654,1.0595703125
45.3773336,1.03515625
45.3995575,1.015625
45.4203584,0.9912109375
45.4476228,0.986328125
45.4559838,0.9716796875
45.4779104,0.9521484375
45.514623,0.9423828125
45.5167069,0.9765625
45.5505679,1.0693359375
45.5762338,1.2060546875
45.5785581,1.3232421875
45.6139899,1.4208984375
45.6393042,1.50390625
45.6400259,1.5673828125
45.6753089,1.6015625
45.6756111,1.630859375
45.720107,1.640625
45.7202805,1.6552734375
45.7403409,1.650390625
45.7587688,1.62109375
45.7943987,1.58203125
45.8128177,1.54296875
45.8155007,1.533203125
45.8512576,1.513671875
45.872225,1.494140625
45.8791504,1.4697265625
45.8984934,1.4453125
45.9341944,1.4208984375
45.9551197,1.3916015625
45.9553673,1.3525390625
45.9893047,1.318359375
46.0098088,1.2841796875
46.0171858,1.2646484375
46.0542391,1.2255859375
46.0857174,1.19140625
46.0859094,1.1572265625
46.0988574,1.1279296875
46.1320825,1.1083984375
46.1521771,1.0791015625
46.1567989,1.0498046875
46.1907144,1.0205078125
46.2125608,1.005859375
46.2195408,0.9912109375
46.2554254,0.966796875
46.2602776,0.9423828125
46.304034,0.9130859375
46.3043355,0.888671875
46.3219554,0.8740234375
46.3402546,0.859375
46.3579861,0.9033203125
46.3895577,1.044921875
46.3990082,1.19140625
46.4351168,1.3427734375
46.438959,1.4404296875
46.4734863,1.5185546875
46.4951682,1.5576171875
46.5022841,1.5966796875
46.5189931,1.62109375
46.5397657,1.6357421875
46.5584555,1.6259765625
46.5949223,1.611328125
46.6001597,1.5771484375
46.6213829,1.552734375
46.6647357,1.5185546875
46.6654657,1.4892578125
46.6779502,1.46484375
46.7220005,1.4599609375
46.7222976,1.4453125
46.7401793,1.416015625
46.7606521,1.376953125
46.7956684,1.3330078125
46.8000324,1.3037109375
46.836944,1.2744140625
46.8391694,1.2353515625
46.8563201,1.1962890625
46.8917918,1.162109375
46.9259305,1.1376953125
46.9262866,1.1181640625
46.9392921,1.0888671875
46.9863686,1.0595703125
46.986545,1.0302734375
47.005629,1.0205078125
47.0223565,1.0107421875
47.0428851,0.986328125
47.0632666,0.9375
47.0795099,0.8984375
47.1229091,0.9130859375
47.1230946,0.908203125
47.1415762,0.8984375
47.1769985,0.8837890625
47.1795433,0.9326171875
47.2149107,1.0595703125
47.2347823,1.220703125
47.2375499,1.3427734375
47.2772985,1.455078125
47.2774765,1.5234375
47.3016858,1.5869140625
47.3200426,1.6162109375
47.3575662,1.640625
47.3616243,1.6455078125
47.3972471,1.630859375
47.4014578,1.6162109375
47.4178645,1.58203125
47.4540929,1.5478515625
47.4772508,1.513671875
47.4797343,1.4990234375
47.5146757,1.4892578125
47.5371245,1.4794921875
47.5418892,1.4501953125
47.5623328,1.4208984375
47.5782113,1.3818359375
47.5986233,1.3623046875
47.6364334,1.328125
47.6684479,1.2841796875
47.6688308,1.2451171875
47.6796219,1.2060546875
47.7155564,1.181640625
47.7458087,1.1474609375
47.7461548,1.11328125
47.7591767,1.0791015625
47.7791209,1.0595703125
47.8144336,1.044921875
47.8331886,1.025390625
47.8408409,1.0009765625
47.8773221,0.986328125
47.8798661,0.966796875
47.9143584,0.95703125
47.9356121,0.9375
47.9414717,0.8837890625
47.9758553,0.8642578125
47.9806313,0.8642578125
48.0237482,0.91796875
48.0240431,1.0302734375
48.0418641,1.19140625
48.0782974,1.3330078125
48.0810361,1.4599609375
48.1146619,1.5478515625
48.1364173,1.611328125
48.1406008,1.6455078125
48.159724,1.6748046875
48.1799431,1.689453125
48.2227613,1.708984375
48.2229349,1.689453125
48.2554308,1.6552734375
48.2618193,1.6064453125
48.3005645,1.5673828125
48.3008713,1.552734375
48.3205037,1.5185546875
48.3557064,1.494140625
48.3604622,1.4697265625
48.3828853,1.4501953125
48.4025408,1.416015625
48.452901,1.376953125
48.4531137,1.328125
48.4624061,1.279296875
48.4791859,1.2353515625
48.5251575,1.2158203125
48.5253323,1.181640625
48.5407777,1.1474609375
48.5753986,1.11328125
48.5964572,1.0888671875
48.6037858,1.0595703125
48.6482127,1.0400390625
48.6483886,1.0107421875
48.6588577,0.9765625
48.7010102,0.9716796875
48.7014927,0.927734375
48.7303355,0.91796875
48.7416052,0.9033203125
48.776284,0.8837890625
48.7975415,0.8642578125
48.8037873,0.8447265625
48.8401901,0.8251953125
48.8419481,0.8740234375
48.877466,1.0107421875
48.8818216,1.2060546875
48.9015691,1.357421875
48.9460911,1.474609375
48.9463877,1.5576171875
48.9623729,1.6015625
48.9970521,1.6455078125
49.0181262,1.66015625
49.0246765,1.669921875
49.0399156,1.650390625
49.0754869,1.6259765625
49.0970008,1.591796875
49.104885,1.5576171875
49.121656,1.513671875
49.1563138,1.484375
49.1766266,1.4501953125
49.182995,1.4404296875
49.2005359,1.416015625
49.2367532,1.38671875
49.241075,1.34765625
49.2781385,1.3134765625
49.2825578,1.279296875
49.3233404,1.2353515625
49.3237296,1.1865234375
49.3586303,1.142578125
49.3785671,1.0986328125
49.3789266,1.064453125
49.4118595,1.0400390625
49.4334094,1.0107421875
49.4419256,0.9814453125
49.4747004,0.95703125
49.4945309,0.947265625
49.5041745,0.927734375
49.5540076,0.91796875
49.5542075,0.8984375
49.5657186,0.869140625
49.5849519,0.859375
49.6010129,0.859375
49.655162,0.8447265625
49.6553654,0.83984375
49.6725468,0.8935546875
49.6816769,1.0302734375
49.7151771,1.220703125
49.7399326,1.376953125
49.7445266,1.50390625
49.761629,1.591796875
49.8029363,1.669921875
49.8032457,1.7041015625
49.8245982,1.71875
49.8596329,1.71875
49.863634,1.7138671875
49.8969764,1.689453125
49.91924,1.6552734375
49.9257237,1.6015625
49.9401243,1.5576171875
49.9750144,1.5380859375
49.9947627,1.5234375
50.0010274,1.50390625
50.0495243,1.474609375
50.0498239,1.4404296875
50.0714578,1.40625
50.0844715,1.3720703125
50.1015257,1.328125
50.1382169,1.279296875
50.1431036,1.2353515625
50.16211,1.1962890625
50.1972161,1.1572265625
50.2171936,1.1181640625
50.222289,1.0791015625
50.2593256,1.0400390625
50.2807057,1.0107421875
50.2808805,0.986328125
50.3176132,0.9716796875
50.3228612,0.9521484375
50.3616542,0.9375
50.3619971,0.927734375
50.3979773,0.91796875
50.4199606,0.8984375
50.422971,0.8740234375
50.45715,0.8447265625
50.4786002,0.8740234375
50.4925759,0.986328125
50.5037077,1.1669921875
50.5543366,1.3232421875
50.5547169,1.46484375
50.5635363,1.5771484375
50.5987192,1.640625
50.6193614,1.6845703125
50.6254228,1.7041015625
50.6587673,1.708984375
50.6800443,1.7041015625
50.6819796,1.69921875
50.7148514,1.66015625
50.7359378,1.611328125
50.7446304,1.5625
50.7802187,1.5380859375
50.8013663,1.513671875
50.8042289,1.4892578125
50.8381503,1.455078125
50.8433814,1.4306640625
50.8810101,1.40625
50.8814155,1.3720703125
50.9178052,1.328125
50.9387841,1.279296875
50.9451727,1.2353515625
50.9798021,1.1962890625
51.0007252,1.162109375
51.0009253,1.1181640625
51.0339744,1.0791015625
51.0548245,1.0400390625
51.0643662,1.025390625
51.0847424,1.0009765625
51.1208846,0.9814453125
51.1249778,0.947265625
51.1582173,0.927734375
51.1797321,0.9130859375
51.1830855,0.908203125
51.2335417,0.8935546875
51.2337282,0.8349609375
51.2503233,0.8251953125
51.2648112,0.830078125
51.3157911,0.8935546875
51.3160901,1.03515625
51.3257086,1.2158203125
51.374713,1.3671875
51.3748852,1.4990234375
51.3826771,1.5869140625
51.4031347,1.6455078125
51.4367684,1.6748046875
51.4582538,1.69921875
51.4653287,1.708984375
51.5000668,1.7041015625
51.5040073,1.6748046875
51.5369529,1.6162109375
51.5574521,1.5625
51.5615783,1.5283203125
51.6028918,1.5087890625
51.63387,1.484375
51.6341547,1.4599609375
51.6468555,1.42578125
51.6826491,1.40625
51.6845929,1.357421875
51.7177406,1.3134765625
51.7382224,1.2548828125
51.7464305,1.2158203125
51.7686268,1.1767578125
51.7844079,1.1328125
51.8319181,1.083984375
51.8323023,1.0498046875
51.8472654,1.015625
51.8668609,0.9912109375
51.9043923,0.966796875
51.9047009,0.9423828125
51.9250129,0.91796875
51.9457418,0.9033203125
51.9651399,0.9033203125
52.0155681,0.8935546875
52.015818,0.87890625
52.027266,0.8544921875
52.0471978,0.830078125
52.0683728,0.8154296875
52.1033423,0.78125
52.1035221,0.8447265625
52.1538218,1.015625
52.1541529,1.23046875
52.1651765,1.396484375
52.2016103,1.533203125
52.2209266,1.6162109375
52.22556,1.669921875
52.2601504,1.69921875
52.2807696,1.71875
52.2825535,1.7138671875
52.3153267,1.69921875
52.3366159,1.6552734375
52.3462462,1.611328125
52.3851185,1.5673828125
52.385294,1.5283203125
52.4195509,1.494140625
52.4405916,1.4697265625
52.4431625,1.4404296875
52.4835232,1.4306640625
52.5085899,1.4013671875
52.5088038,1.3623046875
52.544145,1.3134765625
52.5444366,1.26953125
52.5673577,1.23046875
52.6171875,1.1865234375
52.6174952,1.142578125
52.6233312,1.0986328125
52.6696871,1.0791015625
52.6700901,1.0546875
52.6854842,1.0302734375
52.7061419,1.0009765625
52.750604,0.9765625
52.7512326,0.9521484375
52.770763,0.9521484375
52.7865995,0.9375
52.8214636,0.91796875
52.8256171,0.9033203125
52.8629767,0.888671875
52.8632733,0.87890625
52.908635,0.8642578125
52.9088327,0.908203125
52.9279081,1.03515625
52.9626281,1.23046875
52.9674319,1.38671875
53.0050648,1.5185546875
53.0053575,1.5966796875
53.0401496,1.6552734375
53.0629349,1.6943359375
53.0654424,1.71875
53.1021822,1.7138671875
53.1197914,1.69921875
53.127935,1.66015625
53.1610574,1.6162109375
53.1815724,1.5771484375
53.1834208,1.533203125
53.2175834,1.50390625
53.2380073,1.4794921875
53.2453706,1.4697265625
53.2793675,1.4453125
53.2995997,1.40625
53.3084861,1.3623046875
53.3521928,1.318359375
53.3524843,1.2744140625
53.3650505,1.2451171875
53.4007999,1.1962890625
53.420464,1.15234375
53.4253513,1.11328125
53.474468,1.0791015625
53.4746773,1.0546875
53.4964976,1.015625
53.5085414,0.9912109375
53.5264808,0.95703125
53.5626091,0.9521484375
53.5674649,0.9423828125
53.5874891,0.9326171875
53.6308394,0.908203125
53.6310531,0.9033203125
53.649558,0.888671875
53.6903019,0.8837890625
53.6904746,0.8544921875
53.7087289,0.8642578125
53.7267566,0.9228515625
53.7617097,1.1279296875
53.7663043,1.3232421875
53.8007554,1.4697265625
53.8230599,1.58203125
53.828553,1.6552734375
53.8481905,1.7138671875
53.8896752,1.7431640625
53.8898847,1.748046875
53.9055383,1.7431640625
53.9513157,1.728515625
53.951491,1.69921875
53.9723136,1.6552734375
53.9882787,1.6015625
54.0245321,1.5625
54.0286306,1.5283203125
54.0642075,1.5087890625
54.0682916,1.4892578125
54.0868887,1.4501953125
54.1252127,1.416015625
54.1467684,1.3720703125
54.1471564,1.3427734375
54.1833722,1.298828125
54.2052559,1.2451171875
54.2099116,1.19140625
54.245652,1.1474609375
54.2458432,1.103515625
54.280457,1.07421875
54.3007203,1.0302734375
54.3079861,0.9912109375
54.3282736,0.95703125
54.3623072,0.9423828125
54.3901093,0.91796875
54.3903978,0.8984375
54.4266629,0.8740234375
54.4270658,0.8544921875
54.4640094,0.8544921875
54.4686476,0.8349609375
54.4886668,0.810546875
54.5314192,0.7861328125
54.5317702,0.8056640625
54.5495228,0.91796875
54.5705254,1.11328125
54.6068592,1.2939453125
54.6088691,1.4501953125
54.6422601,1.552734375
54.6463054,1.650390625
54.6817202,1.69921875
54.7152988,1.7236328125
54.7155945,1.728515625
54.7287882,1.71875
54.7656497,1.7041015625
54.770818,1.66015625
54.8086813,1.6064453125
54.8091405,1.552734375
54.8452759,1.5283203125
54.8493874,1.513671875
54.8682503,1.494140625
54.9062225,1.46484375
54.9362544,1.42578125
54.9364413,1.3916015625
54.9519404,1.357421875
54.9677607,1.30859375
54.9883953,1.259765625
55.0294124,1.2109375
55.029651,1.1767578125
55.0764149,1.1474609375
55.0767581,1.103515625
55.0893733,1.064453125
55.1253414,1.025390625
55.1604634,0.99609375
55.1608448,0.9765625
55.1696522,0.9521484375
55.1883117,0.9375
55.2234034,0.91796875
55.2277166,0.908203125
55.2628872,0.9033203125
55.2844389,0.8837890625
55.2913069,0.859375
55.3093319,0.830078125
55.3444906,0.8447265625
55.3496733,0.947265625
55.3935893,1.11328125
55.3939995,1.298828125
55.4092972,1.4404296875
55.4528137,1.5625
55.4529914,1.6455078125
55.4750361,1.689453125
55.4907111,1.708984375
55.5273696,1.7138671875
55.5276046,1.7041015625
55.5471413,1.69921875
55.5820433,1.66015625
55.6044863,1.611328125
55.6119614,1.5576171875
55.6325345,1.5283203125
55.6517376,1.5087890625
55.7025314,1.494140625
55.7027102,1.4697265625
55.7322599,1.4404296875
55.7325488,1.4208984375
55.7671795,1.396484375
55.7679175,1.3525390625
55.8012033,1.3037109375
55.8307218,1.259765625
55.8309179,1.220703125
55.8653081,1.1865234375
55.8950765,1.142578125
55.8953744,1.1083984375
55.9089905,1.07421875
55.9575762,1.0595703125
55.9577533,1.0400390625
55.9706253,1.0205078125
56.0075364,1.005859375
56.0095524,0.986328125
56.0515846,0.9814453125
56.0694194,0.966796875
56.0696991,0.9521484375
56.0896037,0.927734375
56.1113153,0.908203125
56.1613714,0.9033203125
56.1616701,0.9716796875
56.1728304,1.1083984375
56.1910928,1.2841796875
56.2132974,1.4208984375
56.2349759,1.533203125
56.2547796,1.6015625
56.2706215,1.6748046875
56.2890225,1.708984375
56.331729,1.73828125
56.3320271,1.7578125
56.3601497,1.748046875
56.3704346,1.7138671875
56.4050233,1.6650390625
56.4264243,1.611328125
56.4295573,1.572265625
56.4656265,1.5478515625
56.4866581,1.5234375
56.4895007,1.494140625
56.5260582,1.46484375
56.5309858,1.435546875
56.5649568,1.4013671875
56.5870354,1.3525390625
56.5872714,1.3037109375
56.6238613,1.2548828125
56.6325231,1.2255859375
56.6513036,1.181640625
56.6968984,1.1376953125
56.6971883,1.0986328125
56.7125986,1.064453125
56.7492768,1.03515625
56.7533647,1.0107421875
56.7695768,0.9716796875
56.790424,0.947265625
56.8105408,0.927734375
56.8468637,0.91796875
56.8518641,0.8984375
56.9013762,0.869140625
56.9015691,0.8349609375
56.9115535,0.80078125
56.9283612,0.7763671875
56.9667845,0.80078125
56.9829651,0.9033203125
56.9895305,1.0791015625
57.0110496,1.2744140625
57.0332456,1.42578125
57.0537028,1.5478515625
57.0730346,1.611328125
57.1091616,1.6552734375
57.111172,1.669921875
57.1501288,1.689453125
57.1505211,1.6796875
57.1891073,1.66015625
57.1893934,1.6162109375
57.2270123,1.572265625
57.2315214,1.533203125
57.2804426,1.50390625
57.2806138,1.4794921875
57.3115842,1.4453125
57.3118841,1.4208984375
57.360868,1.396484375
57.3612577,1.3720703125
57.3709649,1.3330078125
57.391441,1.2841796875
57.4288691,1.2353515625
57.4329402,1.1962890625
57.4674787,1.15234375
57.4894873,1.1083984375
57.489803,1.0595703125
57.5241222,1.0302734375
57.5448776,1.0107421875
57.5508858,0.986328125
57.5865809,0.9521484375
57.6064167,0.9326171875
57.6111367,0.91796875
57.6492121,0.908203125
57.6811632,0.8984375
57.6813395,0.87890625
57.6897597,0.8642578125
57.7244514,0.849609375
57.7446321,0.849609375
57.7542251,0.859375
57.7735795,0.9423828125
57.7923608,1.1083984375
57.8249169,1.3037109375
57.845822,1.455078125
57.8523126,1.58203125
57.8729365,1.6552734375
57.8919424,1.7041015625
57.9338829,1.7333984375
57.9340536,1.7431640625
57.9528886,1.73828125
57.987886,1.7041015625
57.9930194,1.6552734375
58.0268777,1.6064453125
58.0530376,1.572265625
58.057709,1.5380859375
58.0720988,1.513671875
58.0926078,1.494140625
58.1122049,1.474609375
58.1530555,1.4501953125
58.1532829,1.416015625
58.1736144,1.3720703125
58.2094398,1.318359375
58.2306156,1.26953125
58.2308021,1.2451171875
58.2646096,1.201171875
58.2844653,1.1572265625
58.2935127,1.1181640625
58.3286885,1.09375
58.3331266,1.0693359375
58.3678876,1.044921875
58.3897485,1.015625
58.3900528,0.986328125
58.4253126,0.9765625
58.4470351,0.9716796875
58.4538801,0.95703125
58.4749212,0.9375
58.4927284,0.9130859375
58.5300029,0.888671875
58.552363,0.8837890625
58.5569881,0.9130859375
58.5703982,1.015625
58.6063913,1.19140625
58.6267361,1.357421875
58.6331644,1.5087890625
58.6684804,1.5966796875
58.6730903,1.6650390625
58.7070867,1.69921875
58.7317334,1.728515625
58.734072,1.73828125
58.7700288,1.7041015625
58.7894882,1.6845703125
58.7938673,1.650390625
58.8275385,1.611328125
58.8316226,1.58203125
58.8647598,1.5478515625
58.8851118,1.5234375
58.8952171,1.4990234375
58.9384229,1.474609375
58.9387096,1.4453125
58.9508376,1.40625
58.9881984,1.3623046875
59.0166166,1.3134765625
59.0169204,1.2744140625
59.0343175,1.23046875
59.0701202,1.181640625
59.0744859,1.1328125
59.1104232,1.083984375
59.1107195,1.044921875
59.1441288,1.025390625
59.1640961,0.9912109375
59.172703,0.95703125
59.2153335,0.9375
59.215509,0.9130859375
59.23654,0.9033203125
59.2555056,0.87890625
59.3012147,0.8544921875
59.3015971,0.830078125
59.3205466,0.8203125
59.3318319,0.80078125
59.3663691,0.7958984375
59.3922889,0.83984375
59.3942001,0.99609375
59.4327957,1.19140625
59.4331786,1.3818359375
59.468437,1.50390625
59.47313,1.6064453125
59.5083477,1.6650390625
59.513665,1.7138671875
59.5338102,1.7431640625
59.5542608,1.7431640625
59.5929451,1.728515625
59.5932671,1.6943359375
59.6300028,1.6552734375
59.6493359,1.6064453125
59.6567073,1.5625
59.673779,1.5234375
59.7223181,1.5087890625
59.7226148,1.4892578125
59.7351777,1.4697265625
59.7833007,1.435546875
59.7836187,1.40625
59.7956458,1.3671875
59.8173369,1.337890625
59.8365267,1.3037109375
59.8601133,1.25
59.8730978,1.2109375
59.9088019,1.171875
59.9394305,1.1474609375
59.9397325,1.1181640625
59.9681606,1.0888671875
59.9761659,1.0546875
60.0123132,1.025390625
60.0126022,1.0009765625
60.0440444,0.9912109375
60.0535696,0.9765625
60.0891854,0.9619140625
60.1106344,0.947265625
60.1148017,0.9375
60.1360444,0.91796875
60.1787947,0.9033203125
60.1790975,0.927734375
60.1942082,1.03515625
60.2158144,1.2255859375
60.2514687,1.3818359375
60.2554733,1.5234375
60.2924697,1.6162109375
60.2927314,1.689453125
60.339306,1.728515625
60.3395015,1.748046875
60.3607617,1.73828125
60.3772771,1.689453125
60.3939993,1.630859375
60.4287227,1.611328125
60.4494862,1.5673828125
60.4549815,1.5234375
60.488925,1.494140625
60.5093014,1.4697265625
60.5181722,1.4599609375
60.5538947,1.435546875
60.5562674,1.40625
60.5728302,1.3720703125
60.6071825,1.3427734375
60.6262079,1.3134765625
60.6362834,1.279296875
60.6713555,1.240234375
60.7002679,1.1962890625
60.7005602,1.162109375
60.7176396,1.1376953125
60.7352579,1.103515625
60.7755897,1.07421875
60.7760031,1.044921875
60.7953493,1.03515625
60.8368444,1.0302734375
60.8372513,1.0107421875
60.8557943,0.9912109375
60.8921143,0.9716796875
60.8961842,0.95703125
60.928947,0.9423828125
60.9336269,0.927734375
60.9757154,0.908203125
60.9759107,0.9033203125
60.9969334,0.966796875
61.0392961,1.1279296875
61.0394712,1.2890625
61.0572897,1.4404296875
61.0724327,1.54296875
61.1053699,1.640625
61.1255591,1.708984375
61.1346821,1.7431640625
61.1719306,1.7578125
61.1761039,1.7529296875
61.2232393,1.748046875
61.2236032,1.71875
61.2363249,1.669921875
61.2692613,1.6162109375
61.2892492,1.572265625
61.2941946,1.5380859375
61.3285706,1.5380859375
61.3500887,1.5087890625
61.3575123,1.4794921875
61.3765384,1.4404296875
61.4247343,1.40625
61.4250344,1.3671875
61.4442913,1.328125
61.4599339,1.2744140625
61.4757909,1.23046875
61.5122158,1.1962890625
61.5141583,1.171875
61.5503978,1.1376953125
61.5709813,1.103515625
61.5767168,1.0693359375
61.6119945,1.044921875
61.6373299,1.0302734375
61.6376617,1.005859375
61.6555909,0.9814453125
61.6920903,0.95703125
61.6971236,0.947265625
61.7433569,0.927734375
61.743549,0.9033203125
61.7584465,0.8740234375
61.7939532,0.8349609375
61.7980792,0.83984375
61.8132971,0.91796875
61.8459926,1.0888671875
61.8679121,1.259765625
61.8764087,1.416015625
61.9129979,1.5283203125
61.9433141,1.6259765625
61.9434866,1.6650390625
61.9566788,1.6943359375
61.9906855,1.69921875
61.996599,1.708984375
62.015192,1.69921875
62.0662895,1.66015625
62.0665287,1.611328125
62.0765242,1.5771484375
62.1108352,1.552734375
62.1307002,1.5283203125
62.1379843,1.50390625
62.1768855,1.474609375
62.1771988,1.4404296875
62.1964437,1.4111328125
62.2316769,1.38671875
62.2358383,1.337890625
62.2718232,1.2890625
62.2913715,1.2451171875
62.2978045,1.2158203125
62.320201,1.1767578125
62.3670992,1.142578125
62.3673891,1.103515625
62.3759179,1.0791015625
62.410146,1.0693359375
62.4314607,1.044921875
62.4388356,1.015625
62.4588736,0.986328125
62.5059923,0.9716796875
62.5061655,0.95703125
62.5203991,0.947265625
62.536058,0.91796875
62.5720118,0.8984375
62.5916654,0.8740234375
62.5972631,0.87890625
62.6185542,0.9033203125
62.6382228,1.0205078125
62.6783308,1.1767578125
62.7064717,1.3427734375
62.7066459,1.4697265625
62.7153293,1.5771484375
62.7523052,1.640625
62.756489,1.669921875
62.7937314,1.689453125
62.8232988,1.69921875
62.8236808,1.6943359375
62.8382145,1.66015625
62.8846542,1.62109375
62.8850418,1.572265625
62.9066847,1.5234375
62.9175595,1.4794921875
62.9520529,1.474609375
62.9567571,1.455078125
62.9918338,1.4453125
63.0245479,1.4208984375
63.0249498,1.3916015625
63.0390628,1.3525390625
63.0728531,1.3037109375
63.0936734,1.2646484375
63.0961573,1.23046875
63.1304616,1.1962890625
63.1635971,1.1572265625
63.1638912,1.123046875
63.1792571,1.0888671875
63.1993515,1.0693359375
63.2409314,1.0400390625
63.2413055,1.0107421875
63.257512,0.9814453125
63.2931099,0.9716796875
63.2972671,0.966796875
63.33307,0.9521484375
63.3649066,0.927734375
63.3652011,0.9130859375
63.3827108,0.9033203125
63.4024692,0.8984375
63.4223764,0.95703125
63.4384912,1.083984375
63.4746825,1.25
63.4790168,1.396484375
63.5186081,1.5283203125
63.5189293,1.6064453125
63.5634185,1.66015625
63.5637085,1.689453125
63.5843942,1.708984375
63.5966193,1.71875
63.6393166,1.7138671875
63.6396133,1.689453125
63.6595792,1.6455078125
63.6780838,1.6064453125
63.713473,1.572265625
63.7344974,1.5478515625
63.7384633,1.513671875
63.7811399,1.4892578125
63.7814869,1.4599609375
63.8141767,1.4404296875
63.8165281,1.4013671875
63.8664593,1.3671875
63.866851,1.3232421875
63.8796597,1.298828125
63.9137411,1.2646484375
63.9335199,1.23046875
63.941102,1.19140625
63.9889898,1.15234375
63.9891641,1.1181640625
63.9974925,1.1083984375
64.0171061,1.083984375
64.0676198,1.0595703125
64.0678575,1.0400390625
64.0988099,1.025390625
64.0990494,1.0107421875
64.1342144,0.9912109375
64.1566959,0.9765625
64.1569884,0.95703125
64.1942511,0.947265625
64.2209133,0.9375
64.2211604,0.95703125
64.239294,1.0498046875
64.2751784,1.2109375
64.2798984,1.3623046875
64.3143381,1.4990234375
64.3340715,1.6015625
64.3360677,1.66015625
64.3733409,1.708984375
64.3775945,1.73828125
64.4103538,1.7626953125
64.4309042,1.7578125
64.4405783,1.7333984375
64.4770442,1.689453125
64.4813746,1.650390625
64.4970194,1.6064453125
64.5431323,1.5771484375
64.5433346,1.5185546875
64.5653563,1.50390625
64.5803688,1.4892578125
64.6056701,1.46484375
64.619767,1.4306640625
64.66766,1.396484375
64.668061,1.357421875
64.6814973,1.3134765625
64.7180441,1.2744140625
64.7183847,1.23046875
64.7687878,1.1962890625
64.7690142,1.162109375
64.7852543,1.142578125
64.8008805,1.11328125
64.8345086,1.083984375
64.8546596,1.0546875
64.8614835,1.03515625
64.8802594,1.015625
64.9161386,1.015625
64.9208161,1.005859375
64.9564127,0.9912109375
64.9590612,0.9765625
64.9974489,0.9619140625
65.003382,0.9423828125
65.0211521,0.91796875
65.0592743,0.947265625
65.0595773,1.0546875
65.095394,1.23046875
65.0993936,1.3818359375
65.1342318,1.5087890625
65.1564533,1.591796875
65.1616611,1.6552734375
65.1837565,1.689453125
65.2203519,1.7138671875
65.2207264,1.7138671875
65.2654132,1.7041015625
65.2657106,1.6748046875
65.280163,1.640625
65.328496,1.5966796875
65.3286748,1.552734375
65.3401162,1.5234375
65.3742543,1.4990234375
65.4052282,1.484375
65.4054015,1.455078125
65.43877,1.4013671875
65.4391589,1.3671875
65.4768063,1.337890625
65.479645,1.30859375
65.5202357,1.2744140625
65.5205944,1.23046875
65.5706822,1.1962890625
65.5709747,1.1572265625
65.6014859,1.1279296875
65.6017855,1.0986328125
65.6206499,1.064453125
65.6585636,1.0400390625
65.6588525,1.025390625
65.6939646,1.0205078125
65.7137684,0.99609375
65.7208415,0.9814453125
65.7567883,0.95703125
65.7802532,0.9423828125
65.780453,0.927734375
65.7982238,0.9130859375
65.8346972,0.8984375
65.8581214,0.947265625
65.8602625,1.0693359375
65.8940603,1.25
65.9154293,1.3916015625
65.9239491,1.5283203125
65.9450078,1.6162109375
65.9603273,1.6748046875
65.9800062,1.7236328125
66.0210982,1.73828125
66.0213866,1.73828125
66.0595927,1.71875
66.0767774,1.6943359375
66.0831417,1.6552734375
66.1184521,1.6015625
66.1188632,1.5576171875
66.1615552,1.533203125
66.1618282,1.5185546875
66.1829968,1.50390625
66.2031207,1.4794921875
66.2221324,1.4453125
66.2617087,1.4111328125
66.2620124,1.3720703125
66.2991898,1.3330078125
66.3023558,1.2841796875
66.3400608,1.2451171875
66.3590467,1.1962890625
66.3608456,1.1767578125
66.3962487,1.1474609375
66.4174695,1.11328125
66.4216327,1.0791015625
66.4648415,1.0595703125
66.4651363,1.03515625
66.4945627,1.0302734375
66.498624,1.005859375
66.5329186,1.0009765625
66.557637,0.986328125
66.5616428,0.986328125
66.5957404,0.9716796875
66.615569,0.9423828125
66.6225925,0.9228515625
66.6581798,0.9423828125
66.6787418,1.0595703125
66.6790497,1.2158203125
66.7021802,1.376953125
66.7449914,1.4990234375
66.7451645,1.6015625
66.779729,1.6748046875
66.7841712,1.71875
66.8194235,1.73828125
66.8239757,1.7431640625
66.8410277,1.7333984375
66.8836046,1.7236328125
66.8837974,1.6943359375
66.9017709,1.6455078125
66.9371698,1.6015625
66.9424049,1.5673828125
66.9891534,1.5576171875
66.9894958,1.533203125
67.0049237,1.4990234375
67.0250422,1.46484375
67.0450611,1.40625
67.0619552,1.3525390625
67.1159593,1.3330078125
67.1162984,1.2939453125
67.122594,1.259765625
67.1651796,1.220703125
67.165474,1.1962890625
67.210868,1.1572265625
67.2110786,1.1279296875
67.2250325,1.0986328125
67.2413216,1.07421875
67.2758861,1.064453125
67.2952677,1.044921875
67.3017703,1.0205078125
67.3499731,0.99609375
67.3503211,0.9814453125
67.371333,0.9619140625
67.3864298,0.9375
67.4032349,0.908203125
67.4226024,0.888671875
67.4569296,0.8935546875
67.4640136,0.99609375
67.5051911,1.1474609375
67.505448,1.3037109375
67.5392706,1.435546875
67.5441679,1.5283203125
67.5804946,1.6015625
67.6146908,1.6357421875
67.6150776,1.66015625
67.623732,1.6650390625
67.6629895,1.6650390625
67.6632792,1.6455078125
67.7090374,1.6064453125
67.7094552,1.5576171875
67.7248344,1.5185546875
67.7416893,1.4892578125
67.7778819,1.4794921875
67.7822977,1.46484375
67.8187615,1.4453125
67.8229839,1.4111328125
67.8630395,1.38671875
67.8634283,1.357421875
67.898958,1.3134765625
67.9194636,1.26953125
67.926272,1.2255859375
67.9474006,1.19140625
67.9623327,1.162109375
67.9831868,1.142578125
68.0134367,1.11328125
68.0235334,1.09375
68.0606219,1.07421875
68.0822245,1.0595703125
68.086625,1.0400390625
68.107944,1.0205078125
68.1220384,0.99609375
68.1630782,0.9912109375
68.1632597,0.9765625
68.1839277,0.947265625
68.2037225,0.91796875
68.2400034,0.908203125
68.2441415,0.966796875
68.2775291,1.083984375
68.2996043,1.2451171875
68.304043,1.3671875
68.3231683,1.484375
68.3575203,1.5576171875
68.3775415,1.6162109375
68.3836586,1.640625
68.4349524,1.6552734375
68.4352359,1.6552734375
68.4564233,1.650390625
68.462594,1.62109375
68.5121691,1.591796875
68.5124646,1.5576171875
68.5232455,1.5283203125
68.5752107,1.5185546875
68.5755066,1.50390625
68.5863889,1.4794921875
68.6115459,1.4501953125
68.6274898,1.416015625
68.6428167,1.38671875
68.6880739,1.357421875
68.6882491,1.318359375
68.7092091,1.2744140625
68.7280011,1.2353515625
68.7461996,1.2158203125
68.7652288,1.1865234375
68.7868162,1.1474609375
68.8222809,1.1181640625
68.8264939,1.0888671875
68.8601749,1.0791015625
68.8807045,1.0546875
68.8826988,1.044921875
68.9164448,1.0302734375
68.9367116,1.025390625
68.9450986,1.015625
68.9791216,1.005859375
69.0006088,0.9765625
69.0072979,0.95703125
69.0250893,0.95703125
69.0443507,1.044921875
69.0868375,1.171875
69.0870105,1.318359375
69.1212799,1.4306640625
69.1257157,1.5283203125
69.159725,1.6064453125
69.185164,1.640625
69.1901196,1.66015625
69.2043238,1.669921875
69.2477526,1.6796875
69.2480778,1.6748046875
69.2662753,1.650390625
69.2866284,1.611328125
69.3245024,1.572265625
69.3248774,1.54296875
69.3681104,1.5283203125
69.3683128,1.50390625
69.3888849,1.4892578125
69.4036661,1.4599609375
69.4369728,1.435546875
69.4580353,1.4111328125
69.464555,1.3720703125
69.5000812,1.3330078125
69.5212254,1.2890625
69.5260128,1.259765625
69.5595319,1.2255859375
69.5694156,1.1669921875
69.5851227,1.1376953125
69.6213152,1.1181640625
69.6253835,1.0986328125
69.6607736,1.09375
69.6915649,1.0693359375
69.6919397,1.0498046875
69.7078875,1.0302734375
69.7543253,1.0205078125
69.7546281,1.005859375
69.7642736,0.99609375
69.8134874,0.9765625
69.8137748,0.947265625
69.8423942,0.947265625
69.8472637,1.005859375
69.881459,1.1376953125
69.8876461,1.2744140625
69.9078427,1.396484375
69.9236208,1.4892578125
69.9585197,1.5673828125
69.9801587,1.611328125
69.9854621,1.640625
70.0282715,1.650390625
70.0286553,1.669921875
70.0612098,1.66015625
70.083046,1.630859375
70.0892832,1.591796875
70.1042881,1.5478515625
70.1517499,1.533203125
70.1520471,1.5185546875
70.1657312,1.50390625
70.2119869,1.474609375
70.2122893,1.4453125
70.2262602,1.4111328125
70.2615169,1.3818359375
70.2890575,1.337890625
70.2893724,1.298828125
70.3040023,1.2646484375
70.3388354,1.2353515625
70.3699197,1.2060546875
70.3703234,1.1767578125
70.3872489,1.1376953125
70.4201579,1.11328125
70.4416036,1.0888671875
70.4480688,1.0595703125
70.4829474,1.03515625
70.5026469,1.005859375
70.505466,0.9912109375
70.5426673,0.9765625
70.5694516,0.9765625
70.5697464,0.95703125
70.6047309,0.9423828125
70.609709,0.9228515625
70.6539443,0.9326171875
70.6542381,0.9814453125
70.6669125,1.11328125
70.7033943,1.25
70.7052501,1.38671875
70.7553256,1.50390625
70.7555393,1.5771484375
70.7685451,1.6259765625
70.8145526,1.650390625
70.8147468,1.669921875
70.8242628,1.6796875
70.8613664,1.6748046875
70.8817063,1.6455078125
70.8855653,1.611328125
70.9202095,1.5625
70.9391829,1.54296875
70.947831,1.5234375
70.9839116,1.4990234375
71.0173238,1.474609375
71.0176056,1.4501953125
71.0258372,1.42578125
71.059375,1.40625
71.0796637,1.3671875
71.0856896,1.328125
71.1184294,1.2890625
71.1391615,1.2548828125
71.1485638,1.220703125
71.1651577,1.181640625
71.2017803,1.15234375
71.2058534,1.0888671875
71.2561647,1.0888671875
71.2565499,1.07421875
71.2767873,1.0546875
71.2875717,1.03515625
71.3335076,1.025390625
71.3338033,1.015625
71.3639986,1.0009765625
71.3686547,0.9814453125
71.4046677,0.9521484375
71.4049614,0.947265625
71.4558078,0.9619140625
71.4561351,1.0400390625
71.4763663,1.1669921875
71.4895758,1.30859375
71.5226247,1.4208984375
71.5437492,1.533203125
71.5458528,1.5966796875
71.5805724,1.650390625
71.6022557,1.6796875
71.6086285,1.708984375
71.6284722,1.71875
71.6636867,1.708984375
71.6686055,1.6748046875
71.7129019,1.6357421875
71.7131036,1.6015625
71.7342028,1.572265625
71.7470767,1.552734375
71.7821957,1.5283203125
71.8093569,1.50390625
71.8097271,1.4794921875
71.8443029,1.4599609375
71.8656062,1.42578125
71.8714379,1.3818359375
71.8867039,1.337890625
71.9244368,1.3037109375
71.9247458,1.26953125
71.9631334,1.2353515625
71.9691896,1.1962890625
72.0137989,1.162109375
72.0146702,1.142578125
72.0302236,1.11328125
72.0651776,1.083984375
72.0695228,1.0546875
72.1059681,1.0400390625
72.1347962,1.025390625
72.1350522,1.025390625
72.1479348,1.0107421875
72.1813194,0.99609375
72.2025944,0.966796875
72.2086829,0.95703125
72.2435276,0.9423828125
72.2765327,0.947265625
72.2769177,1.015625
72.2873459,1.15234375
72.3238064,1.2939453125
72.3291926,1.4404296875
72.3486933,1.54296875
72.3848328,1.6064453125
72.4117853,1.6552734375
72.4119946,1.689453125
72.4456572,1.708984375
72.446037,1.708984375
72.4790724,1.7041015625
72.499999,1.669921875
72.5099533,1.6357421875
72.5432452,1.5966796875
72.5651707,1.5576171875
72.5720564,1.5283203125
72.5913329,1.50390625
72.6065853,1.4794921875
72.6422888,1.4599609375
72.6773101,1.42578125
72.6777053,1.3818359375
72.689579,1.3427734375
72.7236411,1.3037109375
72.7482448,1.26953125
72.7527046,1.2255859375
72.771132,1.181640625
72.7882854,1.1376953125
72.8333617,1.11328125
72.8337672,1.083984375
72.850646,1.0595703125
72.869189,1.025390625
72.9138576,1.0009765625
72.9312187,0.9814453125
72.9313917,0.9619140625
72.9786584,0.9375
72.9789525,0.9228515625
72.9926316,0.908203125
73.0100487,0.8935546875
73.045942,0.87890625
73.0512131,0.8544921875
73.086071,0.8349609375
73.0905274,0.8447265625
73.1371544,0.9619140625
73.1374519,1.1181640625
73.1532889,1.2841796875
73.1689781,1.4111328125
73.2063343,1.5234375
73.2105492,1.5966796875
73.2315883,1.650390625
73.2748374,1.669921875
73.2750416,1.6796875
73.2907038,1.6796875
73.3267877,1.66015625
73.3521622,1.62109375
73.3525433,1.572265625
73.3674579,1.54296875
73.4017145,1.513671875
73.4273558,1.4990234375
73.4300424,1.4794921875
73.4648348,1.455078125
73.4901556,1.4208984375
73.4903369,1.38671875
73.5240097,1.3525390625
73.52833,1.318359375
73.5634934,1.2744140625
73.5684199,1.23046875
73.6136662,1.19140625
73.6139943,1.162109375
73.6338143,1.1279296875
73.6822783,1.09375
73.6824857,1.0546875
73.6930606,1.0302734375
73.7129706,0.986328125
73.7301366,0.9423828125
73.7675874,0.947265625
73.7680054,0.9375
73.804194,0.9375
73.8266377,0.9375
73.832202,0.927734375
73.8661248,0.908203125
73.8986628,0.8984375
73.8988406,0.87890625
73.9078676,0.8837890625
73.9446081,0.9326171875
73.9772559,1.0546875
73.9774877,1.220703125
73.9913513,1.3623046875
74.0300643,1.4990234375
74.0320141,1.5771484375
74.0676353,1.6357421875
74.0681313,1.6650390625
74.0900925,1.69921875
74.1266157,1.71875
74.1306845,1.7236328125
74.1786166,1.6943359375
74.1789153,1.6552734375
74.2035663,1.611328125
74.2150608,1.58203125
74.2309073,1.5478515625
74.2514975,1.533203125
74.2699634,1.513671875
74.3114727,1.4892578125
74.311858,1.46484375
74.3315574,1.4306640625
74.3686403,1.38671875
74.3734099,1.3427734375
74.3925414,1.30859375
74.4086998,1.2646484375
74.4465751,1.2255859375
74.4675001,1.19140625
74.4693511,1.1474609375
74.5020467,1.1181640625
74.5231548,1.09375
74.5322991,1.0546875
74.5680995,1.025390625
74.598947,0.99609375
74.599199,0.9765625
74.6166381,0.95703125
74.6300439,0.9326171875
74.6644843,0.9228515625
74.6861601,0.9033203125
74.6930624,0.8935546875
74.7303064,0.87890625
74.7305012,0.8544921875
74.7532926,0.83984375
74.7963181,0.8837890625
74.7967019,1.0107421875
74.8178302,1.1962890625
74.832116,1.34765625
74.8683755,1.474609375
74.8713445,1.5625
74.9094607,1.6455078125
74.9293234,1.689453125
74.9321044,1.708984375
74.9668225,1.7138671875
74.9952955,1.69921875
74.9997378,1.6796875
75.0123358,1.640625
75.0487087,1.591796875
75.0536154,1.5478515625
75.0724592,1.513671875
75.1139377,1.4892578125
75.1141535,1.46484375
75.1344112,1.435546875
75.15008,1.4111328125
75.1908941,1.376953125
75.1911892,1.3427734375
75.2258191,1.298828125
75.2539683,1.25
75.254258,1.1962890625
75.2733519,1.1474609375
75.2942637,1.1181640625
75.3098288,1.07421875
75.330519,1.0400390625
75.367643,1.0107421875
75.3915526,0.9814453125
75.3919232,0.95703125
75.4267652,0.9326171875
75.4481673,0.9033203125
75.4536201,0.87890625
75.4952229,0.859375
75.4955145,0.849609375
75.5231895,0.830078125
75.5297738,0.8251953125
75.5627341,0.8154296875
75.5829587,0.8056640625
75.5928717,0.80078125
75.6283757,0.80078125
75.6483611,0.8837890625
75.6550047,1.044921875
75.6898274,1.2451171875
75.6901814,1.4013671875
75.7247089,1.5283203125
75.756427,1.6064453125
75.7568067,1.66015625
75.7899723,1.6845703125
75.7921649,1.708984375
75.8398452,1.7041015625
75.840043,1.6796875
75.8617522,1.6357421875
75.8724785,1.58203125
75.9184365,1.5478515625
75.9187523,1.5087890625
75.9316229,1.484375
75.9666341,1.4599609375
75.9960204,1.4404296875
75.9962005,1.416015625
76.0324811,1.38671875
76.03287,1.3427734375
76.0690325,1.3037109375
76.0695124,1.259765625
76.119169,1.220703125
76.1196097,1.181640625
76.1412498,1.1376953125
76.1546724,1.09375
76.1897814,1.07421875
76.1963033,1.0498046875
76.2169859,1.015625
76.2379799,0.9619140625
76.2521889,0.9423828125
76.2911427,0.9375
76.2915014,0.927734375
76.3301236,0.9130859375
76.3508456,0.9033203125
76.3530125,0.8935546875
76.3887498,0.8837890625
76.4090483,0.869140625
76.4114251,0.849609375
76.4544643,0.83984375
76.4546432,0.849609375
76.4913051,0.95703125
76.4915935,1.15234375
76.5425481,1.328125
76.5427234,1.4794921875
76.5634871,1.58203125
76.5751225,1.669921875
76.5924878,1.7138671875
76.6123052,1.73828125
76.6561573,1.7431640625
76.6564538,1.73828125
76.6752013,1.7138671875
76.7118087,1.6845703125
76.7148018,1.6259765625
76.749803,1.572265625
76.7706948,1.533203125
76.7710335,1.5185546875
76.8051277,1.4990234375
76.8261199,1.4794921875
76.8355653,1.4501953125
76.8555763,1.40625
76.8909805,1.3720703125
76.8953234,1.328125
76.9324553,1.279296875
76.9327086,1.23046875
76.9814539,1.19140625
76.9816641,1.1572265625
77.0017295,1.123046875
77.0153668,1.083984375
77.0348982,1.044921875
77.0715418,1.0107421875
77.0736273,0.986328125
77.1078844,0.9619140625
77.129703,0.9375
77.1361511,0.91796875
77.1704446,0.8984375
77.172526,0.8935546875
77.2085559,0.87890625
77.2309678,0.8740234375
77.2356691,0.8544921875
77.2726638,0.83984375
77.27818,0.8251953125
77.2979232,0.8447265625
77.3185807,0.9423828125
77.3341605,1.1376953125
77.3539861,1.3232421875
77.3948005,1.4892578125
77.3949774,1.5966796875
77.4286461,1.6748046875
77.4504852,1.7138671875
77.4590753,1.748046875
77.4768661,1.767578125
77.4936849,1.7626953125
77.5360622,1.7431640625
77.5363561,1.7041015625
77.5660674,1.650390625
77.5767896,1.6064453125
77.6118148,1.572265625
77.615626,1.533203125
77.6496518,1.50390625
77.6696436,1.474609375
77.6737816,1.4599609375
77.7112036,1.42578125
77.7172891,1.3916015625
77.7349427,1.3427734375
77.7793357,1.298828125
77.7797233,1.2646484375
77.7988646,1.2158203125
77.8396433,1.171875
77.8398196,1.1279296875
77.8574154,1.09375
77.8736013,1.0302734375
77.9096107,1.015625
77.9135615,0.9912109375
77.9524412,0.9716796875
77.9577562,0.947265625
77.9775524,0.9375
78.0204977,0.91796875
78.0207114,0.8984375
78.0335011,0.87890625
78.060563,0.8642578125
78.0749225,0.849609375
78.1236594,0.8349609375
78.1239003,0.8154296875
78.1537906,0.810546875
78.1586464,0.888671875
78.1998324,1.0546875
78.200111,1.25
78.214564,1.4111328125
78.2339733,1.552734375
78.2696086,1.640625
78.2915148,1.7041015625
78.2956453,1.7333984375
78.3184975,1.73828125
78.3707467,1.728515625
78.3710584,1.728515625
78.3749446,1.6943359375
78.3945076,1.640625
78.4319962,1.5966796875
78.4638167,1.552734375
78.4641151,1.5283203125
78.4772963,1.5087890625
78.5110986,1.4892578125
78.5396371,1.4501953125
78.539815,1.416015625
78.5538253,1.3720703125
78.5905152,1.3427734375
78.617869,1.2939453125
78.6181837,1.25
78.6532487,1.1962890625
78.6577045,1.1572265625
78.6771572,1.1181640625
78.7123844,1.083984375
78.7329685,1.03515625
78.7396494,0.9814453125
78.7591074,0.9619140625
78.7751217,0.9423828125
78.8119431,0.9228515625
78.8164093,0.908203125
78.8525554,0.8935546875
78.8818039,0.888671875
78.8819785,0.87890625
78.8995236,0.859375
78.9189548,0.83984375
78.9371045,0.8154296875
78.9720056,0.8056640625
78.9764577,0.830078125
79.0125797,0.947265625
79.0168786,1.1376953125
79.0533083,1.337890625
79.0747316,1.5087890625
79.0768198,1.62109375
79.1099801,1.6943359375
79.130009,1.728515625
79.1348703,1.7431640625
79.1705524,1.748046875
79.1934437,1.7529296875
79.1987598,1.71875
79.2181143,1.6748046875
79.2635824,1.62109375
79.2637695,1.5869140625
79.2739103,1.552734375
79.307968,1.5283203125
79.3294228,1.5087890625
79.3371941,1.4892578125
79.3733923,1.4599609375
79.3761287,1.435546875
79.4104689,1.396484375
79.4328539,1.34765625
79.4405976,1.3037109375
79.4552837,1.2646484375
79.4991123,1.23046875
79.499422,1.1962890625
79.5163493,1.162109375
79.5501066,1.123046875
79.5785659,1.0986328125
79.578764,1.0693359375
79.5983554,1.0400390625
79.6203543,1.0107421875
79.6412978,0.99609375
79.6556748,0.9765625
79.6996895,0.9716796875
79.6998655,0.9619140625
79.7285303,0.9423828125
79.738259,0.9228515625
79.7725474,0.8984375
79.7935394,0.87890625
79.801842,0.8642578125
79.8189293,0.9228515625
79.8357335,1.064453125
79.8858391,1.2646484375
79.8861318,1.42578125
79.8988573,1.5576171875
79.9470615,1.640625
79.9472396,1.7041015625
79.9581109,1.73828125
79.9949044,1.7626953125
80.0220872,1.7578125
80.0223785,1.748046875
80.037123,1.7236328125
80.073157,1.6796875
80.0778782,1.630859375
80.1113426,1.5869140625
80.1333069,1.552734375
80.1393908,1.5185546875
80.1845494,1.50390625
80.1851714,1.474609375
80.1952315,1.4453125
80.2303302,1.4111328125
80.2516221,1.3720703125
80.2594673,1.3330078125
80.299699,1.3037109375
80.300101,1.259765625
80.350289,1.220703125
80.3505845,1.1865234375
80.3588992,1.15234375
80.3911395,1.0888671875
80.3963448,1.03515625
80.4296583,1.0205078125
80.4509426,1.0009765625
80.457769,0.9912109375
80.506222,0.9716796875
80.5064888,0.95703125
80.5356025,0.9326171875
80.5401232,0.9228515625
80.5737733,0.9033203125
80.5759033,0.888671875
80.6111594,0.8642578125
80.6323643,0.83984375
80.638431,0.8251953125
80.6896177,0.888671875
80.6899108,1.044921875
80.7182374,1.23046875
80.7202421,1.4013671875
80.7371391,1.5234375
80.7718505,1.6259765625
80.7939556,1.689453125
80.7991719,1.7333984375
80.8412072,1.7431640625
80.8415201,1.748046875
80.8748204,1.7333984375
80.8943102,1.6943359375
80.8965541,1.6455078125
80.9312592,1.5966796875
80.9527671,1.5576171875
80.9608359,1.5283203125
80.9803062,1.513671875
80.9998538,1.484375
81.0474018,1.455078125
81.0475892,1.416015625
81.0620382,1.3916015625
81.0757299,1.3427734375
81.1109012,1.3037109375
81.1437892,1.2548828125
81.1440892,1.2158203125
81.1594297,1.1767578125
81.2031671,1.142578125
81.2035393,1.103515625
81.2199743,1.07421875
81.2531957,1.0400390625
81.2745569,1.025390625
81.2797478,0.99609375
81.2984664,0.986328125
81.333825,0.9765625
81.3380777,0.95703125
81.3744193,0.947265625
81.4070055,0.927734375
81.407396,0.908203125
81.4221009,0.87890625
81.4590649,0.8544921875
81.4593402,0.830078125
81.5089911,0.8349609375
81.5092829,0.91796875
81.5203759,1.09375
81.5557438,1.2841796875
81.5607894,1.455078125
81.595189,1.5673828125
81.6170949,1.640625
81.6217855,1.689453125
81.638133,1.7041015625
81.6593176,1.7236328125
81.6960861,1.7138671875
81.7004359,1.6943359375
81.720295,1.6455078125
81.7685318,1.5966796875
81.7688283,1.552734375
81.783407,1.5185546875
81.7996082,1.494140625
81.8362388,1.4794921875
81.8365454,1.46484375
81.8785856,1.4453125
81.9101974,1.416015625
81.9105112,1.376953125
81.9200449,1.328125
81.9703366,1.2890625
81.970627,1.25
81.977521,1.2060546875
82.0122308,1.1669921875
82.0335724,1.1279296875
82.0396227,1.103515625
82.0751184,1.07421875
82.1063258,1.0546875
82.1066324,1.025390625
82.1215344,0.99609375
82.1576391,0.9765625
82.1626057,0.9619140625
82.1804937,0.9375
82.2001078,0.927734375
82.2414139,0.9130859375
82.2421178,0.8984375
82.2621586,0.888671875
82.2963748,0.869140625
82.3003446,0.8935546875
82.3369425,1.0009765625
82.3661728,1.1962890625
82.366357,1.3671875
82.3808251,1.5234375
82.4251742,1.62109375
82.4254639,1.6943359375
82.4418011,1.73828125
82.4623215,1.7724609375
82.5082232,1.7724609375
82.5083993,1.767578125
82.5180975,1.73828125
82.5506434,1.708984375
82.5716499,1.6650390625
82.580806,1.6259765625
82.6196671,1.591796875
82.6512702,1.5576171875
82.6514654,1.533203125
82.6623918,1.513671875
82.6967015,1.4794921875
82.7181458,1.435546875
82.7184433,1.396484375
82.7526495,1.357421875
82.7734395,1.3232421875
82.7802943,1.2744140625
82.8146631,1.2353515625
82.8370481,1.1865234375
82.842452,1.1572265625
82.8650586,1.1279296875
82.8845879,1.064453125
82.9052764,1.0205078125
82.9203201,1.0009765625
82.9610857,0.99609375
82.9777603,0.9814453125
82.9804551,0.9716796875
83.0143699,0.9521484375
83.0434845,0.9375
83.0478138,0.9228515625
83.0627938,0.9033203125
83.0970513,0.87890625
83.0988869,0.869140625
83.1476461,0.8740234375
83.1479843,0.966796875
83.1689746,1.1279296875
83.1817963,1.30859375
83.222592,1.4501953125
83.2229098,1.5673828125
83.2583932,1.650390625
83.2789025,1.69921875
83.2790967,1.728515625
83.301999,1.7431640625
83.3374262,1.7431640625
83.3400102,1.728515625
83.3728902,1.7041015625
83.3926052,1.6552734375
83.4017448,1.6064453125
83.4354815,1.5625
83.4403758,1.54296875
83.4785192,1.5234375
83.4789103,1.4990234375
83.522475,1.4697265625
83.522651,1.4306640625
83.543347,1.4013671875
83.585084,1.3525390625
83.5853422,1.30859375
83.6141908,1.259765625
83.6207435,1.220703125
83.656738,1.181640625
83.6781213,1.1474609375
83.6809503,1.1083984375
83.7027144,1.0693359375
83.7444971,1.03515625
83.744705,1.0107421875
83.7802633,0.9814453125
83.7845307,0.9521484375
83.8010241,0.927734375
83.8203806,0.9130859375
83.857914,0.9033203125
83.89007,0.8984375
83.8904447,0.8837890625
83.9045808,0.859375
83.9242236,0.83984375
83.9463001,0.8251953125
83.9766838,0.849609375
83.9809416,0.95703125
84.0214246,1.15234375
84.0216004,1.3232421875
84.0552106,1.4794921875
84.0759756,1.58203125
84.082369,1.650390625
84.1185323,1.689453125
84.1387748,1.708984375
84.1406297,1.7138671875
84.1750481,1.7138671875
84.1959904,1.6943359375
84.2022959,1.6455078125
84.2368273,1.5966796875
84.2593849,1.552734375
84.2642273,1.5283203125
84.2992775,1.4990234375
84.3034585,1.474609375
84.3384359,1.4453125
84.340132,1.4306640625
84.3789639,1.396484375
84.3830417,1.3720703125
84.4022132,1.328125
84.4413165,1.2890625
84.4416155,1.25
84.4878591,1.2158203125
84.4882123,1.171875
84.5175904,1.142578125
84.5241444,1.11328125
84.5432454,1.0546875
84.5791363,1.0400390625
84.5811017,1.025390625
84.6150618,1.005859375
84.6370536,0.9912109375
84.6439088,0.986328125
84.6878143,0.9765625
84.6882887,0.9619140625
84.7027429,0.947265625
84.72135,0.9375
84.75828,0.9228515625
84.7809416,0.91796875
84.7851072,0.9375
84.8045965,1.0546875
84.8406415,1.2353515625
84.8592839,1.3916015625
84.8653423,1.5234375
84.8831707,1.611328125
84.9023878,1.6845703125
84.9446069,1.71875
84.9449048,1.748046875
84.9643547,1.7529296875
85.0009446,1.748046875
85.0063719,1.7138671875
85.0423991,1.6748046875
85.0425744,1.630859375
85.082373,1.5966796875
85.0826613,1.572265625
85.1166942,1.5478515625
85.1384773,1.5185546875
85.1424074,1.50390625
85.175085,1.4794921875
85.1952836,1.435546875
85.2041238,1.396484375
85.2389015,1.34765625
85.2449635,1.3134765625
85.2654069,1.26953125
85.2833263,1.23046875
85.3176106,1.1865234375
85.3372469,1.1474609375
85.3442059,1.11328125
85.3788009,1.083984375
85.4002324,1.044921875
85.407325,0.99609375
85.4233614,0.9521484375
85.4445467,0.95703125
85.4633428,0.9521484375
85.4867031,0.9375
85.5042537,0.927734375
85.5391645,0.9130859375
85.5595022,0.908203125
85.5657269,0.8837890625
85.6029646,0.869140625
85.6199513,0.8740234375
85.6223608,0.9814453125
85.6561189,1.15234375
85.677394,1.3330078125
85.6844258,1.4697265625
85.7273056,1.5771484375
85.7276089,1.6455078125
85.7462469,1.7041015625
85.7635606,1.7236328125
85.799809,1.748046875
85.8020973,1.7529296875
85.8360066,1.7333984375
85.8569638,1.69921875
85.863244,1.650390625
85.8990421,1.6015625
85.9355146,1.5576171875
85.9358749,1.5283203125
85.9439243,1.50390625
85.9799493,1.4892578125
85.9818623,1.4599609375
86.0170294,1.4208984375
86.0389049,1.3818359375
86.0458219,1.3427734375
86.0806126,1.298828125
86.085831,1.25
86.1320393,1.2060546875
86.1322623,1.1572265625
86.1422353,1.1279296875
86.1752456,1.09375
86.1954841,1.064453125
86.2044574,1.0302734375
86.2554086,1.0009765625
86.255589,0.9716796875
86.2663773,0.947265625
86.3037955,0.9228515625
86.3079205,0.8984375
86.3242974,0.8740234375
86.3454043,0.8740234375
86.3810585,0.859375
86.3835399,0.8447265625
86.4301717,0.8203125
86.4304657,0.8154296875
86.459722,0.8447265625
86.4711122,0.9521484375
86.4876956,1.142578125
86.5039348,1.318359375
86.5403174,1.474609375
86.5455145,1.58203125
86.5806835,1.66015625
86.6096333,1.69921875
86.6098061,1.71875
86.6276109,1.7236328125
86.6476497,1.71875
86.6645677,1.689453125
86.7028061,1.650390625
86.7031028,1.5966796875
86.7381325,1.552734375
86.7574575,1.5283203125
86.7661566,1.4990234375
86.8017926,1.4794921875
86.806566,1.4501953125
86.842868,1.42578125
86.8430436,1.38671875
86.8776784,1.3525390625
86.8996308,1.3134765625
86.9044824,1.26953125
86.9456521,1.2255859375
86.9458502,1.19140625
86.9804557,1.15234375
87.0014795,1.11328125
87.0035659,1.07421875
87.0393241,1.0498046875
87.0704951,0.99609375
87.0707959,0.986328125
87.0855253,0.9716796875
87.1066371,0.9521484375
87.1424313,0.9423828125
87.1466735,0.927734375
87.1897227,0.9130859375
87.1900085,0.8984375
87.23527,0.87890625
87.2356199,0.8544921875
87.2434484,0.8447265625
87.2766894,0.859375
87.2979287,0.95703125
87.3069128,1.1279296875
87.3413408,1.318359375
87.3753576,1.46484375
87.375531,1.58203125
87.3877677,1.6650390625
87.4205851,1.69921875
87.4250617,1.7333984375
87.4599275,1.748046875
87.4849277,1.7529296875
87.4868888,1.728515625
87.5232813,1.689453125
87.5284464,1.640625
87.5640546,1.6015625
87.5642866,1.5673828125
87.6082677,1.54296875
87.6084479,1.5234375
87.6264334,1.50390625
87.6630593,1.474609375
87.6656329,1.4404296875
87.6986105,1.4013671875
87.7185907,1.3623046875
87.7276757,1.3232421875
87.746071,1.279296875
87.78247,1.2451171875
87.7873106,1.2060546875
87.8240107,1.171875
87.8282445,1.142578125
87.8640951,1.1181640625
87.8682173,1.0888671875
87.9025348,1.0595703125
87.9074634,1.0302734375
87.9452818,1.005859375
87.9454597,0.986328125
87.9655978,0.9814453125
87.998961,0.9619140625
88.0205879,0.9423828125
88.0290101,0.927734375
88.0690053,0.9033203125
88.0692093,0.888671875
88.1056584,0.87890625
88.1097922,0.9423828125
88.1257666,1.083984375
88.161372,1.2744140625
88.1658935,1.42578125
88.2030232,1.5478515625
88.2228248,1.6259765625
88.2288126,1.689453125
88.2648992,1.7236328125
88.2691666,1.748046875
88.2856947,1.748046875
88.322133,1.7431640625
88.3273569,1.708984375
88.3646992,1.6796875
88.3648932,1.630859375
88.4057694,1.58203125
88.4423373,1.5478515625
88.4426785,1.5185546875
88.4492722,1.4990234375
88.4658048,1.4697265625
88.4868922,1.4453125
88.5090364,1.4111328125
88.5283916,1.376953125
88.5698905,1.3427734375
88.5700657,1.298828125
88.6073373,1.2548828125
88.6077173,1.2060546875
88.6255479,1.162109375
88.6464272,1.1328125
88.688448,1.103515625
88.6886307,1.0693359375
88.7346979,1.0400390625
88.7348715,1.015625
88.7470766,1.0009765625
88.7971884,0.9765625
88.7974367,0.9619140625
88.8269711,0.9423828125
88.8288766,0.927734375
88.8734669,0.908203125
88.8736415,0.8935546875
88.8878652,0.869140625
88.9214457,0.8544921875
88.9413605,0.8544921875
88.9484691,0.9423828125
88.9826214,1.09375
89.0054547,1.2841796875
89.0113212,1.4306640625
89.0268157,1.5380859375
89.063173,1.630859375
89.0685456,1.6796875
89.0892191,1.708984375
89.1279212,1.71875
89.1281012,1.71875
89.1649908,1.69921875
89.1702561,1.66015625
89.1888455,1.6064453125
89.2240904,1.5576171875
89.2283274,1.5234375
89.2659291,1.50390625
89.2685254,1.4794921875
89.313283,1.455078125
89.3136303,1.42578125
89.3307348,1.3916015625
89.3761901,1.357421875
89.3765187,1.318359375
89.389084,1.279296875
89.4083378,1.23046875
89.4558043,1.19140625
89.4561907,1.15234375
89.4711689,1.11328125
89.4899164,1.07421875
89.514939,1.03515625
89.5420975,1.0009765625
89.5498703,0.95703125
89.5862853,0.9130859375
89.5865905,0.9130859375
89.6223088,0.908203125
89.6445806,0.9130859375
89.6490246,0.91796875
89.6846489,0.9033203125
89.7049688,0.8935546875
89.7114955,0.87890625
89.7479327,0.859375
89.7482335,0.8544921875
89.7818277,0.908203125
89.8027013,1.044921875
89.8092142,1.2353515625
89.8431185,1.396484375
89.8627302,1.5380859375
89.8704077,1.6259765625
89.9118813,1.689453125
89.9122697,1.708984375
89.9416058,1.7333984375
89.9499709,1.7431640625
89.9686916,1.7236328125
90.003073,1.6845703125
90.0353676,1.630859375
90.0357071,1.58203125
90.0519163,1.5478515625
90.087666,1.5185546875
90.0880678,1.494140625
90.1217178,1.474609375
90.1428483,1.455078125
90.1494422,1.435546875
90.1871269,1.4013671875
90.1912025,1.3623046875
90.2280368,1.318359375
90.2333231,1.2744140625
90.2483956,1.23046875
90.2673252,1.1962890625
90.3026036,1.1669921875
90.3249911,1.1279296875
90.3304938,1.103515625
90.3640095,1.07421875
90.3859031,1.044921875
90.3903169,1.015625
90.4112196,0.99609375
90.4578156,0.9765625
90.4579909,0.9716796875
90.4673166,0.9521484375
90.5006022,0.9423828125
90.5214269,0.9228515625
90.5317163,0.91796875
90.5506243,0.908203125
90.5987802,0.927734375
90.5989771,1.0400390625
90.6120813,1.1962890625
90.6469853,1.3671875
90.6472877,1.4990234375
90.6815187,1.6064453125
90.7028329,1.6650390625
90.7116519,1.7138671875
90.7509964,1.7333984375
90.7511684,1.748046875
90.7959465,1.7333984375
90.7961691,1.708984375
90.8163195,1.6552734375
90.8305882,1.62109375
90.8674457,1.5771484375
90.8676537,1.5478515625
90.904691,1.5185546875
90.9261826,1.494140625
90.9324425,1.474609375
90.9516333,1.4453125
90.9973744,1.4111328125
90.997871,1.3720703125
91.0077356,1.328125
91.0423398,1.2939453125
91.0633841,1.259765625
91.0692896,1.220703125
91.1079468,1.181640625
91.1291282,1.142578125
91.1310491,1.1083984375
91.1480187,1.0791015625
91.1691259,1.0546875
91.1900951,1.0302734375
91.2104592,1.005859375
91.2300417,0.986328125
91.2778164,0.966796875
91.2780466,0.9521484375
91.2931133,0.9375
91.3278262,0.9228515625
91.3325297,0.8984375
91.3672195,0.8837890625
91.397384,0.859375
91.3975564,0.888671875
91.4099107,0.9814453125
91.4449518,1.1669921875
91.4771537,1.3330078125
91.4774533,1.4794921875
91.5012144,1.572265625
91.5135981,1.6455078125
91.5315291,1.6845703125
91.549675,1.728515625
91.5878885,1.7431640625
91.5902926,1.7333984375
91.6233464,1.7138671875
91.6463027,1.6748046875
91.6538696,1.630859375
91.7010878,1.5869140625
91.701421,1.552734375
91.7108619,1.5185546875
91.7306423,1.50390625
91.765293,1.484375
91.7700469,1.455078125
91.8043122,1.4208984375
91.829009,1.38671875
91.8347244,1.3427734375
91.8544668,1.3037109375
91.873058,1.259765625
91.8910107,1.2109375
91.9203874,1.1767578125
91.9316401,1.1376953125
91.9818625,1.1083984375
91.9822411,1.0791015625
91.9920955,1.044921875
92.044409,1.015625
92.0447119,0.9912109375
92.0541305,0.9619140625
92.0743605,0.91796875
92.0901672,0.87890625
92.1108088,0.8837890625
92.1517815,0.87890625
92.1519595,0.869140625
92.1849645,0.8544921875
92.2056678,0.8447265625
92.2125827,0.8349609375
92.2517187,0.869140625
92.2686836,1.005859375
92.2713793,1.1767578125
92.3170532,1.357421875
92.3172475,1.4892578125
92.3472447,1.6015625
92.3514769,1.669921875
92.3888554,1.708984375
92.4144267,1.7236328125
92.4191362,1.7236328125
92.430776,1.7138671875
92.4790808,1.689453125
92.4792608,1.640625
92.5022814,1.591796875
92.5126733,1.552734375
92.5522663,1.5234375
92.5524877,1.50390625
92.5881178,1.4892578125
92.6084875,1.4697265625
92.6107281,1.4404296875
92.6481564,1.416015625
92.6776893,1.376953125
92.6778669,1.3330078125
92.6911606,1.2890625
92.7265063,1.2548828125
92.7460759,1.2158203125
92.7534967,1.1865234375
92.7712429,1.15234375
92.8171106,1.1279296875
92.8173006,1.103515625
92.833318,1.0888671875
92.8682657,1.0693359375
92.8725985,1.0400390625
92.9083741,1.015625
92.9300602,0.9912109375
92.9342673,0.9765625
92.9549057,0.95703125
92.9907084,0.9423828125
92.9910051,0.91796875
93.025779,0.908203125
93.0467524,0.9033203125
93.0527783,0.9375
93.085364,1.0400390625
93.105709,1.2158203125
93.1145201,1.3720703125
93.147689,1.50390625
93.1685442,1.6064453125
93.1710205,1.66015625
93.2116498,1.69921875
93.2118695,1.708984375
93.2313326,1.7236328125
93.2645881,1.708984375
93.2856291,1.6796875
93.29479,1.630859375
93.3309091,1.58203125
93.3311359,1.5380859375
93.3596246,1.5234375
93.3725268,1.50390625
93.4146379,1.494140625
93.4150213,1.474609375
93.4503227,1.455078125
93.4545517,1.42578125
93.5066165,1.396484375
93.5067961,1.3525390625
93.5106097,1.30859375
93.5461996,1.2744140625
93.569408,1.23046875
93.5751262,1.1865234375
93.5941047,1.1474609375
93.6308203,1.11328125
93.6351646,1.0791015625
93.6555941,1.0546875
93.6707802,1.025390625
93.7059568,1.0009765625
93.7261589,0.9521484375
93.7314284,0.95703125
93.7535337,0.947265625
93.7905014,0.9375
93.799504,0.927734375
93.8157274,0.908203125
93.8515919,0.9033203125
93.8558739,0.8935546875
93.8929868,0.927734375
93.8932926,1.0302734375
93.9208003,1.2109375
93.9335336,1.3720703125
93.966357,1.513671875
93.9873407,1.6064453125
93.9935267,1.6845703125
94.0310613,1.71875
94.062331,1.7529296875
94.0627138,1.7626953125
94.0739877,1.7626953125
94.1090998,1.73828125
94.1403609,1.7041015625
94.1406861,1.66015625
94.1557093,1.611328125
94.1998227,1.572265625
94.2000159,1.54296875
94.216367,1.513671875
94.2322371,1.4892578125
94.2659741,1.4599609375
94.2871536,1.4306640625
94.2943484,1.396484375
94.330421,1.357421875
94.3343885,1.318359375
94.3726794,1.2744140625
94.3753927,1.2353515625
94.3946732,1.19140625
94.4133009,1.162109375
94.4488047,1.1328125
94.4530068,1.09375
94.4859076,1.0595703125
94.5055677,1.0205078125
94.5154017,0.99609375
94.558162,0.9716796875
94.5583379,0.95703125
94.5779698,0.9423828125
94.5959571,0.8935546875
94.6311212,0.8740234375
94.6314151,0.8740234375
94.6810404,0.859375
94.6812283,0.8447265625
94.7014654,0.83984375
94.7141667,0.8984375
94.750031,1.0400390625
94.7716845,1.2353515625
94.7784925,1.396484375
94.7953377,1.5087890625
94.8155566,1.6064453125
94.8509953,1.6650390625
94.8550843,1.69921875
94.8752478,1.708984375
94.9121686,1.708984375
94.9320796,1.6845703125
94.9371125,1.6552734375
94.953907,1.6064453125
94.989734,1.5625
95.0092411,1.5234375
95.0142216,1.4990234375
95.0477359,1.4794921875
95.0700372,1.455078125
95.0786342,1.42578125
95.0971835,1.38671875
95.1332247,1.3525390625
95.1334672,1.3134765625
95.1743636,1.2744140625
95.1747376,1.23046875
95.2113406,1.181640625
95.2162847,1.1376953125
95.2578097,1.0986328125
95.2579894,1.0595703125
95.2938082,1.025390625
95.2940164,0.986328125
95.3146746,0.9619140625
95.3656583,0.947265625
95.3658689,0.9326171875
95.3744316,0.9130859375
95.4116033,0.9130859375
95.4314068,0.908203125
95.4426394,0.8984375
95.4580426,0.8935546875
95.4787601,0.8740234375
95.497876,0.8544921875
95.5149425,0.83984375
95.5354637,0.859375
95.5763024,0.9326171875
95.5803686,1.0986328125
95.5956081,1.26953125
95.6289009,1.435546875
95.657617,1.5478515625
95.6623672,1.640625
95.6753204,1.689453125
95.7209865,1.71875
95.721165,1.73828125
95.7339277,1.73828125
95.7695412,1.71875
95.7903021,1.6748046875
95.7967464,1.6259765625
95.840324,1.5771484375
95.8407069,1.5478515625
95.8598458,1.5234375
95.8757148,1.50390625
95.9231129,1.4794921875
95.9232869,1.46484375
95.9406203,1.4306640625
95.9571229,1.396484375
95.9782369,1.34765625
95.9982179,1.3037109375
96.0150111,1.259765625
96.0503366,1.2353515625
96.0544486,1.201171875
96.0891948,1.162109375
96.1098094,1.1328125
96.1171158,1.0986328125
96.1521982,1.0791015625
96.1846266,1.0498046875
96.1849205,1.0302734375
96.1998405,1.0009765625
96.2193856,0.95703125
96.2353161,0.9228515625
96.2744379,0.9228515625
96.2747881,0.9130859375
96.3233084,0.908203125
96.3237692,0.888671875
96.3384764,0.8837890625
96.3862421,0.8935546875
96.3866148,0.95703125
96.3998205,1.1181640625
96.416295,1.2841796875
96.436939,1.4501953125
96.4715125,1.5576171875
96.4763963,1.640625
96.5126357,1.6845703125
96.5394617,1.7236328125
96.5397058,1.728515625
96.5758447,1.728515625
96.57623,1.7041015625
96.6182745,1.6748046875
96.6185786,1.630859375
96.6553487,1.5869140625
96.6556369,1.5478515625
96.6919135,1.533203125
96.7129341,1.5185546875
96.7182256,1.4990234375
96.7666289,1.474609375
96.7668332,1.4404296875
96.7871131,1.40625
96.7975984,1.3623046875
96.8171321,1.328125
96.8526692,1.2841796875
96.8577498,1.240234375
96.9107375,1.1962890625
96.9111395,1.15234375
96.9158226,1.1181640625
96.9512001,1.09375
96.9550749,1.064453125
96.9891509,1.0400390625
97.0095641,1.0205078125
97.020832,1.0009765625
97.0388393,0.986328125
97.0749712,0.966796875
97.0778848,0.95703125
97.1269139,0.9375
97.1272396,0.927734375
97.1563033,0.908203125
97.1608914,0.8935546875
97.1777119,0.869140625
97.2164812,0.8837890625
97.2168553,0.9619140625
97.2648796,1.1328125
97.2652161,1.298828125
97.2855261,1.4453125
97.294095,1.552734375
97.329163,1.650390625
97.34878,1.708984375
97.3571568,1.7333984375
97.3908507,1.7431640625
97.4109007,1.73828125
97.4176179,1.728515625
97.4534933,1.689453125
97.4753967,1.640625
97.4756838,1.5869140625
97.5148295,1.552734375
97.5167732,1.5283203125
97.5518174,1.513671875
97.5724803,1.484375
97.5795245,1.455078125
97.6254637,1.4208984375
97.6257605,1.38671875
97.639417,1.3525390625
97.6567937,1.3037109375
97.7019662,1.259765625
97.702256,1.220703125
97.722469,1.1865234375
97.738537,1.1474609375
97.7815633,1.11328125
97.7818713,1.0693359375
97.8162191,1.03515625
97.8166032,1.0009765625
97.8558302,0.9814453125
97.8857773,0.95703125
97.8860633,0.9326171875
97.9061149,0.908203125
97.9191699,0.8984375
97.9547443,0.87890625
97.9605305,0.869140625
98.0089949,0.849609375
98.0091927,0.8203125
98.0198552,0.8056640625
98.0548212,0.791015625
98.0661577,0.8349609375
98.0793123,0.966796875
98.1143816,1.171875
98.1217363,1.34765625
98.140555,1.494140625
98.1845684,1.58203125
98.1847652,1.6455078125
98.1983618,1.6748046875
98.2354293,1.7041015625
98.2357589,1.708984375
98.2728913,1.6943359375
98.2978878,1.6650390625
98.2981795,1.6162109375
98.3313995,1.572265625
98.3538291,1.5234375
98.3604515,1.4892578125
98.3799216,1.4599609375
98.3983999,1.4453125
98.4343355,1.4306640625
98.4392156,1.40625
98.4820977,1.3671875
98.4824045,1.328125
98.5182731,1.2841796875
98.5225457,1.2451171875
98.5396369,1.1962890625
98.5575331,1.15234375
98.5915048,1.11328125
98.6137665,1.083984375
98.6217203,1.0595703125
98.668261,1.025390625
98.6685807,0.99609375
98.6809557,0.966796875
98.7313481,0.947265625
98.7317311,0.9326171875
98.7427503,0.888671875
98.7599779,0.859375
98.807044,0.8642578125
98.8073357,0.869140625
98.8183933,0.8740234375
98.8540266,0.8642578125
98.8745968,0.859375
98.8810173,0.8544921875
98.9170361,0.9130859375
98.9435916,1.07421875
98.9438007,1.25
98.9588068,1.42578125
98.9942811,1.5478515625
99.0147619,1.650390625
99.0188042,1.7041015625
99.0587858,1.73828125
99.0753465,1.7431640625
99.0819805,1.7333984375
99.0988699,1.708984375
99.1319683,1.6845703125
99.1525976,1.6357421875
99.1589426,1.5869140625
99.1928994,1.54296875
99.2157174,1.513671875
99.220894,1.4892578125
99.266893,1.4697265625
99.2670974,1.4453125
99.2837752,1.40625
99.3001529,1.3818359375
99.3196988,1.3427734375
99.345985,1.298828125
99.3612116,1.25
99.4084058,1.2109375
99.4091428,1.171875
99.4221421,1.1376953125
99.4390705,1.0986328125
99.4785054,1.0693359375
99.4788545,1.0400390625
99.5146547,1.025390625
99.5184951,1.005859375
99.5526035,0.9814453125
99.5719904,0.9619140625
99.5832567,0.9423828125
99.6188925,0.9326171875
99.6236379,0.9228515625
99.6437682,0.9130859375
99.6602783,0.888671875
99.7099391,0.8740234375
99.7102707,0.859375
99.7229425,0.8642578125
99.7423586,0.9228515625
99.7922866,1.083984375
99.7925809,1.259765625
99.8025285,1.4306640625
99.8195714,1.5576171875
99.8640491,1.6552734375
99.8643424,1.708984375
99.882077,1.748046875
99.9010917,1.77734375
99.9213917,1.7724609375
99.9421279,1.7578125
99.9788489,1.7138671875
99.9831301,1.66015625
99.9989254,1.6015625
100.0360683,1.5673828125
100.0678557,1.5283203125
100.0680366,1.50390625
100.0795516,1.474609375
100.1243447,1.4501953125
100.1245217,1.4208984375
100.1454618,1.38671875
100.1604603,1.3427734375
100.1952282,1.30859375
100.1986168,1.279296875
100.2422392,1.2353515625
100.260895,1.19140625
100.2612892,1.1474609375
100.3059335,1.11328125
100.3061153,1.083984375
100.327488,1.0498046875
100.3393956,1.0205078125
100.3833342,0.9912109375
100.3837035,0.9326171875
100.4009711,0.9326171875
100.4442267,0.91796875
100.4447505,0.908203125
100.4630616,0.8935546875
100.5054154,0.87890625
100.5057364,0.8642578125
100.5236676,0.8544921875
100.5660683,0.830078125
100.5663587,0.8056640625
100.5805606,0.8251953125
100.6268393,0.9228515625
100.6271784,1.1083984375
100.6414282,1.2890625
100.6759845,1.4501953125
100.6964863,1.5625
100.7043067,1.6455078125
100.7199084,1.6845703125
100.7549959,1.7138671875
100.7752402,1.7138671875
100.7823921,1.7138671875
100.8166071,1.69921875
100.8383272,1.66015625
100.8426975,1.611328125
100.8802254,1.5576171875
100.8859977,1.5234375
100.9011732,1.494140625
100.9219358,1.474609375
100.941844,1.455078125
100.9819016,1.42578125
100.982203,1.3916015625
101.0027088,1.3671875
101.0375294,1.3232421875
101.0596152,1.279296875
101.0598405,1.23046875
101.086561,1.1962890625
101.1059673,1.1572265625
101.1209791,1.123046875
101.1547697,1.083984375
101.1752589,1.0546875
101.1843941,1.025390625
101.2181377,1.0009765625
101.2222137,0.9765625
101.2569422,0.947265625
101.2667118,0.8984375
101.2800392,0.888671875
101.3175597,0.888671875
101.3223817,0.87890625
101.3660495,0.8642578125
101.3664092,0.849609375
101.3830411,0.8349609375
101.4300635,0.8203125
101.4304602,0.830078125
101.4544235,0.8984375
