fs,t,y
51.477261269872905,0.4180049000000001,1.494140625
,0.43884690000000015,1.5283203125
,0.4404773999999998,1.611328125
,0.4766720000000002,1.6943359375
,0.4965492,1.7822265625
,0.5027873,1.875
,0.5376359000000002,1.943359375
,0.5424597000000002,2.01171875
,0.5766277,2.060546875
,0.6064612999999999,2.109375
,0.6068582999999999,2.1337890625
,0.6210211000000001,2.158203125
,0.6690968000000002,2.1533203125
,0.6694933000000001,2.1337890625
,0.6833726000000002,2.0947265625
,0.7177359999999999,2.060546875
,0.7227980999999999,2.0068359375
,0.7623625,1.9677734375
,0.7627608000000001,1.9140625
,0.7808337000000001,1.8798828125
,0.825393,1.8359375
,0.8258051000000002,1.806640625
,0.8424223,1.7724609375
,0.8632203999999999,1.728515625
,0.8982724000000002,1.6943359375
,0.9039345999999999,1.66015625
,0.9403895000000002,1.6259765625
,0.9447334999999999,1.6015625
,0.9789367000000002,1.58203125
,0.9994616999999999,1.5673828125
,1.0024053999999998,1.5625
,1.0417332,1.552734375
,1.0420015999999999,1.5380859375
,1.0756488000000002,1.5234375
,1.0959816999999998,1.5234375
,1.1059548000000001,1.5087890625
,1.1400584,1.50390625
,1.1462952999999998,1.50390625
,1.1627127000000002,1.4990234375
,1.214366,1.533203125
,1.2147584,1.58203125
,1.2237452000000002,1.669921875
,1.2592887,1.7333984375
,1.2640368,1.8212890625
,1.3007206999999998,1.884765625
,1.3051092999999998,1.9580078125
,1.3214929999999998,2.0068359375
,1.3591278999999998,2.0751953125
,1.3638930999999999,2.109375
,1.4025417999999998,2.138671875
,1.4028318999999998,2.1337890625
,1.4478113000000001,2.119140625
,1.4481293000000002,2.080078125
,1.4788336000000002,2.060546875
,1.4856951,2.021484375
,1.5019654,1.9677734375
,1.5363968,1.9384765625
,1.5570222,1.89453125
,1.5624262,1.85546875
,1.6015025999999999,1.8115234375
,1.6039887,1.77734375
,1.6484744999999998,1.73828125
,1.6487927999999998,1.7041015625
,1.6697389999999999,1.6748046875
,1.6828123000000001,1.650390625
,1.7027364999999999,1.62109375
,1.7372999999999998,1.611328125
,1.7581939000000002,1.5869140625
,1.7654367999999998,1.572265625
,1.7855064999999999,1.5625
,1.820706,1.54296875
,1.8267506999999998,1.533203125
,1.8461683999999998,1.513671875
,1.8819209,1.5087890625
,1.8821588999999999,1.494140625
,1.9278243000000002,1.4990234375
,1.9282198,1.50390625
,1.9475802,1.5234375
,1.9660343,1.5478515625
,1.9853285,1.6064453125
,2.0207249000000003,1.6650390625
,2.0408231,1.7431640625
,2.0410645,1.806640625
,2.0742773000000003,1.884765625
,2.0960766,1.943359375
,2.1044590000000003,2.0068359375
,2.1436371999999997,2.05078125
,2.1438983,2.0703125
,2.1632675,2.080078125
,2.1999608000000004,2.0654296875
,2.2209592999999996,2.0361328125
,2.2212338999999997,1.9921875
,2.2697931000000002,1.962890625
,2.2700642999999996,1.9189453125
,2.3001433999999996,1.884765625
,2.3040743,1.8408203125
,2.3417936,1.806640625
,2.3461156,1.767578125
,2.3840746,1.7431640625
,2.3845266,1.7041015625
,2.4032617,1.6845703125
,2.4400380000000004,1.669921875
,2.4447503,1.6455078125
,2.4868480999999996,1.62109375
,2.4870925,1.611328125
,2.5043417999999997,1.611328125
,2.5489534000000003,1.5966796875
,2.5491965,1.5869140625
,2.5690027000000004,1.572265625
,2.5884541,1.5283203125
,2.6052828999999997,1.484375
,2.6249675999999997,1.5185546875
,2.6724178,1.5283203125
,2.6726669999999997,1.54296875
,2.6855734,1.5478515625
,2.7226073,1.5673828125
,2.7277300999999996,1.5966796875
,2.7466311,1.66015625
,2.7809527999999997,1.728515625
,2.8021491000000003,1.7919921875
,2.8024299,1.875
,2.8448840000000004,1.943359375
,2.845129,2.001953125
,2.8903752999999996,2.041015625
,2.8906193,2.080078125
,2.9194560999999997,2.099609375
,2.9287259,2.0947265625
,2.9432932000000003,2.0654296875
,2.9843383,2.0361328125
,2.9846677,1.9970703125
,3.0310487000000004,1.9677734375
,3.0318788000000003,1.9287109375
,3.0451031000000004,1.89453125
,3.0815200999999997,1.8603515625
,3.0867107000000003,1.81640625
,3.1192029999999997,1.787109375
,3.1389039,1.748046875
,3.1434743999999997,1.7333984375
,3.1811315999999996,1.7041015625
,3.1865989,1.6845703125
,3.2049747,1.6552734375
,3.2481447,1.6357421875
,3.248387,1.611328125
,3.2853250000000003,1.6064453125
,3.2857141,1.58203125
,3.3039122,1.5869140625
,3.3237161000000004,1.572265625
,3.358022,1.572265625
,3.3784549999999998,1.5576171875
,3.385777,1.5625
,3.4228159,1.552734375
,3.4255468999999996,1.552734375
,3.4605378,1.5673828125
,3.4805459,1.5966796875
,3.4882254,1.6064453125
,3.5036196000000004,1.689453125
,3.5395038999999997,1.796875
,3.5606761999999996,1.8798828125
,3.5656991,1.962890625
,3.6012554999999997,2.021484375
,3.6213806,2.080078125
,3.6296668,2.1142578125
,3.6487287000000004,2.1435546875
,3.6655732,2.1484375
,3.7159538999999997,2.1484375
,3.7163057000000004,2.12890625
,3.7274152999999997,2.0849609375
,3.7615052999999996,2.0361328125
,3.7675951999999997,1.9873046875
,3.8045970000000002,1.9482421875
,3.8093237,1.8994140625
,3.8279714,1.85546875
,3.8458661999999997,1.8115234375
,3.8861847000000003,1.787109375
,3.8865574,1.748046875
,3.9315825,1.7236328125
,3.9318412,1.6943359375
,3.9476058,1.6650390625
,3.9823885,1.6357421875
,4.0089509,1.6064453125
,4.0092001,1.58203125
,4.0248718,1.58203125
,4.0603197,1.5771484375
,4.0883875,1.5673828125
,4.0887077,1.552734375
,4.1353346,1.5380859375
,4.1355748,1.5283203125
,4.1490663,1.5185546875
,4.1839378,1.5185546875
,4.184396,1.513671875
,4.2271908,1.54296875
,4.2275848,1.5869140625
,4.2462998,1.66015625
,4.2877768,1.7333984375
,4.2880793,1.8212890625
,4.3218645,1.8896484375
,4.3272836,1.953125
,4.3638749,2.01171875
,4.3706037,2.0458984375
,4.3900335,2.0849609375
,4.4061271,2.1044921875
,4.4415092,2.119140625
,4.4467922,2.109375
,4.4934874,2.08984375
,4.4938966,2.0556640625
,4.5229967,2.021484375
,4.5290782,1.9873046875
,4.5662439,1.962890625
,4.5666289,1.9287109375
,4.6018668,1.904296875
,4.6076404,1.8701171875
,4.6469819,1.8310546875
,4.6472211,1.7919921875
,4.6936616,1.7626953125
,4.6939835,1.728515625
,4.7100513,1.689453125
,4.7308265,1.6650390625
,4.7460183,1.6357421875
,4.7804625,1.6259765625
,4.8021932,1.6064453125
,4.8066572,1.6015625
,4.843294,1.58203125
,4.8487864,1.572265625
,4.8926777,1.552734375
,4.8929142,1.54296875
,4.9069837,1.533203125
,4.9440462,1.5380859375
,4.9444401,1.54296875
,4.9881555,1.5673828125
,4.9885468,1.6259765625
,5.0240204,1.6845703125
,5.0271233,1.77734375
,5.0663847,1.85546875
,5.0968282,1.9482421875
,5.0972211,2.0068359375
,5.1063784,2.0751953125
,5.1422033,2.109375
,5.1482534,2.1533203125
,5.1841817,2.158203125
,5.188873,2.16796875
,5.2241186,2.1337890625
,5.228028,2.1044921875
,5.2613877,2.05078125
,5.28238,2.0068359375
,5.287382,1.953125
,5.306906,1.9287109375
,5.3412172,1.8896484375
,5.3609211,1.85546875
,5.3679774,1.81640625
,5.4072731,1.77734375
,5.4076627,1.7431640625
,5.4438783,1.708984375
,5.4635594,1.6845703125
,5.4658836,1.6552734375
,5.5015333,1.640625
,5.5326716,1.62109375
,5.5330597,1.6064453125
,5.5467227,1.5966796875
,5.5827983,1.5966796875
,5.6045651,1.5869140625
,5.6090609,1.5771484375
,5.6455307,1.5771484375
,5.6459203,1.5576171875
,5.6806792,1.5625
,5.7019035,1.5576171875
,5.7073351,1.572265625
,5.7439776,1.5966796875
,5.7494453,1.6455078125
,5.7971492,1.708984375
,5.7975399,1.8017578125
,5.806409,1.8701171875
,5.8411624,1.962890625
,5.8479555,2.021484375
,5.8840353,2.0751953125
,5.887006,2.109375
,5.9219423,2.1337890625
,5.9432587,2.1337890625
,5.950424,2.1240234375
,5.9991949,2.08984375
,5.9994567,2.041015625
,6.011311299999999,2.001953125
,6.0267745999999995,1.9091796875
,6.0638042,1.8896484375
,6.0688151,1.8603515625
,6.088601799999999,1.8359375
,6.1231934,1.8017578125
,6.1453252,1.7724609375
,6.149921900000001,1.7333984375
,6.184978299999999,1.7041015625
,6.206199099999999,1.669921875
,6.209383600000001,1.6552734375
,6.227730899999999,1.6357421875
,6.2659717,1.6162109375
,6.296734000000001,1.6064453125
,6.297043,1.58203125
,6.3111417,1.5673828125
,6.3471183,1.5478515625
,6.352727399999999,1.54296875
,6.3671407,1.5234375
,6.403858400000001,1.5234375
,6.408010600000001,1.5185546875
,6.4294809,1.5234375
,6.465714800000001,1.5283203125
,6.4683603000000005,1.572265625
,6.5139516,1.6357421875
,6.5143412000000005,1.728515625
,6.5448012,1.81640625
,6.545187800000001,1.9091796875
,6.589195699999999,1.982421875
,6.58944,2.0703125
,6.608881800000001,2.12890625
,6.6454272,2.1630859375
,6.648441099999999,2.1923828125
,6.6835852,2.1923828125
,6.7039328000000005,2.1826171875
,6.7068905999999995,2.1484375
,6.744467200000001,2.119140625
,6.7651377,2.0751953125
,6.7681866,2.0361328125
,6.8069823,1.9873046875
,6.8099699000000005,1.943359375
,6.854813099999999,1.8896484375
,6.8551179,1.85546875
,6.884137600000001,1.8017578125
,6.891216999999999,1.7236328125
,6.913317899999999,1.6650390625
,6.928407699999999,1.6015625
,6.9776997000000005,1.6064453125
,6.9779404,1.5966796875
,6.998077,1.591796875
,7.0091997,1.5771484375
,7.0456141,1.5625
,7.065801499999999,1.5380859375
,7.071154399999999,1.5283203125
,7.0885850999999995,1.513671875
,7.1231732999999995,1.5234375
,7.1445056000000005,1.513671875
,7.149584900000001,1.5185546875
,7.1871665,1.50390625
,7.1896848,1.4990234375
,7.2270003,1.4990234375
,7.2468653,1.5380859375
,7.2526484,1.6015625
,7.2679422,1.6796875
,7.3062693,1.787109375
,7.3110444999999995,1.8798828125
,7.353843299999999,1.9580078125
,7.3541822,2.021484375
,7.372347100000001,2.08984375
,7.4147465,2.12890625
,7.415056,2.1630859375
,7.4305456,2.1728515625
,7.4503214,2.177734375
,7.485204700000001,2.158203125
,7.4905784,2.12890625
,7.5245996,2.0849609375
,7.529852999999999,2.041015625
,7.5690957,2.001953125
,7.5985686999999995,1.9482421875
,7.5988068,1.9091796875
,7.6074634,1.865234375
,7.6467618,1.845703125
,7.6471512,1.8115234375
,7.693856500000001,1.77734375
,7.6942653,1.73828125
,7.724173199999999,1.7138671875
,7.7305486000000005,1.669921875
,7.769941599999999,1.6455078125
,7.7719159,1.611328125
,7.8074943999999995,1.5576171875
,7.8106472,1.54296875
,7.8299927,1.54296875
,7.8793641999999995,1.5234375
,7.8797978,1.533203125
,7.8915880000000005,1.5234375
,7.9116398,1.50390625
,7.9551739,1.4892578125
,7.9554154,1.484375
,7.9746253,1.50390625
,7.991081400000001,1.5673828125
,8.0248888,1.669921875
,8.0306433,1.767578125
,8.0807065,1.865234375
,8.0814078,1.943359375
,8.0929793,2.0166015625
,8.1294699,2.0751953125
,8.1344004,2.1435546875
,8.1501891,2.1826171875
,8.1689055,2.2314453125
,8.2040272,2.255859375
,8.2246481,2.2412109375
,8.2312482,2.2265625
,8.2684235,2.1875
,8.2708312,2.158203125
,8.3074164,2.1142578125
,8.3317972,2.0703125
,8.3320443,2.0263671875
,8.3494774,1.9921875
,8.3883078,1.953125
,8.3886991,1.9189453125
,8.4255603,1.8798828125
,8.4472822,1.8408203125
,8.4519819,1.8017578125
,8.4882607,1.7626953125
,8.4885808,1.7236328125
,8.5091708,1.7041015625
,8.5455113,1.6748046875
,8.5509123,1.640625
,8.5726471,1.6162109375
,8.6108538,1.58203125
,8.6114603,1.552734375
,8.6575601,1.5283203125
,8.6578792,1.5185546875
,8.6740959,1.4990234375
,8.7104176,1.50390625
,8.7107883,1.5380859375
,8.7454099,1.6259765625
,8.7657482,1.7138671875
,8.7708527,1.8115234375
,8.8127087,1.884765625
,8.8129696,1.9677734375
,8.8486251,2.0361328125
,8.8539087,2.080078125
,8.8899808,2.12890625
,8.8902198,2.1630859375
,8.9114892,2.2021484375
,8.9522583,2.2021484375
,8.9524982,2.177734375
,8.9713267,2.138671875
,9.0104323,2.08984375
,9.0153119,2.0361328125
,9.0340284,1.9921875
,9.049811,1.9384765625
,9.0921689,1.89453125
,9.0926404,1.8505859375
,9.1129042,1.8017578125
,9.1467258,1.748046875
,9.1531226,1.71875
,9.2019284,1.6845703125
,9.2023438,1.6357421875
,9.2133569,1.5966796875
,9.230561,1.5625
,9.2804981,1.5380859375
,9.2807399,1.513671875
,9.2921026,1.494140625
,9.343097,1.4794921875
,9.343412,1.455078125
,9.3526634,1.435546875
,9.3894705,1.416015625
,9.4217862,1.40625
,9.4220691,1.4453125
,9.4310056,1.513671875
,9.4668985,1.62109375
,9.4871455,1.73828125
,9.4922951,1.826171875
,9.5272533,1.9140625
,9.5470264,1.9775390625
,9.5539912,2.0556640625
,9.5897942,2.0947265625
,9.5944659,2.138671875
,9.612668,2.158203125
,9.646681,2.177734375
,9.6531732,2.16796875
,9.7004157,2.1533203125
,9.700664,2.1044921875
,9.7129455,2.0654296875
,9.7344367,2.01171875
,9.7818002,1.9580078125
,9.7820375,1.8994140625
,9.8024518,1.865234375
,9.8121433,1.826171875
,9.8483456,1.77734375
,9.8527604,1.728515625
,9.8756253,1.6796875
,9.8937134,1.6357421875
,9.9320794,1.5966796875
,9.9368245,1.572265625
,9.9524051,1.54296875
,9.987004,1.5185546875
,9.9928316,1.494140625
,10.0294357,1.4697265625
,10.0320417,1.4501953125
,10.0674446,1.4306640625
,10.0872743,1.4111328125
,10.0939311,1.4013671875
,10.1334004,1.416015625
,10.1338602,1.4599609375
,10.1678679,1.572265625
,10.1729295,1.6796875
,10.2163779,1.8017578125
,10.2166295,1.89453125
,10.2496749,1.9921875
,10.2541494,2.0458984375
,10.2914099,2.1044921875
,10.2918963,2.1337890625
,10.3401073,2.1826171875
,10.3404307,2.1826171875
,10.3539271,2.177734375
,10.3891345,2.1435546875
,10.3943529,2.099609375
,10.427645,2.0458984375
,10.4479368,2.001953125
,10.4552455,1.953125
,10.492181,1.8896484375
,10.4973366,1.8359375
,10.5141372,1.7822265625
,10.5328018,1.73828125
,10.5691022,1.6943359375
,10.5905295,1.66015625
,10.5937125,1.6162109375
,10.6327169,1.58203125
,10.6331083,1.54296875
,10.6703961,1.5087890625
,10.7010735,1.474609375
,10.7015239,1.474609375
,10.7129062,1.46484375
,10.733568,1.4501953125
,10.7533905,1.435546875
,10.7950239,1.416015625
,10.7954159,1.42578125
,10.8256668,1.46484375
,10.8381981,1.5625
,10.8522307,1.6650390625
,10.9023733,1.7822265625
,10.9027682,1.884765625
,10.9229335,1.97265625
,10.9338008,2.041015625
,10.9700992,2.099609375
,10.9908141,2.1337890625
,10.9956705,2.1630859375
,11.0127926,2.16796875
,11.0479907,2.1630859375
,11.0723276,2.1337890625
,11.0725724,2.1044921875
,11.1190862,2.0556640625
,11.1196283,2.001953125
,11.1346044,1.962890625
,11.1701137,1.904296875
,11.1976344,1.85546875
,11.1978791,1.806640625
,11.2154811,1.728515625
,11.2332671,1.650390625
,11.2756867,1.6455078125
,11.2759257,1.62109375
,11.3119405,1.5966796875
,11.3151604,1.5673828125
,11.3537779,1.54296875
,11.354018,1.513671875
,11.4017432,1.494140625
,11.4020853,1.474609375
,11.4335115,1.4453125
,11.433902,1.435546875
,11.4686922,1.42578125
,11.4738667,1.4306640625
,11.5090162,1.455078125
,11.5307253,1.5380859375
,11.5377918,1.6357421875
,11.5885714,1.7529296875
,11.5889644,1.8408203125
,11.5948976,1.943359375
,11.633607,2.01171875
,11.6338583,2.0751953125
,11.6699057,2.109375
,11.6908027,2.1435546875
,11.6958937,2.1435546875
,11.7336793,2.1533203125
,11.7381041,2.12890625
,11.7534836,2.0849609375
,11.7878802,2.0458984375
,11.8097863,1.9970703125
,11.8145017,1.9482421875
,11.8494944,1.8994140625
,11.8710133,1.8603515625
,11.8756025,1.81640625
,11.9153921,1.7626953125
,11.9156333,1.7138671875
,11.9457692,1.6796875
,11.9539397,1.640625
,11.9887191,1.6064453125
,12.0245256,1.572265625
,12.0249174,1.54296875
,12.0370584,1.5185546875
,12.0855565,1.484375
,12.0860319,1.46484375
,12.0976566,1.4453125
,12.1317263,1.42578125
,12.1531418,1.4013671875
,12.1560926,1.4013671875
,12.1915826,1.38671875
,12.1944244,1.396484375
,12.2306821,1.42578125
,12.2573763,1.5283203125
,12.2575923,1.630859375
,12.293578,1.748046875
,12.2939354,1.8408203125
,12.3358153,1.93359375
,12.3360784,1.9921875
,12.3809708,2.0556640625
,12.3812162,2.0947265625
,12.3957208,2.1142578125
,12.4322917,2.1142578125
,12.4373044,2.08984375
,12.4729329,2.0556640625
,12.4736107,2.01171875
,12.522311,1.982421875
,12.5227035,1.9482421875
,12.536508,1.904296875
,12.5855712,1.8701171875
,12.5859582,1.826171875
,12.596983,1.7822265625
,12.6329704,1.73828125
,12.6332536,1.689453125
,12.6684229,1.6552734375
,12.6902445,1.6259765625
,12.6951231,1.5869140625
,12.730318,1.552734375
,12.735705,1.533203125
,12.769602,1.5283203125
,12.789766,1.5087890625
,12.7981559,1.4990234375
,12.8133596,1.4794921875
,12.8497485,1.474609375
,12.8760813,1.455078125
,12.8763197,1.455078125
,12.8973075,1.4404296875
,12.9378982,1.4501953125
,12.9381845,1.4990234375
,12.973713,1.611328125
,12.9939109,1.7138671875
,12.9985103,1.8359375
,13.0343732,1.9287109375
,13.0347747,1.9873046875
,13.0727215,2.0556640625
,13.0781056,2.1044921875
,13.1234504,2.138671875
,13.1237047,2.1533203125
,13.1369915,2.158203125
,13.1584227,2.1337890625
,13.2012615,2.0947265625
,13.2015046,2.0458984375
,13.2329161,2.01171875
,13.2378335,1.97265625
,13.2783831,1.9384765625
,13.2786846,1.89453125
,13.3119714,1.85546875
,13.3179735,1.8212890625
,13.3534267,1.767578125
,13.3583673,1.7236328125
,13.3749981,1.6748046875
,13.4192815,1.650390625
,13.4195241,1.6064453125
,13.4352573,1.5771484375
,13.4718002,1.5478515625
,13.4960596,1.5234375
,13.4963022,1.494140625
,13.5443271,1.474609375
,13.5446445,1.4501953125
,13.5747679,1.4404296875
,13.5752392,1.4306640625
,13.6209544,1.4208984375
,13.6212058,1.4111328125
,13.6370075,1.4599609375
,13.6837179,1.5576171875
,13.6841059,1.66015625
,13.7000911,1.7724609375
,13.7163067,1.865234375
,13.7615106,1.953125
,13.7619187,2.0263671875
,13.7782274,2.0947265625
,13.8235725,2.1337890625
,13.8239569,2.158203125
,13.8384228,2.16796875
,13.8729715,2.1484375
,13.8930199,2.109375
,13.9001106,2.0654296875
,13.9145948,2.01171875
,13.9485294,1.97265625
,13.9695867,1.9384765625
,13.977222,1.8896484375
,14.01557,1.8505859375
,14.0187864,1.8017578125
,14.0571554,1.7578125
,14.0574726,1.708984375
,14.103553699999999,1.6650390625
,14.1038702,1.6162109375
,14.1345724,1.5869140625
,14.134959599999998,1.552734375
,14.180607299999998,1.5283203125
,14.181117100000002,1.494140625
,14.211570600000002,1.474609375
,14.220769700000002,1.4453125
,14.255681599999999,1.4208984375
,14.255996799999998,1.396484375
,14.303949,1.4013671875
,14.3042764,1.396484375
,14.317379899999999,1.38671875
,14.352932299999999,1.3818359375
,14.379487699999999,1.376953125
,14.379845799999998,1.4111328125
,14.426996899999999,1.494140625
,14.427392600000001,1.6162109375
,14.435811600000001,1.728515625
,14.473370500000001,1.845703125
,14.494118400000001,1.93359375
,14.496572,2.01171875
,14.535355299999999,2.0654296875
,14.5398998,2.119140625
,14.558592999999998,2.1435546875
,14.595680600000001,2.158203125
,14.6164016,2.158203125
,14.6169291,2.119140625
,14.657359799999998,2.08984375
,14.657606099999999,1.9970703125
,14.676902599999998,1.97265625
,14.7203561,1.93359375
,14.7206698,1.8994140625
,14.742049000000002,1.85546875
,14.7591714,1.8115234375
,14.7940978,1.767578125
,14.815232900000002,1.7431640625
,14.8156058,1.6943359375
,14.860648099999999,1.669921875
,14.860888200000002,1.640625
,14.882931200000002,1.6064453125
,14.8984168,1.5673828125
,14.918925300000001,1.5478515625
,14.9714742,1.5185546875
,14.971829499999998,1.4892578125
,14.980555800000001,1.46484375
,14.998086,1.4404296875
,15.033516899999999,1.4306640625
,15.038589600000002,1.416015625
,15.059625700000002,1.4111328125
,15.094473099999998,1.396484375
,15.1015251,1.3818359375
,15.1369011,1.3720703125
,15.139237999999999,1.3818359375
,15.1734252,1.4208984375
,15.176295,1.5283203125
,15.2119495,1.6455078125
,15.2321059,1.767578125
,15.237041699999999,1.8798828125
,15.282742899999999,1.9482421875
,15.283009100000001,2.0166015625
,15.303711100000001,2.0654296875
,15.321023100000001,2.109375
,15.3380969,2.119140625
,15.374544199999999,2.12890625
,15.376754600000002,2.1142578125
,15.414176300000001,2.0849609375
,15.437544599999999,2.041015625
,15.4377839,2.001953125
,15.4857044,1.943359375
,15.48609,1.8994140625
,15.5157818,1.845703125
,15.521135300000001,1.767578125
,15.537927,1.6796875
,15.578323300000001,1.6748046875
,15.578712800000002,1.6552734375
,15.6242691,1.62109375
,15.6246604,1.591796875
,15.640663799999999,1.5625
,15.6746424,1.533203125
,15.6954247,1.50390625
,15.7012979,1.484375
,15.7494065,1.455078125
,15.749798899999998,1.4453125
,15.758927100000001,1.4306640625
,15.8102004,1.4208984375
,15.810442900000002,1.4111328125
,15.821028900000002,1.416015625
,15.856564800000001,1.4013671875
,15.862328600000001,1.3916015625
,15.8984321,1.396484375
,15.898842599999998,1.38671875
,15.918792199999999,1.396484375
,15.954419699999999,1.435546875
,15.960444299999999,1.5185546875
,15.998164800000001,1.6259765625
,15.998545100000001,1.7431640625
,16.0422285,1.8408203125
,16.0426126,1.93359375
,16.0633829,1.9921875
,16.0793373,2.0703125
,16.1213139,2.109375
,16.1215563,2.138671875
,16.1398231,2.1435546875
,16.16001,2.1240234375
,16.1960282,2.080078125
,16.2017835,2.0458984375
,16.2225545,2.001953125
,16.2379191,1.9482421875
,16.2795372,1.9140625
,16.2799387,1.8701171875
,16.3248918,1.826171875
,16.3251306,1.7822265625
,16.3394146,1.748046875
,16.375078,1.708984375
,16.4038271,1.6650390625
,16.4042076,1.6259765625
,16.4528584,1.552734375
,16.4532512,1.5283203125
,16.4601042,1.5234375
,16.4978346,1.50390625
,16.5008495,1.4990234375
,16.5339978,1.4892578125
,16.5542828,1.46484375
,16.5619205,1.455078125
,16.582781,1.435546875
,16.6188671,1.42578125
,16.6193178,1.40625
,16.6572002,1.4111328125
,16.6616377,1.4111328125
,16.7019363,1.42578125
,16.7023263,1.455078125
,16.7496366,1.552734375
,16.7499751,1.650390625
,16.7618395,1.767578125
,16.7795713,1.8603515625
,16.7990702,1.9580078125
,16.8362194,2.021484375
,16.8416042,2.1044921875
,16.8894035,2.1630859375
,16.8896483,2.1875
,16.9025382,2.197265625
,16.9367175,2.1826171875
,16.9562782,2.1484375
,16.9596476,2.099609375
,16.9978653,2.0556640625
,16.9981707,2.01171875
,17.0413675,1.9580078125
,17.0417759,1.9091796875
,17.0718726,1.85546875
,17.0824682,1.806640625
,17.1184144,1.7626953125
,17.1186185,1.7138671875
,17.1551439,1.6845703125
,17.1600702,1.6650390625
,17.1957967,1.6259765625
,17.2005645,1.5966796875
,17.2439513,1.5625
,17.2446721,1.54296875
,17.2622794,1.513671875
,17.2963959,1.4990234375
,17.3169699,1.474609375
,17.3220779,1.4599609375
,17.3386187,1.4404296875
,17.375593,1.4453125
,17.3811744,1.435546875
,17.4177673,1.4404296875
,17.4205146,1.4453125
,17.4599917,1.484375
,17.4807637,1.5625
,17.4834204,1.6845703125
,17.5245791,1.796875
,17.5248168,1.884765625
,17.5419182,1.982421875
,17.5856342,2.060546875
,17.5858723,2.119140625
,17.6027485,2.158203125
,17.6484127,2.1923828125
,17.6486621,2.2021484375
,17.662861,2.1923828125
,17.6801883,2.158203125
,17.7245323,2.119140625
,17.7248898,2.0751953125
,17.741751,2.0263671875
,17.7776302,1.9677734375
,17.7829396,1.9189453125
,17.8025602,1.875
,17.8368238,1.81640625
,17.8565778,1.767578125
,17.8588844,1.7236328125
,17.8954371,1.6943359375
,17.9152979,1.6552734375
,17.9205373,1.6259765625
,17.9550467,1.5966796875
,17.9746126,1.5673828125
,17.9825066,1.5380859375
,18.0197192,1.5185546875
,18.0201162,1.4892578125
,18.0697226,1.4794921875
,18.0699724,1.474609375
,18.0815388,1.4599609375
,18.1170872,1.435546875
,18.1239198,1.4404296875
,18.1641536,1.435546875
,18.1645451,1.416015625
,18.2092828,1.4208984375
,18.2096734,1.4501953125
,18.2248871,1.533203125
,18.2398616,1.6259765625
,18.2872086,1.7529296875
,18.2881301,1.8505859375
,18.3189242,1.953125
,18.3243043,2.0166015625
,18.3652782,2.0849609375
,18.3656708,2.1240234375
,18.4117587,2.1728515625
,18.411999,2.1728515625
,18.4201768,2.177734375
,18.4559137,2.1630859375
,18.475986,2.1240234375
,18.4816737,2.080078125
,18.5180162,2.0263671875
,18.5240979,1.982421875
,18.5650625,1.9287109375
,18.5653014,1.8798828125
,18.5855882,1.8310546875
,18.6028187,1.796875
,18.6444004,1.748046875
,18.6447891,1.71875
,18.662638,1.669921875
,18.6976826,1.6357421875
,18.7180445,1.5966796875
,18.7230809,1.5673828125
,18.7579234,1.5283203125
,18.7609931,1.5234375
,18.7964789,1.50390625
,18.801928,1.484375
,18.8381285,1.46484375
,18.8435808,1.4501953125
,18.8939899,1.435546875
,18.8945013,1.42578125
,18.9047256,1.4306640625
,18.9203242,1.42578125
,18.9713519,1.4306640625
,18.9716046,1.4599609375
,18.9829078,1.50390625
,19.0166084,1.5869140625
,19.0370928,1.69921875
,19.0445577,1.796875
,19.0942908,1.8896484375
,19.0945782,1.9775390625
,19.1067443,2.03125
,19.1577409,2.0849609375
,19.1581341,2.119140625
,19.1617045,2.158203125
,19.203397,2.158203125
,19.2037834,2.1484375
,19.2350129,2.109375
,19.2444093,2.0703125
,19.2803982,2.0166015625
,19.2861597,1.9775390625
,19.3002982,1.9189453125
,19.3395139,1.884765625
,19.3445626,1.8359375
,19.3793536,1.7919921875
,19.3826034,1.7431640625
,19.4184142,1.71875
,19.4387469,1.6845703125
,19.4442461,1.6455078125
,19.4798708,1.611328125
,19.511756,1.58203125
,19.5119965,1.5625
,19.5218004,1.54296875
,19.5573153,1.5234375
,19.5775788,1.50390625
,19.5835608,1.4892578125
,19.6204018,1.4697265625
,19.6251727,1.4599609375
,19.6428672,1.435546875
,19.6835195,1.4453125
,19.6837714,1.435546875
,19.7172654,1.4306640625
,19.7386792,1.4501953125
,19.7449156,1.4990234375
,19.7929199,1.5869140625
,19.7931739,1.689453125
,19.8072503,1.8017578125
,19.8264598,1.884765625
,19.8479423,1.9287109375
,19.8628091,1.962890625
,19.8829873,2.0556640625
,19.9192899,2.119140625
,19.9245782,2.177734375
,19.9644206,2.1875
,19.9943086,2.1826171875
,19.9945451,2.1533203125
,20.0062699,2.119140625
,20.0230181,2.0703125
,20.0591807,2.0458984375
,20.0642178,2.01171875
,20.1011505,1.962890625
,20.1063399,1.9189453125
,20.1493303,1.875
,20.149719,1.826171875
,20.1663065,1.77734375
,20.2008038,1.7333984375
,20.2213471,1.6845703125
,20.2247538,1.6552734375
,20.2442639,1.6259765625
,20.2891769,1.5966796875
,20.2895753,1.5673828125
,20.3063805,1.552734375
,20.3263175,1.5234375
,20.3614933,1.50390625
,20.3825118,1.494140625
,20.3827563,1.474609375
,20.4175453,1.46484375
,20.4390751,1.46484375
,20.4463497,1.46484375
,20.4923673,1.4697265625
,20.4927681,1.5087890625
,20.5058098,1.5869140625
,20.540559,1.6943359375
,20.5613482,1.796875
,20.564354,1.9091796875
,20.6011827,1.9921875
,20.6044601,2.0751953125
,20.6446442,2.1337890625
,20.6448897,2.1875
,20.6810414,2.216796875
,20.6862598,2.2509765625
,20.7228145,2.2412109375
,20.727225,2.2265625
,20.7481954,2.1484375
,20.7637996,2.109375
,20.7990348,2.0751953125
,20.821434,2.0361328125
,20.8260321,1.9921875
,20.8629101,1.9384765625
,20.8679503,1.8896484375
,20.8875882,1.8408203125
,20.9274593,1.7919921875
,20.9277761,1.7431640625
,20.9449215,1.71875
,20.9899077,1.689453125
,20.9902265,1.66015625
,21.0061831,1.640625
,21.0261702,1.6064453125
,21.0599197,1.5771484375
,21.0824178,1.5478515625
,21.0873984,1.5234375
,21.1037454,1.4892578125
,21.1461705,1.4794921875
,21.1464915,1.46484375
,21.1916641,1.455078125
,21.1922268,1.4306640625
,21.2067902,1.4306640625
,21.2549622,1.42578125
,21.2552011,1.474609375
,21.2638846,1.5478515625
,21.3009928,1.669921875
,21.3042066,1.7724609375
,21.3244465,1.8896484375
,21.3618371,1.982421875
,21.3643591,2.05078125
,21.4009883,2.119140625
,21.4221768,2.16796875
,21.4270414,2.20703125
,21.4441382,2.2265625
,21.4850352,2.2412109375
,21.4852867,2.2314453125
,21.5211194,2.197265625
,21.5264292,2.1533203125
,21.5620856,2.1044921875
,21.5648327,2.0556640625
,21.5993856,2.0068359375
,21.6206665,1.953125
,21.6283441,1.8994140625
,21.6493552,1.85546875
,21.6664066,1.7919921875
,21.7015674,1.7529296875
,21.7062894,1.7041015625
,21.7402212,1.669921875
,21.7606301,1.62109375
,21.7683257,1.5869140625
,21.8128911,1.54296875
,21.8132782,1.513671875
,21.8242787,1.4794921875
,21.8748179,1.4697265625
,21.8751942,1.4453125
,21.9042105,1.435546875
,21.9073766,1.4111328125
,21.9438118,1.3916015625
,21.9489948,1.3671875
,21.9981843,1.3671875
,21.9984218,1.3623046875
,22.0037902,1.376953125
,22.0395154,1.455078125
,22.0617964,1.552734375
,22.0663356,1.6748046875
,22.1011222,1.77734375
,22.1209233,1.875
,22.1274649,1.953125
,22.1646053,2.021484375
,22.1651854,2.0751953125
,22.2135276,2.1337890625
,22.2138339,2.158203125
,22.2250133,2.1728515625
,22.2746009,2.1728515625
,22.2749588,2.138671875
,22.2952767,2.0947265625
,22.3086842,2.0361328125
,22.3520349,1.982421875
,22.3525536,1.923828125
,22.364535,1.8896484375
,22.3985074,1.8359375
,22.4178463,1.7919921875
,22.4268664,1.7431640625
,22.4635994,1.69921875
,22.4681283,1.650390625
,22.4893297,1.6357421875
,22.5242077,1.591796875
,22.5289751,1.5576171875
,22.5465958,1.5234375
,22.5662185,1.50390625
,22.6001465,1.4794921875
,22.6215427,1.46484375
,22.6262732,1.4453125
,22.6616716,1.42578125
,22.6822247,1.4111328125
,22.6893843,1.3916015625
,22.726338,1.3818359375
,22.7266041,1.3623046875
,22.771745,1.3623046875
,22.7719822,1.3623046875
,22.7883213,1.3818359375
,22.825129,1.4208984375
,22.8280136,1.5087890625
,22.8632398,1.6064453125
,22.8693196,1.7236328125
,22.8852467,1.806640625
,22.9199484,1.904296875
,22.9414733,1.9921875
,22.9478711,2.0458984375
,22.9867692,2.099609375
,22.9870313,2.12890625
,23.0067251,2.158203125
,23.0424108,2.1435546875
,23.0640429,2.119140625
,23.0642919,2.080078125
,23.1016848,2.05078125
,23.121574,2.0068359375
,23.1290602,1.97265625
,23.1470306,1.923828125
,23.1889652,1.8798828125
,23.1893315,1.8310546875
,23.2189207,1.7919921875
,23.2258625,1.73828125
,23.2614111,1.7138671875
,23.2712055,1.6796875
,23.2864584,1.5966796875
,23.3283826,1.5869140625
,23.3287887,1.5673828125
,23.3602948,1.552734375
,23.3681724,1.5234375
,23.4050188,1.50390625
,23.4102789,1.4794921875
,23.4509977,1.4599609375
,23.451314,1.4404296875
,23.4818847,1.435546875
,23.4888678,1.4208984375
,23.5081288,1.42578125
,23.5443832,1.416015625
,23.5750937,1.4306640625
,23.5754944,1.4892578125
,23.5901663,1.572265625
,23.62656,1.6845703125
,23.62696,1.77734375
,23.6666009,1.89453125
,23.6668472,1.97265625
,23.6872868,2.0556640625
,23.7230197,2.109375
,23.7273888,2.158203125
,23.777438,2.1875
,23.7778321,2.2119140625
,23.7863213,2.1923828125
,23.8219288,2.177734375
,23.8424772,2.1337890625
,23.8476141,2.0947265625
,23.8702776,2.041015625
,23.9041381,1.9970703125
,23.90957,1.943359375
,23.9439043,1.884765625
,23.9659004,1.826171875
,23.9661385,1.77734375
,24.0011374,1.73828125
,24.0218105,1.6943359375
,24.0264592,1.6650390625
,24.0639783,1.62109375
,24.0889573,1.58203125
,24.0893091,1.5478515625
,24.1346154,1.513671875
,24.134854,1.4794921875
,24.1512155,1.4208984375
,24.1693657,1.357421875
,24.2146405,1.3720703125
,24.2152013,1.3818359375
,24.2293239,1.3720703125
,24.2756768,1.3671875
,24.2759192,1.357421875
,24.2918561,1.3623046875
,24.3377872,1.3720703125
,24.3381065,1.435546875
,24.3495327,1.5283203125
,24.3683774,1.6650390625
,24.388876,1.77734375
,24.4231254,1.8896484375
,24.443161,1.97265625
,24.4516317,2.0556640625
,24.471585,2.109375
,24.5066752,2.1630859375
,24.5069243,2.1875
,24.5410703,2.2265625
,24.5618542,2.2314453125
,24.5694212,2.197265625
,24.6181634,2.158203125
,24.6185904,2.1044921875
,24.6315149,2.05078125
,24.6654739,1.9873046875
,24.6953868,1.93359375
,24.6958149,1.8701171875
,24.7090669,1.8212890625
,24.7571673,1.7724609375
,24.7574579,1.7236328125
,24.7711659,1.6650390625
,24.8198022,1.6259765625
,24.8201986,1.5771484375
,24.8298872,1.54296875
,24.865792,1.5087890625
,24.8859973,1.474609375
,24.886388,1.4599609375
,24.9279365,1.435546875
,24.9281771,1.4208984375
,24.949584,1.396484375
,24.9918394,1.3818359375
,24.9922265,1.3623046875
,25.0206613,1.3525390625
,25.030079,1.337890625
,25.0520314,1.2939453125
,25.0684124,1.2548828125
,25.1031001,1.298828125
,25.1238321,1.3330078125
,25.1288822,1.416015625
,25.1773669,1.513671875
,25.1777981,1.650390625
,25.2085211,1.77734375
,25.2133902,1.875
,25.2543477,1.962890625
,25.2545979,2.0361328125
,25.270003,2.1142578125
,25.3061446,2.1630859375
,25.3090253,2.2021484375
,25.3452556,2.20703125
,25.3660459,2.2021484375
,25.3710058,2.16796875
,25.3912587,2.119140625
,25.4262944,2.0654296875
,25.4304265,2.0263671875
,25.4661376,1.97265625
,25.4681339,1.923828125
,25.5029915,1.8798828125
,25.5239022,1.81640625
,25.5319362,1.7626953125
,25.582148,1.7138671875
,25.5823875,1.6796875
,25.5891557,1.630859375
,25.6097178,1.6064453125
,25.660834,1.5673828125
,25.6611645,1.5478515625
,25.6905996,1.513671875
,25.6908424,1.4892578125
,25.7249799,1.455078125
,25.7458782,1.4404296875
,25.7488101,1.4111328125
,25.7993521,1.40625
,25.7996063,1.3916015625
,25.8104388,1.396484375
,25.8606287,1.3916015625
,25.8608786,1.3818359375
,25.8706263,1.3720703125
,25.90681,1.3671875
,25.9110161,1.3720703125
,25.9482157,1.3916015625
,25.9524855,1.4599609375
,25.9694232,1.5576171875
,26.0142764,1.689453125
,26.0145183,1.8017578125
,26.0354058,1.9091796875
,26.0516939,1.9873046875
,26.0922408,2.0703125
,26.092638,2.1240234375
,26.1388716,2.16796875
,26.1391254,2.197265625
,26.1482164,2.1826171875
,26.1845923,2.16796875
,26.2175716,2.12890625
,26.2178109,2.08984375
,26.2318239,2.0361328125
,26.2518145,1.9873046875
,26.2964796,1.93359375
,26.2967227,1.884765625
,26.316377,1.8310546875
,26.3298473,1.796875
,26.3657272,1.7529296875
,26.3706035,1.7236328125
,26.4071232,1.6796875
,26.4142779,1.6455078125
,26.4321869,1.6064453125
,26.4685389,1.5771484375
,26.4742809,1.552734375
,26.490068,1.5185546875
,26.5293701,1.5087890625
,26.5297418,1.4892578125
,26.5754936,1.4794921875
,26.57574,1.4599609375
,26.5968891,1.4599609375
,26.6141688,1.4453125
,26.6347067,1.435546875
,26.6499737,1.416015625
,26.6987021,1.4208984375
,26.6990648,1.4208984375
,26.7195907,1.435546875
,26.7320034,1.4697265625
,26.7772944,1.552734375
,26.7776828,1.669921875
,26.8252544,1.77734375
,26.8256437,1.8896484375
,26.8336977,1.97265625
,26.8865009,2.05078125
,26.8868937,2.109375
,26.8914888,2.16796875
,26.9323082,2.2021484375
,26.9327121,2.2216796875
,26.9800393,2.20703125
,26.980282,2.177734375
,27.0010384,2.12890625
,27.0157588,2.0849609375
,27.0313255,2.0263671875
,27.0664357,1.9873046875
,27.0729504,1.9384765625
,27.109337,1.9140625
,27.1124807,1.8798828125
,27.1494549,1.826171875
,27.1548654,1.7822265625
,27.1739997,1.7333984375
,27.2106637,1.689453125
,27.2110444,1.6455078125
,27.2592496,1.62109375
,27.2595041,1.5966796875
,27.2727283,1.572265625
,27.3079986,1.54296875
,27.313032,1.5234375
,27.3495451,1.494140625
,27.354828,1.484375
,27.3715984,1.46484375
,27.407077,1.4599609375
,27.410531,1.46484375
,27.4497638,1.455078125
,27.4500814,1.4404296875
,27.4951991,1.4306640625
,27.4954392,1.4501953125
,27.5168293,1.484375
,27.5338958,1.572265625
,27.5515199,1.6748046875
,27.5897385,1.806640625
,27.5901333,1.9091796875
,27.6370495,2.021484375
,27.6374397,2.08984375
,27.6672851,2.1630859375
,27.6727375,2.2021484375
,27.7060658,2.236328125
,27.7268644,2.2412109375
,27.7347464,2.236328125
,27.7705957,2.197265625
,27.7709961,2.1435546875
,27.8049382,2.0947265625
,27.8279218,2.0458984375
,27.8339212,1.9970703125
,27.8690955,1.9482421875
,27.873712,1.89453125
,27.9165477,1.8408203125
,27.9167866,1.7919921875
,27.9374426,1.7626953125
,27.9517769,1.73828125
,27.9946667,1.708984375
,27.9950597,1.6748046875
,28.0133335,1.640625
,28.0490877,1.6064453125
,28.0551126,1.5869140625
,28.0907716,1.5478515625
,28.1210411,1.5185546875
,28.121435,1.4990234375
,28.1322768,1.4990234375
,28.1670232,1.484375
,28.1980104,1.474609375
,28.1984036,1.4599609375
,28.2149351,1.4501953125
,28.2602941,1.42578125
,28.260682,1.42578125
,28.2900373,1.40625
,28.2902853,1.4208984375
,28.3256972,1.42578125
,28.3469031,1.474609375
,28.3546058,1.5478515625
,28.3744534,1.669921875
,28.3948059,1.787109375
,28.4315876,1.8896484375
,28.4608567,1.9921875
,28.4610957,2.0654296875
,28.4754749,2.0849609375
,28.4921618,2.1044921875
,28.5387527,2.177734375
,28.5389947,2.2119140625
,28.5602056,2.2216796875
,28.5755259,2.197265625
,28.6169387,2.1533203125
,28.6173249,2.1044921875
,28.6587827,2.0556640625
,28.6592397,2.001953125
,28.67288,1.9580078125
,28.7060195,1.9189453125
,28.7266794,1.8701171875
,28.7348198,1.8212890625
,28.7821529,1.7724609375
,28.7825046,1.7236328125
,28.7948524,1.6796875
,28.8301918,1.6357421875
,28.8595762,1.5966796875
,28.8598287,1.5771484375
,28.8724907,1.552734375
,28.9075261,1.5380859375
,28.928532,1.5087890625
,28.934193,1.4892578125
,28.984728,1.4697265625
,28.985228,1.455078125
,28.9933499,1.435546875
,29.029857,1.4404296875
,29.0345299,1.4404296875
,29.069841,1.42578125
,29.0741178,1.4208984375
,29.1110418,1.40625
,29.1413329,1.40625
,29.1416451,1.4208984375
,29.1579867,1.4990234375
,29.1715646,1.5771484375
,29.2184043,1.69921875
,29.2187974,1.81640625
,29.2496298,1.923828125
,29.2542239,2.0068359375
,29.2948625,2.0947265625
,29.2951468,2.1435546875
,29.3412492,2.1875
,29.3414943,2.2216796875
,29.3617016,2.2216796875
,29.3783425,2.2021484375
,29.3934306,2.1630859375
,29.4338804,2.1337890625
,29.4344873,2.080078125
,29.4546528,2.03125
,29.4960395,1.9677734375
,29.4962811,1.9189453125
,29.5165977,1.8603515625
,29.5511007,1.8115234375
,29.5715748,1.7626953125
,29.5744354,1.7333984375
,29.622983,1.69921875
,29.6233884,1.669921875
,29.6527356,1.630859375
,29.6577337,1.62109375
,29.6758998,1.5966796875
,29.7116586,1.5673828125
,29.7324485,1.54296875
,29.7328436,1.5087890625
,29.7546226,1.4990234375
,29.7908625,1.4892578125
,29.7940852,1.484375
,29.8300808,1.474609375
,29.8363097,1.4599609375
,29.8721488,1.4453125
,29.8765217,1.435546875
,29.8950894,1.416015625
,29.9321562,1.42578125
,29.9344616,1.42578125
,29.9546327,1.4404296875
,29.9896836,1.494140625
,29.9953443,1.5673828125
,30.041964200000002,1.669921875
,30.042260300000002,1.767578125
,30.057724,1.875
,30.074769099999997,1.953125
,30.1094576,2.041015625
,30.114714499999998,2.099609375
,30.165677600000002,2.1484375
,30.165918599999998,2.1728515625
,30.1776092,2.1923828125
,30.213803499999997,2.1728515625
,30.216292199999998,2.138671875
,30.259898300000003,2.0849609375
,30.2601521,2.0361328125
,30.2728288,1.9775390625
,30.320720700000003,1.953125
,30.3209625,1.9140625
,30.3416322,1.865234375
,30.357549400000003,1.81640625
,30.3997817,1.767578125
,30.4001363,1.7236328125
,30.4172139,1.6796875
,30.452514800000003,1.6455078125
,30.4789959,1.6064453125
,30.4793381,1.58203125
,30.495466399999998,1.5576171875
,30.532271899999998,1.5283203125
,30.5367101,1.5087890625
,30.572518000000002,1.494140625
,30.577209099999997,1.474609375
,30.6165175,1.4599609375
,30.616762799999997,1.455078125
,30.6370954,1.42578125
,30.655195399999997,1.4208984375
,30.691605699999997,1.4111328125
,30.6957903,1.4208984375
,30.716977300000003,1.4111328125
,30.7577858,1.42578125
,30.7581768,1.4501953125
,30.7870061,1.5185546875
,30.793958500000002,1.5966796875
,30.8297016,1.7138671875
,30.8379271,1.81640625
,30.8737322,1.9189453125
,30.8740794,1.9970703125
,30.912229099999998,2.060546875
,30.944696800000003,2.1044921875
,30.9450978,2.1484375
,30.958559,2.16796875
,30.975585700000003,2.158203125
,31.0139474,2.1435546875
,31.0143226,2.1044921875
,31.0542844,2.060546875
,31.0863624,2.001953125
,31.0866641,1.9580078125
,31.097878199999997,1.904296875
,31.147167600000003,1.85546875
,31.1474841,1.8017578125
,31.1586798,1.748046875
,31.1761422,1.69921875
,31.211024700000003,1.6845703125
,31.215322200000003,1.6552734375
,31.2515808,1.6259765625
,31.2740037,1.6064453125
,31.2785588,1.5673828125
,31.318600099999998,1.5380859375
,31.318941100000004,1.513671875
,31.365138199999997,1.4990234375
,31.3654529,1.474609375
,31.376328,1.4697265625
,31.413247900000002,1.455078125
,31.4180536,1.4453125
,31.457776699999997,1.42578125
,31.4582269,1.42578125
,31.4793649,1.40625
,31.520410499999997,1.40625
,31.520654899999997,1.396484375
,31.5355881,1.4111328125
,31.583136000000003,1.4306640625
,31.583462500000003,1.5087890625
,31.613630399999998,1.6015625
,31.6183037,1.689453125
,31.653872200000002,1.7919921875
,31.656810900000004,1.8798828125
,31.6937723,1.962890625
,31.720623699999997,2.03125
,31.7208787,2.109375
,31.7372869,2.158203125
,31.7571642,2.1923828125
,31.792943200000003,2.2021484375
,31.797992,2.1923828125
,31.835286600000003,2.1533203125
,31.8397686,2.1142578125
,31.856005099999997,2.05078125
,31.891072899999998,2.01171875
,31.9240183,1.9677734375
,31.924472199999997,1.8603515625
,31.9369595,1.826171875
,31.972171799999998,1.787109375
,32.0018738,1.7578125
,32.0022306,1.708984375
,32.0191535,1.6748046875
,32.0544537,1.630859375
,32.0594625,1.6015625
,32.0762161,1.5576171875
,32.1266226,1.5478515625
,32.1270301,1.5185546875
,32.137798,1.50390625
,32.1732555,1.474609375
,32.2038738,1.455078125
,32.2041998,1.4306640625
,32.2212305,1.435546875
,32.2569633,1.4306640625
,32.2572805,1.4111328125
,32.2968514,1.4111328125
,32.2970541,1.40625
,32.3187235,1.396484375
,32.3394502,1.3916015625
,32.3901168,1.4013671875
,32.3903574,1.4208984375
,32.4017135,1.484375
,32.4165791,1.5576171875
,32.4515609,1.66015625
,32.4723393,1.7529296875
,32.4775995,1.8505859375
,32.5159943,1.9287109375
,32.5204201,2.001953125
,32.5550521,2.0703125
,32.5602616,2.099609375
,32.5983951,2.12890625
,32.5987798,2.1337890625
,32.6406717,2.138671875
,32.6411026,2.109375
,32.6567543,2.0751953125
,32.692062,2.0263671875
,32.7187456,1.9775390625
,32.7191378,1.9189453125
,32.7650255,1.875
,32.7654344,1.8212890625
,32.7809523,1.787109375
,32.7973699,1.689453125
,32.8429343,1.669921875
,32.8433663,1.6357421875
,32.8732618,1.62109375
,32.879236,1.591796875
,32.9014434,1.5576171875
,32.936851,1.5283203125
,32.9420393,1.50390625
,32.9812407,1.474609375
,32.9815937,1.4501953125
,32.9987034,1.455078125
,33.0432905,1.4453125
,33.0437003,1.4404296875
,33.0603613,1.435546875
,33.0954037,1.4306640625
,33.1002737,1.4208984375
,33.1361229,1.435546875
,33.1663765,1.4208984375
,33.1666194,1.4111328125
,33.1793193,1.435546875
,33.1991258,1.4453125
,33.2331133,1.4892578125
,33.253621,1.552734375
,33.2612103,1.6552734375
,33.2816578,1.73828125
,33.3198971,1.826171875
,33.3202949,1.89453125
,33.3550405,1.9775390625
,33.3568648,2.03125
,33.3983466,2.0947265625
,33.4304071,2.119140625
,33.430816,2.1337890625
,33.440702,2.1240234375
,33.4777974,2.0947265625
,33.4783238,2.05078125
,33.4988675,2.0263671875
,33.5382747,1.9873046875
,33.5385149,1.943359375
,33.5728614,1.904296875
,33.5942711,1.865234375
,33.601924,1.826171875
,33.6210365,1.7822265625
,33.6559978,1.7578125
,33.6764914,1.71875
,33.6813933,1.650390625
,33.6980694,1.591796875
,33.7432307,1.5966796875
,33.7436159,1.591796875
,33.7730146,1.5966796875
,33.7791874,1.5869140625
,33.8000806,1.572265625
,33.8420401,1.572265625
,33.8424291,1.552734375
,33.8716274,1.5380859375
,33.8774644,1.5283203125
,33.9148484,1.533203125
,33.9174783,1.5283203125
,33.9522966,1.5283203125
,33.9739697,1.5185546875
,33.9811593,1.513671875
,34.0272722,1.513671875
,34.027592,1.533203125
,34.0391928,1.572265625
,34.0743158,1.66015625
,34.0796916,1.7431640625
,34.1170323,1.826171875
,34.1220077,1.8994140625
,34.1401787,1.982421875
,34.1818899,2.05078125
,34.1822422,2.099609375
,34.2292036,2.138671875
,34.2294426,2.1533203125
,34.2387425,2.16796875
,34.2749375,2.1533203125
,34.2801055,2.1435546875
,34.3180685,2.1044921875
,34.3207549,2.060546875
,34.3572357,2.01171875
,34.3600063,1.9677734375
,34.3976416,1.9189453125
,34.3978926,1.89453125
,34.419472,1.85546875
,34.4557474,1.81640625
,34.4608941,1.7919921875
,34.5079572,1.7529296875
,34.5085164,1.71875
,34.5214715,1.6845703125
,34.5561291,1.6552734375
,34.5764766,1.62109375
,34.5832103,1.6015625
,34.5996519,1.572265625
,34.6465912,1.5771484375
,34.6471314,1.5625
,34.668242,1.5576171875
,34.6810959,1.5380859375
,34.7248182,1.5283203125
,34.725206,1.5087890625
,34.7537197,1.494140625
,34.7591256,1.4794921875
,34.796066,1.4990234375
,34.8015537,1.533203125
,34.8382713,1.5771484375
,34.8414021,1.66015625
,34.8611291,1.73828125
,34.895926,1.826171875
,34.9158104,1.904296875
,34.9243496,1.9873046875
,34.9395382,2.05078125
,34.9748172,2.119140625
,34.9803735,2.16796875
,35.0011974,2.197265625
,35.0374674,2.20703125
,35.0676814,2.20703125
,35.0680667,2.1728515625
,35.083859,2.138671875
,35.1046106,2.099609375
,35.1200074,2.0458984375
,35.160897,2.01171875
,35.1612737,1.9677734375
,35.1904705,1.9384765625
,35.2008385,1.884765625
,35.2364379,1.8408203125
,35.2681371,1.796875
,35.2683822,1.7578125
,35.2797096,1.71875
,35.3177753,1.708984375
,35.3181866,1.6796875
,35.3552619,1.66015625
,35.3604494,1.6357421875
,35.4109947,1.6064453125
,35.4112368,1.572265625
,35.4316455,1.5673828125
,35.4419301,1.552734375
,35.4768426,1.5283203125
,35.4989516,1.5087890625
,35.4993452,1.494140625
,35.5379631,1.4892578125
,35.5427867,1.4794921875
,35.5784172,1.484375
,35.5801324,1.474609375
,35.6195224,1.474609375
,35.6465178,1.4990234375
,35.6467563,1.572265625
,35.6604551,1.650390625
,35.7088151,1.7578125
,35.7091389,1.8505859375
,35.7228638,1.9384765625
,35.7429694,2.0166015625
,35.7773293,2.0703125
,35.7974408,2.119140625
,35.8031258,2.1484375
,35.8490567,2.177734375
,35.849292,2.1728515625
,35.8606645,2.16796875
,35.9118088,2.138671875
,35.9122249,2.1044921875
,35.9223125,2.060546875
,35.9583928,2.021484375
,35.9636655,1.9775390625
,35.9996524,1.93359375
,35.9998908,1.8798828125
,36.0367524,1.8408203125
,36.0398722,1.7919921875
,36.0823508,1.7578125
,36.0827404,1.71875
,36.1121994,1.6796875
,36.1230877,1.6455078125
,36.1428341,1.611328125
,36.1908298,1.5771484375
,36.1911462,1.5478515625
,36.2220188,1.54296875
,36.2223517,1.5234375
,36.2688624,1.513671875
,36.2690995,1.494140625
,36.2833265,1.4794921875
,36.3189562,1.46484375
,36.3239899,1.46484375
,36.3628874,1.4501953125
,36.3632766,1.4453125
,36.4025972,1.4404296875
,36.4028467,1.42578125
,36.4226525,1.4404296875
,36.4578935,1.474609375
,36.4777321,1.5576171875
,36.4830049,1.6357421875
,36.5348271,1.7333984375
,36.5350684,1.81640625
,36.54649,1.904296875
,36.5621724,1.9677734375
,36.5980711,2.041015625
,36.6027307,2.0849609375
,36.6422077,2.1240234375
,36.6424682,2.1337890625
,36.6761225,2.12890625
,36.6967039,2.0947265625
,36.7047339,2.0703125
,36.7408271,2.03125
,36.7412252,1.982421875
,36.7765081,1.9482421875
,36.783213,1.9091796875
,36.8196078,1.8701171875
,36.8250344,1.826171875
,36.8759037,1.7919921875
,36.8761524,1.7529296875
,36.8854144,1.71875
,36.9011574,1.6796875
,36.939179,1.6552734375
,36.9422793,1.630859375
,36.9850766,1.611328125
,36.9853266,1.5869140625
,37.0039803,1.5673828125
,37.0461711,1.552734375
,37.0464286,1.5283203125
,37.0942292,1.5185546875
,37.094482,1.494140625
,37.1057214,1.4501953125
,37.140417,1.4013671875
,37.1409196,1.42578125
,37.1763479,1.435546875
,37.1970079,1.4501953125
,37.2049581,1.4501953125
,37.225171,1.4794921875
,37.2628664,1.513671875
,37.267183,1.6015625
,37.283323,1.6796875
,37.3193085,1.7822265625
,37.3211957,1.8701171875
,37.3610941,1.9775390625
,37.3656752,2.0556640625
,37.3849958,2.109375
,37.4212521,2.1533203125
,37.4241077,2.177734375
,37.4694897,2.1728515625
,37.4697373,2.1630859375
,37.4902314,2.1435546875
,37.505167,2.1142578125
,37.5491659,2.0751953125
,37.5498622,2.03125
,37.5649827,1.9873046875
,37.5992303,1.9384765625
,37.6213727,1.8994140625
,37.6217676,1.8505859375
,37.6594653,1.8212890625
,37.6628483,1.7919921875
,37.6971873,1.7431640625
,37.7174907,1.708984375
,37.7259721,1.669921875
,37.7451434,1.6455078125
,37.7820397,1.611328125
,37.7868727,1.591796875
,37.8018648,1.5625
,37.8437352,1.5576171875
,37.8439809,1.54296875
,37.890103,1.5380859375
,37.8904862,1.5234375
,37.9050831,1.5185546875
,37.9416366,1.4990234375
,37.9462798,1.4892578125
,37.9680884,1.474609375
,37.9877405,1.4453125
,38.0081654,1.435546875
,38.0253888,1.4599609375
,38.059953,1.5869140625
,38.0633352,1.69921875
,38.1091733,1.81640625
,38.1095606,1.9091796875
,38.1258615,2.0068359375
,38.1608175,2.0703125
,38.1665225,2.12890625
,38.1834142,2.158203125
,38.217667,2.1923828125
,38.2382606,2.20703125
,38.2437404,2.20703125
,38.2794408,2.1826171875
,38.2997185,2.138671875
,38.3065004,2.099609375
,38.3548855,2.041015625
,38.3551405,1.9921875
,38.3625085,1.943359375
,38.3992902,1.9140625
,38.4041972,1.875
,38.4257189,1.8359375
,38.4646646,1.7919921875
,38.4648737,1.7529296875
,38.4872873,1.7138671875
,38.5078713,1.6748046875
,38.524003,1.6357421875
,38.5582617,1.611328125
,38.5784138,1.591796875
,38.5835948,1.572265625
,38.6169812,1.54296875
,38.6365085,1.5283203125
,38.6460067,1.513671875
,38.6951422,1.494140625
,38.6953785,1.4794921875
,38.7176699,1.4599609375
,38.7242162,1.4599609375
,38.773351,1.455078125
,38.7737434,1.455078125
,38.783261,1.455078125
,38.8182453,1.46484375
,38.8385188,1.494140625
,38.8472195,1.5625
,38.8835338,1.6455078125
,38.8876868,1.748046875
,38.9040453,1.8310546875
,38.9412369,1.923828125
,38.9463996,2.0068359375
,38.9901125,2.060546875
,38.9904283,2.109375
,39.0073225,2.1337890625
,39.0426956,2.1630859375
,39.0478306,2.1533203125
,39.082577,2.12890625
,39.0828145,2.08984375
,39.1037023,2.0556640625
,39.1403543,2.01171875
,39.1599261,1.97265625
,39.1668747,1.9189453125
,39.2076334,1.875
,39.2080257,1.8212890625
,39.253279,1.77734375
,39.2535224,1.7236328125
,39.262929,1.708984375
,39.2997113,1.6748046875
,39.3195382,1.640625
,39.3238235,1.6064453125
,39.3602622,1.5771484375
,39.3801396,1.552734375
,39.3858635,1.533203125
,39.4236104,1.5185546875
,39.4418257,1.50390625
,39.4466117,1.50390625
,39.4651074,1.494140625
,39.5012345,1.4892578125
,39.5286517,1.4794921875
,39.5288928,1.4794921875
,39.5473783,1.4697265625
,39.5935576,1.46484375
,39.5944606,1.46484375
,39.6234149,1.4599609375
,39.6236609,1.494140625
,39.6574032,1.54296875
,39.6863874,1.6357421875
,39.6867735,1.7138671875
,39.7214841,1.806640625
,39.7254742,1.875
,39.7611722,1.9482421875
,39.7819738,1.9970703125
,39.7876299,2.0458984375
,39.806033,2.0654296875
,39.8564698,2.0947265625
,39.8567141,2.08984375
,39.8682778,2.0703125
,39.8880609,2.03125
,39.9333475,1.9970703125
,39.9336865,1.9580078125
,39.9484,1.9091796875
,39.9848024,1.865234375
,39.9851884,1.8212890625
,40.020755,1.787109375
,40.0410526,1.7578125
,40.0462589,1.728515625
,40.0823403,1.69921875
,40.0886434,1.669921875
,40.1356362,1.640625
,40.13589,1.611328125
,40.1455312,1.572265625
,40.1807441,1.5625
,40.2008412,1.5478515625
,40.2055847,1.533203125
,40.2435403,1.5283203125
,40.2482781,1.5087890625
,40.2897601,1.494140625
,40.2899986,1.4794921875
,40.3236653,1.474609375
,40.3240702,1.4599609375
,40.3603043,1.4697265625
,40.3653245,1.4599609375
,40.4012928,1.4697265625
,40.4315677,1.484375
,40.4318106,1.533203125
,40.4474785,1.5966796875
,40.4835985,1.6845703125
,40.4838362,1.767578125
,40.5040867,1.865234375
,40.5402669,1.93359375
,40.5698088,2.0166015625
,40.5700492,2.0703125
,40.5875302,2.099609375
,40.6228777,2.1240234375
,40.6446496,2.119140625
,40.6470538,2.099609375
,40.6821,2.060546875
,40.7020444,2.03125
,40.7054477,1.9873046875
,40.7411828,1.9580078125
,40.7462628,1.9189453125
,40.7888767,1.8798828125
,40.7892256,1.8359375
,40.8188752,1.806640625
,40.8288516,1.7626953125
,40.8640589,1.728515625
,40.8844226,1.6943359375
,40.8871049,1.6552734375
,40.9269276,1.630859375
,40.9271677,1.6015625
,40.946583,1.5869140625
,40.9822948,1.5625
,41.0026258,1.5478515625
,41.0086914,1.5283203125
,41.0518311,1.513671875
,41.0521503,1.494140625
,41.0682479,1.4990234375
,41.0883057,1.4892578125
,41.1075662,1.484375
,41.1426388,1.474609375
,41.1486735,1.474609375
,41.1849174,1.4794921875
,41.189742,1.5234375
,41.2354546,1.5966796875
,41.2357106,1.6748046875
,41.2460034,1.7724609375
,41.2823987,1.8603515625
,41.2900832,1.943359375
,41.3244161,2.0166015625
,41.3292282,2.0751953125
,41.3638096,2.1142578125
,41.3700116,2.138671875
,41.386316,2.1435546875
,41.4245837,2.1484375
,41.4249077,2.080078125
,41.4643062,2.0751953125
,41.4687326,2.0458984375
,41.5173673,2.0166015625
,41.5177352,1.9873046875
,41.5297606,1.943359375
,41.5498998,1.904296875
,41.5957906,1.85546875
,41.5961833,1.81640625
,41.6255688,1.7626953125
,41.6305805,1.7431640625
,41.6469991,1.7041015625
,41.6813851,1.6748046875
,41.7023101,1.640625
,41.708764,1.62109375
,41.7435164,1.5869140625
,41.7648573,1.572265625
,41.7651894,1.5478515625
,41.8125962,1.5380859375
,41.8128343,1.5185546875
,41.8428282,1.5185546875
,41.8489887,1.5087890625
,41.8714841,1.4892578125
,41.8898558,1.4794921875
,41.9378766,1.474609375
,41.9382615,1.484375
,41.9583763,1.5185546875
,41.9686923,1.5966796875
,42.0044218,1.689453125
,42.0076195,1.7822265625
,42.0478493,1.875
,42.0671945,1.9482421875
,42.0700208,2.01171875
,42.1101853,2.0751953125
,42.1104231,2.109375
,42.1279963,2.1533203125
,42.1718368,2.177734375
,42.1722246,2.16796875
,42.189762,2.1484375
,42.2339767,2.1044921875
,42.2342716,2.0654296875
,42.2500435,2.0166015625
,42.294838,1.9677734375
,42.2950394,1.9091796875
,42.312022,1.8212890625
,42.3292504,1.7431640625
,42.3499968,1.73828125
,42.3702019,1.708984375
,42.4214651,1.689453125
,42.4217791,1.66015625
,42.4324287,1.630859375
,42.4824356,1.6015625
,42.48267,1.5869140625
,42.4919377,1.572265625
,42.5090356,1.54296875
,42.5443132,1.533203125
,42.5489509,1.5234375
,42.5905173,1.513671875
,42.5907556,1.4990234375
,42.6136048,1.494140625
,42.6324778,1.4794921875
,42.652469,1.4697265625
,42.6666474,1.455078125
,42.7041305,1.4599609375
,42.7248901,1.46484375
,42.7299063,1.513671875
,42.7677932,1.5771484375
,42.7719898,1.669921875
,42.7918972,1.767578125
,42.8262492,1.8505859375
,42.8310519,1.9287109375
,42.8502733,1.9921875
,42.894515,2.0654296875
,42.8949052,2.109375
,42.9099741,2.1484375
,42.9570177,2.158203125
,42.9572542,2.1533203125
,42.9709593,2.1240234375
,43.0068377,2.08984375
,43.0072308,2.0458984375
,43.0280736,2.0166015625
,43.0659728,1.9775390625
,43.0703595,1.93359375
,43.1114722,1.884765625
,43.1117267,1.8505859375
,43.1470632,1.8115234375
,43.1500736,1.7626953125
,43.1890072,1.71875
,43.2087513,1.669921875
,43.2118691,1.6357421875
,43.2296518,1.5966796875
,43.2669297,1.58203125
,43.2688934,1.5625
,43.3058887,1.54296875
,43.3269596,1.513671875
,43.3322045,1.4990234375
,43.368242,1.4794921875
,43.3715037,1.4697265625
,43.388246,1.455078125
,43.4369674,1.455078125
,43.437206,1.4501953125
,43.4572546,1.4404296875
,43.4710516,1.4404296875
,43.4915496,1.4404296875
,43.5298339,1.4794921875
,43.5303149,1.513671875
,43.5679202,1.6015625
,43.5683111,1.6796875
,43.5882245,1.787109375
,43.6241843,1.8701171875
,43.6443166,1.9580078125
,43.6491565,2.021484375
,43.6883056,2.0751953125
,43.6929551,2.1044921875
,43.7277879,2.1240234375
,43.7281813,2.1240234375
,43.7652915,2.1240234375
,43.7850058,2.099609375
,43.7908291,2.060546875
,43.8258389,2.0166015625
,43.8461867,1.97265625
,43.8532266,1.923828125
,43.888011,1.8798828125
,43.8932217,1.8359375
,43.9097329,1.7919921875
,43.9457548,1.7578125
,43.9513905,1.7236328125
,43.9862198,1.689453125
,43.9892155,1.6552734375
,44.026201,1.6357421875
,44.0460613,1.6064453125
,44.0515189,1.58203125
,44.0732553,1.5673828125
,44.1103246,1.5380859375
,44.1135982,1.5185546875
,44.1298781,1.4990234375
,44.1648117,1.4990234375
,44.1853726,1.4892578125
,44.1904006,1.484375
,44.2257993,1.4697265625
,44.2457376,1.46484375
,44.2538638,1.4453125
,44.273119,1.4501953125
,44.2909225,1.4501953125
,44.3259857,1.50390625
,44.3310673,1.5771484375
,44.3824933,1.6748046875
,44.3828095,1.7578125
,44.3921213,1.85546875
,44.4434997,1.9384765625
,44.4438897,1.9970703125
,44.4532316,2.05078125
,44.4717809,2.0849609375
,44.5069559,2.1142578125
,44.5101238,2.12890625
,44.5515755,2.12890625
,44.5519655,2.1044921875
,44.5719932,2.0703125
,44.5925418,2.0263671875
,44.626637,1.982421875
,44.6468702,1.9384765625
,44.6541909,1.9091796875
,44.671585,1.8701171875
,44.7219509,1.8359375
,44.7223392,1.7919921875
,44.7337231,1.748046875
,44.7695936,1.708984375
,44.7727045,1.6748046875
,44.8087321,1.6455078125
,44.8089768,1.611328125
,44.8305241,1.591796875
,44.8757729,1.5673828125
,44.8760209,1.552734375
,44.8926825,1.533203125
,44.9285034,1.5234375
,44.9332985,1.4990234375
,44.9850809,1.4892578125
,44.985319,1.4697265625
,44.9940616,1.4599609375
,45.0124107,1.4404296875
,45.0311845,1.4501953125
,45.0789616,1.46484375
,45.0793101,1.494140625
,45.1089049,1.5673828125
,45.1121167,1.650390625
,45.1491366,1.748046875
,45.1543485,1.8359375
,45.1892402,1.9287109375
,45.1894808,1.9921875
,45.2236039,2.0654296875
,45.2446494,2.119140625
,45.2526736,2.1630859375
,45.2729341,2.177734375
,45.3096133,2.1875
,45.3143186,2.16796875
,45.3602604,2.1337890625
,45.3605078,2.08984375
,45.3703828,2.0361328125
,45.4068075,1.9970703125
,45.4275681,1.953125
,45.432675,1.9140625
,45.4713436,1.865234375
,45.4717378,1.8212890625
,45.5089498,1.7724609375
,45.534009,1.73828125
,45.5342819,1.69921875
,45.5514412,1.6943359375
,45.5961618,1.669921875
,45.596398,1.6552734375
,45.6272213,1.630859375
,45.6328433,1.611328125
,45.6702514,1.5771484375
,45.6769276,1.572265625
,45.7206586,1.552734375
,45.7208972,1.5283203125
,45.7365348,1.5234375
,45.7517724,1.46484375
,45.7867673,1.474609375
,45.8142572,1.4794921875
,45.8146521,1.484375
,45.8603402,1.484375
,45.8607346,1.50390625
,45.87669,1.5625
,45.912071,1.650390625
,45.9124616,1.73828125
,45.9467859,1.8505859375
,45.9536622,1.93359375
,45.9895387,2.0166015625
,45.9926438,2.08984375
,46.03284,2.12890625
,46.0624509,2.16796875
,46.0626992,2.1875
,46.0766716,2.2021484375
,46.091931,2.177734375
,46.1413208,2.158203125
,46.1417173,2.119140625
,46.1524786,2.0849609375
,46.1877508,2.0361328125
,46.2094503,1.9921875
,46.2162292,1.9384765625
,46.251416,1.89453125
,46.2518152,1.8408203125
,46.2968648,1.806640625
,46.2971118,1.7578125
,46.3135827,1.728515625
,46.3337697,1.689453125
,46.353725,1.650390625
,46.3890744,1.6162109375
,46.4098289,1.5869140625
,46.4153232,1.5576171875
,46.4340496,1.5283203125
,46.468561,1.5185546875
,46.4720421,1.5087890625
,46.5077363,1.494140625
,46.5126182,1.4794921875
,46.5471854,1.4599609375
,46.5686354,1.4453125
,46.5761269,1.4453125
,46.5969003,1.4306640625
,46.6172457,1.38671875
,46.6362459,1.3818359375
,46.6528468,1.38671875
,46.7020702,1.4990234375
,46.7026419,1.611328125
,46.7137932,1.728515625
,46.7491547,1.8212890625
,46.7704391,1.9140625
,46.7778367,1.982421875
,46.7968181,2.05078125
,46.814448,2.0849609375
,46.8331694,2.1337890625
,46.8749101,2.1484375
,46.8753233,2.1435546875
,46.8950918,2.119140625
,46.929214,2.080078125
,46.9498634,2.03125
,46.9545993,1.9921875
,46.9900143,1.9482421875
,47.0101342,1.89453125
,47.0131619,1.85546875
,47.0346013,1.8115234375
,47.0708524,1.7724609375
,47.0765974,1.728515625
,47.1247911,1.6943359375
,47.1251849,1.650390625
,47.1375978,1.62109375
,47.1546079,1.5869140625
,47.1737717,1.5673828125
,47.2184572,1.54296875
,47.2188474,1.5283203125
,47.235008,1.5087890625
,47.2716398,1.494140625
,47.2943933,1.4892578125
,47.2946587,1.4697265625
,47.3306486,1.455078125
,47.3523559,1.435546875
,47.3529078,1.435546875
,47.3898487,1.4306640625
,47.4092597,1.435546875
,47.4146396,1.4306640625
,47.4507732,1.4404296875
,47.4558579,1.474609375
,47.4985346,1.5478515625
,47.4989222,1.630859375
,47.5285022,1.6796875
,47.5337902,1.7822265625
,47.5757505,1.8798828125
,47.576095,1.953125
,47.6132063,2.03125
,47.6166244,2.08984375
,47.6367625,2.1142578125
,47.6850171,2.12890625
,47.685424,2.1142578125
,47.6986856,2.0849609375
,47.7151212,2.0458984375
,47.735081,2.0166015625
,47.7696116,1.97265625
,47.7753784,1.9384765625
,47.8262451,1.8896484375
,47.8265825,1.8505859375
,47.8566328,1.806640625
,47.8570664,1.767578125
,47.8736016,1.71875
,47.9183204,1.689453125
,47.9187087,1.669921875
,47.9358215,1.630859375
,47.9820238,1.6015625
,47.9824175,1.572265625
,47.9980916,1.552734375
,48.0163795,1.5234375
,48.0374948,1.5087890625
,48.0548053,1.4892578125
,48.0747349,1.494140625
,48.1089243,1.4794921875
,48.1296151,1.484375
,48.1353484,1.474609375
,48.1727883,1.4697265625
,48.177792,1.4599609375
,48.197524,1.4501953125
,48.2128615,1.4501953125
,48.248401,1.513671875
,48.2711685,1.5966796875
,48.2760496,1.6845703125
,48.3236357,1.77734375
,48.3238717,1.8603515625
,48.3376496,1.9384765625
,48.3867266,2.001953125
,48.3871202,2.0556640625
,48.3973627,2.0947265625
,48.4355966,2.119140625
,48.4360124,2.1240234375
,48.470004,2.1240234375
,48.4756254,2.0947265625
,48.5109011,2.060546875
,48.51676,2.01171875
,48.5509746,1.962890625
,48.5730209,1.9287109375
,48.5780466,1.875
,48.6255139,1.826171875
,48.6257541,1.7822265625
,48.6348906,1.7578125
,48.6558269,1.71875
,48.6911676,1.6943359375
,48.710696,1.6552734375
,48.7168595,1.630859375
,48.7543292,1.591796875
,48.7577054,1.572265625
,48.7761576,1.533203125
,48.8098402,1.5283203125
,48.8143414,1.5087890625
,48.8577803,1.494140625
,48.8581698,1.474609375
,48.8878872,1.474609375
,48.8985295,1.4599609375
,48.9199927,1.4453125
,48.96621,1.4404296875
,48.966602,1.42578125
,48.9754093,1.4208984375
,49.0111963,1.4208984375
,49.0158864,1.4404296875
,49.0519545,1.4697265625
,49.0744698,1.5380859375
,49.0769723,1.6162109375
,49.1219258,1.708984375
,49.1221862,1.787109375
,49.1357578,1.8896484375
,49.1708782,1.9580078125
,49.1760339,2.03125
,49.2109257,2.08984375
,49.232238,2.1142578125
,49.2373235,2.1337890625
,49.2722109,2.1337890625
,49.2922884,2.119140625
,49.300243,2.0751953125
,49.3183182,2.03125
,49.3369745,1.982421875
,49.3702514,1.943359375
,49.3907227,1.8994140625
,49.3971821,1.8603515625
,49.4332993,1.8115234375
,49.4389233,1.767578125
,49.4753153,1.7236328125
,49.4783325,1.6845703125
,49.4960473,1.640625
,49.533075,1.62109375
,49.5356785,1.6015625
,49.5739205,1.572265625
,49.5787767,1.552734375
,49.6214378,1.5234375
,49.6218347,1.50390625
,49.6381424,1.4892578125
,49.6731242,1.484375
,49.6940072,1.4794921875
,49.6962643,1.484375
,49.7320403,1.4794921875
,49.7615563,1.4794921875
,49.7618031,1.46484375
,49.7776823,1.4697265625
,49.8234395,1.455078125
,49.823825,1.4599609375
,49.8567994,1.4794921875
,49.8570495,1.513671875
,49.8925512,1.591796875
,49.8959909,1.669921875
,49.932886,1.7626953125
,49.9684047,1.8359375
,49.9687208,1.9091796875
,49.9806692,1.9677734375
,49.999928,2.021484375
,50.0166641,2.0556640625
,50.062113,2.099609375
,50.0624283,2.109375
,50.0785674,2.1044921875
,50.1250365,2.0751953125
,50.1254244,2.0361328125
,50.1385101,1.9873046875
,50.1865974,1.9580078125
,50.1870094,1.9189453125
,50.2164835,1.8701171875
,50.2209142,1.826171875
,50.2363494,1.77734375
,50.2724071,1.7431640625
,50.2776743,1.708984375
,50.325457,1.6845703125
,50.3257083,1.6552734375
,50.3380457,1.630859375
,50.3745883,1.6015625
,50.3949525,1.5771484375
,50.3951963,1.552734375
,50.4302351,1.5478515625
,50.4509122,1.533203125
,50.4579921,1.5185546875
,50.4786597,1.5185546875
,50.5144868,1.50390625
,50.5354507,1.494140625
,50.5405208,1.484375
,50.5777547,1.4794921875
,50.5780005,1.4599609375
,50.6232684,1.46484375
,50.6235086,1.46484375
,50.6375904,1.474609375
,50.6577615,1.494140625
,50.7023272,1.552734375
,50.7027368,1.6162109375
,50.7326273,1.7041015625
,50.7374116,1.7724609375
,50.7777226,1.8603515625
,50.7781232,1.9189453125
,50.813078,1.9921875
,50.8191575,2.0361328125
,50.8544569,2.0654296875
,50.8592976,2.080078125
,50.8950757,2.0751953125
,50.8997393,2.05078125
,50.9339934,2.01171875
,50.9426141,1.93359375
,50.9584353,1.8603515625
,50.9963735,1.845703125
,51.0168363,1.826171875
,51.0196953,1.796875
,51.0575122,1.7724609375
,51.0580221,1.748046875
,51.0933551,1.7138671875
,51.1149963,1.6845703125
,51.1222413,1.6650390625
,51.138495,1.6357421875
,51.1594621,1.6162109375
,51.1978591,1.5966796875
,51.1981365,1.5869140625
,51.233264,1.5673828125
,51.2542857,1.552734375
,51.2613318,1.533203125
,51.2983208,1.5234375
,51.2987161,1.5087890625
,51.3384933,1.513671875
,51.3387547,1.50390625
,51.3745718,1.50390625
,51.3804466,1.4990234375
,51.4177757,1.4990234375
,51.4225009,1.4892578125
,51.4427197,1.50390625
,51.4782742,1.533203125
,51.4787319,1.572265625
,51.5248284,1.6552734375
,51.5250764,1.7333984375
,51.5411591,1.8115234375
,51.5594449,1.8701171875
,51.6032239,1.943359375
,51.6034634,1.9873046875
,51.6324901,2.0361328125
,51.6378195,2.0654296875
,51.6762267,2.099609375
,51.6766333,2.099609375
,51.7145339,2.0947265625
,51.7420761,2.0654296875
,51.7426459,2.0263671875
,51.7591515,1.9921875
,51.7942935,1.943359375
,51.815186,1.8994140625
,51.8212181,1.85546875
,51.8559761,1.77734375
,51.8767194,1.7431640625
,51.8771698,1.7236328125
,51.9149517,1.69921875
,51.9350464,1.6748046875
,51.9404262,1.6455078125
,51.9910061,1.62109375
,51.9914123,1.591796875
,52.0036257,1.572265625
,52.0198009,1.5478515625
,52.0708125,1.54296875
,52.0712032,1.5283203125
,52.0798202,1.5234375
,52.1145573,1.5185546875
,52.1215419,1.4990234375
,52.1649715,1.494140625
,52.1653947,1.484375
,52.1814356,1.4794921875
,52.199359,1.4697265625
,52.2336189,1.50390625
,52.2558033,1.5380859375
,52.2613212,1.6064453125
,52.2818248,1.6845703125
,52.3028545,1.7626953125
,52.3236087,1.826171875
,52.343279,1.8994140625
,52.3597566,1.9580078125
,52.3805844,2.021484375
,52.4312751,2.0703125
,52.4315207,2.0947265625
,52.439524,2.109375
,52.476748,2.0947265625
,52.4815326,2.0751953125
,52.5166213,2.0263671875
,52.522806,1.982421875
,52.5389114,1.93359375
,52.5748465,1.8994140625
,52.5811431,1.85546875
,52.5991791,1.8212890625
,52.6348478,1.77734375
,52.6562878,1.748046875
,52.6612836,1.7138671875
,52.6985554,1.6796875
,52.7027774,1.640625
,52.7438604,1.6259765625
,52.7445524,1.6015625
,52.7596174,1.572265625
,52.8076268,1.5625
,52.808019,1.5478515625
,52.8389061,1.5380859375
,52.8441248,1.5234375
,52.8632007,1.513671875
,52.9011139,1.4990234375
,52.9014171,1.4892578125
,52.9208681,1.4794921875
,52.9392991,1.4794921875
,52.9750208,1.474609375
,53.0107282,1.4794921875
,53.010967,1.474609375
,53.0220977,1.4892578125
,53.0729658,1.54296875
,53.0733562,1.5966796875
,53.102753,1.6845703125
,53.1029902,1.748046875
,53.1207447,1.8408203125
,53.1551118,1.904296875
,53.1747414,1.97265625
,53.1814233,2.021484375
,53.2016418,2.060546875
,53.2387665,2.0751953125
,53.2440811,2.099609375
,53.2612208,2.0751953125
,53.3036352,2.0654296875
,53.3038772,2.03125
,53.3225971,1.9921875
,53.3580335,1.943359375
,53.361378,1.9091796875
,53.3981554,1.8701171875
,53.4031657,1.8212890625
,53.43763,1.7822265625
,53.4585583,1.73828125
,53.4603881,1.71875
,53.4811396,1.6845703125
,53.5009538,1.66015625
,53.5359695,1.630859375
,53.5557367,1.6064453125
,53.5625785,1.58203125
,53.5997106,1.5625
,53.603891,1.5380859375
,53.6456183,1.5234375
,53.6458602,1.50390625
,53.6601722,1.4990234375
,53.7095659,1.50390625
,53.7098817,1.494140625
,53.7224652,1.4892578125
,53.7600618,1.4892578125
,53.7647997,1.494140625
,53.7827497,1.4892578125
,53.8191601,1.494140625
,53.8194097,1.494140625
,53.8547024,1.5478515625
,53.882082,1.5966796875
,53.8824067,1.6748046875
,53.9292613,1.748046875
,53.9296003,1.8212890625
,53.9432795,1.875
,53.9807163,1.93359375
,53.9811214,1.9677734375
,54.0162401,2.03125
,54.0358824,2.0654296875
,54.0413034,2.0751953125
,54.0845786,2.0703125
,54.0849666,2.041015625
,54.131173,2.0068359375
,54.1315638,1.962890625
,54.1452152,1.923828125
,54.1602768,1.875
,54.1954294,1.845703125
,54.2162643,1.8115234375
,54.2215946,1.787109375
,54.2589105,1.7578125
,54.2629305,1.73828125
,54.2987313,1.7138671875
,54.3325703,1.689453125
,54.3329596,1.6748046875
,54.3416739,1.6455078125
,54.3782918,1.630859375
,54.3823813,1.5673828125
,54.425866,1.5771484375
,54.4261833,1.5771484375
,54.4447496,1.572265625
,54.4805229,1.5625
,54.4865575,1.5576171875
,54.5053461,1.54296875
,54.5500422,1.54296875
,54.5502808,1.5283203125
,54.561855,1.5283203125
,54.6001924,1.5234375
,54.6047799,1.5234375
,54.6383016,1.5234375
,54.6440799,1.5478515625
,54.6878648,1.591796875
,54.6881189,1.640625
,54.7043672,1.708984375
,54.7205812,1.7724609375
,54.7543303,1.8408203125
,54.7754699,1.89453125
,54.7850217,1.9580078125
,54.8030768,1.9921875
,54.8444299,2.0263671875
,54.8448162,2.041015625
,54.8918086,2.041015625
,54.8920836,2.021484375
,54.902646,2.0068359375
,54.9539749,1.9775390625
,54.9542793,1.9482421875
,54.9632971,1.9189453125
,55.0152508,1.8798828125
,55.0154965,1.845703125
,55.0251403,1.806640625
,55.0755752,1.77734375
,55.0758962,1.73828125
,55.0821938,1.71875
,55.1177452,1.689453125
,55.1228799,1.6748046875
,55.1687827,1.6455078125
,55.1692127,1.630859375
,55.1997656,1.6064453125
,55.2066813,1.591796875
,55.2229628,1.572265625
,55.2455403,1.572265625
,55.2634805,1.5087890625
,55.2975848,1.533203125
,55.3018925,1.54296875
,55.3372916,1.5380859375
,55.3588868,1.54296875
,55.3672422,1.5380859375
,55.4157555,1.533203125
,55.4161046,1.533203125
,55.4270059,1.54296875
,55.4420737,1.5625
,55.4939456,1.62109375
,55.4942746,1.6845703125
,55.5053884,1.7578125
,55.5558268,1.826171875
,55.5563317,1.8896484375
,55.5654233,1.9384765625
,55.6015752,1.982421875
,55.6061694,2.03125
,55.6216884,2.0458984375
,55.6652032,2.0751953125
,55.6655675,2.0703125
,55.6957,2.0556640625
,55.7047223,2.021484375
,55.7403051,1.982421875
,55.7457491,1.9384765625
,55.7892837,1.904296875
,55.7898993,1.865234375
,55.8017329,1.8505859375
,55.851847,1.8212890625
,55.8521191,1.796875
,55.870851,1.767578125
,55.8835195,1.7431640625
,55.9160111,1.708984375
,55.9372942,1.689453125
,55.945846,1.66015625
,55.9623683,1.630859375
,56.0066476,1.62109375
,56.0069895,1.6064453125
,56.0407163,1.5966796875
,56.0436443,1.5771484375
,56.0802457,1.5673828125
,56.112118,1.5576171875
,56.1123284,1.5478515625
,56.1265598,1.5283203125
,56.1740967,1.484375
,56.1743033,1.4794921875
,56.183576,1.4990234375
,56.220928,1.4990234375
,56.2513825,1.513671875
,56.2516696,1.5576171875
,56.2656883,1.6015625
,56.3127582,1.6748046875
,56.3130636,1.73828125
,56.3280351,1.81640625
,56.3437142,1.875
,56.3806235,1.9384765625
,56.3847441,1.9921875
,56.4056378,2.0361328125
,56.4418225,2.060546875
,56.4466396,2.0849609375
,56.4838684,2.0849609375
,56.4889209,2.0654296875
,56.5035034,2.03125
,56.5377679,2.001953125
,56.5589932,1.9580078125
,56.5648254,1.93359375
,56.584458,1.89453125
,56.6211579,1.8505859375
,56.6259236,1.81640625
,56.6695137,1.7724609375
,56.6697631,1.7431640625
,56.6833974,1.7041015625
,56.732979,1.6845703125
,56.7332312,1.66015625
,56.7451098,1.640625
,56.7813545,1.611328125
,56.7860524,1.5966796875
,56.8258878,1.5771484375
,56.8264491,1.572265625
,56.8426223,1.5576171875
,56.878761,1.5576171875
,56.8842994,1.5625
,56.934588,1.5478515625
,56.9348344,1.5478515625
,56.9481362,1.5380859375
,56.9668056,1.5283203125
,57.0022734,1.5234375
,57.0217468,1.5185546875
,57.028196,1.5087890625
,57.0487212,1.513671875
,57.0651424,1.5283203125
,57.0990764,1.5966796875
,57.1196538,1.6650390625
,57.124412,1.748046875
,57.15936,1.806640625
,57.1787997,1.8701171875
,57.1863184,1.9091796875
,57.2212023,1.962890625
,57.2416588,2.0068359375
,57.2445237,2.0263671875
,57.2953814,2.05078125
,57.2956307,2.05078125
,57.305217,2.0361328125
,57.3415491,2.001953125
,57.345974,1.97265625
,57.3826484,1.93359375
,57.3878605,1.89453125
,57.4060245,1.85546875
,57.4258563,1.826171875
,57.4651845,1.796875
,57.4654264,1.767578125
,57.5137309,1.7333984375
,57.5140983,1.7041015625
,57.544821,1.6845703125
,57.549687,1.650390625
,57.5675642,1.630859375
,57.5851411,1.6015625
,57.6209023,1.5966796875
,57.6238979,1.5771484375
,57.6580361,1.5771484375
,57.680111,1.5576171875
,57.6869428,1.5625
,57.721694,1.54296875
,57.7421999,1.5380859375
,57.7438583,1.5185546875
,57.7780369,1.5234375
,57.798686,1.5185546875
,57.8055428,1.5185546875
,57.8425288,1.5087890625
,57.84999,1.533203125
,57.867869,1.5673828125
,57.9118803,1.6064453125
,57.9121247,1.6748046875
,57.9325584,1.7431640625
,57.9502372,1.806640625
,57.9650699,1.85546875
,57.9995124,1.9140625
,58.0196312,1.953125
,58.0270127,1.9970703125
,58.0682635,2.0166015625
,58.0685032,2.03125
,58.0978461,2.021484375
,58.1077282,2.0068359375
,58.1244214,1.9677734375
,58.1614311,1.943359375
,58.1661765,1.9189453125
,58.2023277,1.884765625
,58.2079268,1.85546875
,58.2542867,1.8115234375
,58.2545981,1.787109375
,58.2711388,1.748046875
,58.2895029,1.7236328125
,58.3068793,1.689453125
,58.3412384,1.6796875
,58.3464364,1.66015625
,58.3848589,1.650390625
,58.3852558,1.6259765625
,58.4202954,1.6162109375
,58.4423258,1.5966796875
,58.4494259,1.58203125
,58.4655068,1.5625
,58.5005843,1.572265625
,58.5201943,1.5771484375
,58.5272489,1.5625
,58.5612274,1.5625
,58.5811542,1.552734375
,58.5868058,1.5478515625
,58.6244619,1.5380859375
,58.6289181,1.5380859375
,58.646609,1.5478515625
,58.6656523,1.5966796875
,58.6869243,1.66015625
,58.7069966,1.73828125
,58.7418874,1.8017578125
,58.7623357,1.8701171875
,58.7706318,1.9140625
,58.7880555,1.9677734375
,58.8255789,2.0166015625
,58.8283762,2.0458984375
,58.8631877,2.0703125
,58.8828193,2.0703125
,58.8867439,2.0751953125
,58.9237822,2.05078125
,58.952598,2.021484375
,58.9529203,1.982421875
,58.9692399,1.9482421875
,59.0053576,1.904296875
,59.0302749,1.875
,59.0306668,1.8310546875
,59.0485369,1.806640625
,59.0913577,1.77734375
,59.0916668,1.748046875
,59.1081799,1.71875
,59.143421,1.69921875
,59.1712957,1.6748046875
,59.1716878,1.640625
,59.1904876,1.6162109375
,59.2076663,1.591796875
,59.2483904,1.58203125
,59.2486425,1.5673828125
,59.266854,1.5625
,59.3030199,1.5478515625
,59.3232884,1.54296875
,59.3284475,1.533203125
,59.3648235,1.5234375
,59.3652271,1.5087890625
,59.4006506,1.5185546875
,59.4205827,1.5234375
,59.4282661,1.54296875
,59.4656621,1.591796875
,59.4703826,1.650390625
,59.4891759,1.728515625
,59.5247152,1.7919921875
,59.5447381,1.865234375
,59.5480603,1.9140625
,59.5919089,1.9775390625
,59.5922104,1.97265625
,59.6077871,2.0361328125
,59.6435019,2.0654296875
,59.6714983,2.08984375
,59.6718857,2.080078125
,59.6911559,2.0654296875
,59.7261473,2.021484375
,59.7311507,1.982421875
,59.7471355,1.9384765625
,59.794847,1.9140625
,59.7951635,1.8798828125
,59.8083291,1.8408203125
,59.8593909,1.8017578125
,59.8596363,1.767578125
,59.8936883,1.73828125
,59.8944032,1.708984375
,59.9108582,1.689453125
,59.928457,1.6650390625
,59.9493986,1.650390625
,59.9858085,1.640625
,59.9889015,1.6259765625
,60.0320896,1.6064453125
,60.0323289,1.591796875
,60.0655827,1.5771484375
,60.0703285,1.5625
,60.1049779,1.5625
,60.1252349,1.54296875
,60.1298057,1.5478515625
,60.1487183,1.533203125
,60.1868939,1.54296875
,60.2072678,1.5283203125
,60.2094276,1.533203125
,60.2442437,1.5478515625
,60.2669444,1.591796875
,60.2673357,1.650390625
,60.3122303,1.73828125
,60.3126205,1.8017578125
,60.3433075,1.875
,60.3508894,1.923828125
,60.3889981,1.9775390625
,60.3894055,2.01171875
,60.4269863,2.0556640625
,60.4498805,2.080078125
,60.4501171,2.0751953125
,60.4950409,2.021484375
,60.4952878,2.001953125
,60.5076458,1.9873046875
,60.5444503,1.953125
,60.5745455,1.9287109375
,60.5747941,1.8896484375
,60.5913071,1.85546875
,60.6360281,1.81640625
,60.6362826,1.77734375
,60.647369,1.73828125
,60.6693549,1.7236328125
,60.7057062,1.6943359375
,60.7087105,1.6748046875
,60.7446743,1.66015625
,60.7505925,1.630859375
,60.7864692,1.6064453125
,60.7921183,1.5869140625
,60.8269474,1.5771484375
,60.8271848,1.5576171875
,60.862217,1.5576171875
,60.8832935,1.552734375
,60.8904545,1.5478515625
,60.9272088,1.533203125
,60.9321402,1.5380859375
,60.9505752,1.533203125
,60.986318,1.5234375
,60.9865611,1.513671875
,61.0277119,1.5234375
,61.0279502,1.533203125
,61.0486095,1.572265625
,61.0828747,1.6259765625
,61.1034721,1.6845703125
,61.1107748,1.7578125
,61.1465571,1.8115234375
,61.1520037,1.8701171875
,61.170742,1.9091796875
,61.1887545,1.962890625
,61.2319652,1.9970703125
,61.2323663,2.0263671875
,61.249777,2.03125
,61.2935255,2.0263671875
,61.2939152,2.001953125
,61.3256335,1.97265625
,61.3320939,1.93359375
,61.3683023,1.89453125
,61.3729869,1.8603515625
,61.3890961,1.81640625
,61.4344733,1.7919921875
,61.4348637,1.7626953125
,61.4553494,1.7431640625
,61.4713914,1.7138671875
,61.506859,1.6943359375
,61.5119753,1.6650390625
,61.54643,1.6455078125
,61.566751,1.6162109375
,61.5670825,1.611328125
,61.6042504,1.5966796875
,61.624637,1.5869140625
,61.6331336,1.572265625
,61.6517625,1.5625
,61.6873898,1.5478515625
,61.7124956,1.54296875
,61.712752,1.5380859375
,61.7291959,1.5234375
,61.7768624,1.5283203125
,61.7771053,1.5283203125
,61.7972375,1.5234375
,61.8125679,1.5185546875
,61.85553,1.533203125
,61.8559222,1.5625
,61.8742005,1.6162109375
,61.8900542,1.6796875
,61.9254374,1.7578125
,61.9308682,1.826171875
,61.9523898,1.904296875
,61.9949504,1.9580078125
,61.995344,2.01171875
,62.0120405,2.0556640625
,62.0577653,2.0703125
,62.05800790000001,2.0751953125
,62.0880353,2.0556640625
,62.088429899999994,2.0458984375
,62.133414599999995,2.01171875
,62.133731600000004,1.982421875
,62.154487,1.943359375
,62.1713728,1.9091796875
,62.2122595,1.8701171875
,62.212504800000005,1.8505859375
,62.2330199,1.81640625
,62.274707500000005,1.787109375
,62.274911900000006,1.748046875
,62.2894637,1.7333984375
,62.32235,1.69921875
,62.343930900000004,1.689453125
,62.3517293,1.6650390625
,62.3887426,1.640625
,62.3932863,1.62109375
,62.428561900000005,1.6015625
,62.4334023,1.5869140625
,62.45159339999999,1.572265625
,62.492448800000005,1.58203125
,62.492692000000005,1.5771484375
,62.5280614,1.572265625
,62.5325847,1.5625
,62.569265,1.5576171875
,62.5719146,1.54296875
,62.61978379999999,1.552734375
,62.62013399999999,1.572265625
,62.64096910000001,1.6357421875
,62.650350399999994,1.7138671875
,62.699965899999995,1.77734375
,62.700219399999995,1.8505859375
,62.71427129999999,1.8994140625
,62.733439399999995,1.962890625
,62.778478699999994,1.9970703125
,62.778795900000006,2.041015625
,62.790006899999995,2.060546875
,62.8264197,2.0849609375
,62.8571405,2.080078125
,62.8574285,2.0654296875
,62.8717264,2.03125
,62.9198734,1.9873046875
,62.920114299999995,1.9482421875
,62.9334405,1.8994140625
,62.9496015,1.8505859375
,62.9838441,1.8359375
,63.0034632,1.8115234375
,63.009619900000004,1.7822265625
,63.043738700000006,1.7578125
,63.0635477,1.7236328125
,63.073796099999996,1.69921875
,63.1077286,1.669921875
,63.127526599999996,1.650390625
,63.1340876,1.6162109375
,63.169251200000005,1.5966796875
,63.1718321,1.572265625
,63.204932299999996,1.572265625
,63.2253352,1.5576171875
,63.2344147,1.5625
,63.27875950000001,1.5478515625
,63.279135100000005,1.5380859375
,63.2946137,1.5380859375
,63.341826,1.5283203125
,63.342214,1.5234375
,63.3508834,1.5185546875
,63.40213489999999,1.552734375
,63.402385300000006,1.591796875
,63.412921600000004,1.6552734375
,63.4485773,1.71875
,63.4533986,1.7919921875
,63.4748343,1.85546875
,63.494251500000004,1.923828125
,63.5119232,1.97265625
,63.5474682,2.03125
,63.550468699999996,2.0703125
,63.58661669999999,2.099609375
,63.60678969999999,2.099609375
,63.6137875,2.0947265625
,63.6499462,2.0654296875
,63.65531,2.0263671875
,63.6987517,1.9873046875
,63.69898860000001,1.943359375
,63.71255549999999,1.904296875
,63.7596679,1.8701171875
,63.759923900000004,1.8408203125
,63.77262330000001,1.8017578125
,63.808147399999996,1.7724609375
,63.829049499999996,1.7333984375
,63.8342466,1.69921875
,63.852444000000006,1.66015625
,63.901541300000005,1.650390625
,63.90193480000001,1.6259765625
,63.9123879,1.6015625
,63.947994699999995,1.5966796875
,63.976365,1.572265625
,63.9766108,1.5576171875
,63.99418,1.5478515625
,64.0324447,1.5576171875
,64.0354113,1.5380859375
,64.071544,1.533203125
,64.0719449,1.5234375
,64.1177747,1.5283203125
,64.1180139,1.5234375
,64.1357475,1.533203125
,64.1545771,1.5380859375
,64.1900916,1.5771484375
,64.195567,1.630859375
,64.2414714,1.708984375
,64.2417941,1.767578125
,64.2530116,1.865234375
,64.3046073,1.943359375
,64.3051312,1.9970703125
,64.3143056,2.05078125
,64.3517752,2.080078125
,64.3722959,2.109375
,64.375169,2.1142578125
,64.4145077,2.109375
,64.4148964,2.080078125
,64.4342586,2.0458984375
,64.4680738,2.0166015625
,64.4727877,1.9775390625
,64.5069574,1.9384765625
,64.5281968,1.904296875
,64.5353793,1.865234375
,64.5705688,1.8212890625
,64.5766589,1.7919921875
,64.5924822,1.7431640625
,64.6315811,1.7236328125
,64.6319512,1.689453125
,64.6784507,1.669921875
,64.6788248,1.640625
,64.7088416,1.6162109375
,64.7159064,1.5869140625
,64.7546229,1.572265625
,64.7548717,1.552734375
,64.7771021,1.5087890625
,64.793988,1.46484375
,64.832674,1.4892578125
,64.8352735,1.4990234375
,64.8791644,1.50390625
,64.8794196,1.4990234375
,64.894632,1.50390625
,64.9330136,1.4990234375
,64.9381903,1.494140625
,64.9879854,1.5087890625
,64.9886813,1.533203125
,64.9932172,1.6064453125
,65.0273089,1.6845703125
,65.0475454,1.77734375
,65.0557749,1.8505859375
,65.07546,1.9189453125
,65.1115588,1.97265625
,65.116026,2.021484375
,65.1350208,2.05078125
,65.1534691,2.099609375
,65.1909284,2.1044921875
,65.1953879,2.099609375
,65.2352257,2.080078125
,65.2354722,2.0361328125
,65.283397,1.9970703125
,65.2837132,1.953125
,65.3038338,1.9140625
,65.3131265,1.865234375
,65.3596851,1.8310546875
,65.3599231,1.796875
,65.392344,1.7626953125
,65.392734,1.7236328125
,65.438243,1.689453125
,65.4384857,1.66015625
,65.458168,1.6357421875
,65.4729901,1.611328125
,65.5091016,1.5966796875
,65.5143426,1.58203125
,65.5496678,1.58203125
,65.555601,1.58203125
,65.5948816,1.5625
,65.5952733,1.552734375
,65.6315571,1.5283203125
,65.6549171,1.5234375
,65.6574424,1.5087890625
,65.6943414,1.4697265625
,65.6947353,1.46484375
,65.7333958,1.4794921875
,65.7336378,1.484375
,65.7543273,1.5185546875
,65.7926606,1.552734375
,65.7952326,1.6357421875
,65.8322253,1.7041015625
,65.8594096,1.7822265625
,65.8597251,1.8603515625
,65.8756857,1.9189453125
,65.9109755,1.982421875
,65.9153518,2.0263671875
,65.9502252,2.060546875
,65.9832755,2.0703125
,65.983521,2.0751953125
,65.997684,2.05078125
,66.0172751,2.0263671875
,66.0365637,1.9775390625
,66.0546718,1.9677734375
,66.1064727,1.9384765625
,66.1068727,1.9140625
,66.1156777,1.875
,66.1509706,1.8408203125
,66.1721255,1.796875
,66.1772746,1.77734375
,66.2152909,1.73828125
,66.2156788,1.7041015625
,66.2463679,1.6845703125
,66.2552015,1.6650390625
,66.2926251,1.6357421875
,66.297323,1.6162109375
,66.3327242,1.6064453125
,66.3381314,1.591796875
,66.3852951,1.5771484375
,66.3855399,1.5673828125
,66.3941445,1.5625
,66.430723,1.552734375
,66.4639172,1.552734375
,66.4643646,1.54296875
,66.4763001,1.533203125
,66.5131315,1.54296875
,66.5154598,1.5478515625
,66.5505744,1.58203125
,66.5714993,1.6357421875
,66.5803723,1.728515625
,66.5945175,1.796875
,66.6303255,1.884765625
,66.6354791,1.953125
,66.6802152,2.0166015625
,66.680455,2.060546875
,66.7023327,2.1044921875
,66.7190445,2.1142578125
,66.7557077,2.12890625
,66.7561771,2.109375
,66.789027,2.08984375
,66.7953923,2.0458984375
,66.832097,2.021484375
,66.8361844,1.982421875
,66.8787202,1.9384765625
,66.8790697,1.89453125
,66.9096733,1.85546875
,66.9193013,1.806640625
,66.9363172,1.7626953125
,66.9712368,1.7333984375
,66.9757233,1.7041015625
,67.0107399,1.6748046875
,67.0340402,1.640625
,67.0379001,1.6162109375
,67.0786694,1.591796875
,67.0789055,1.5869140625
,67.0940762,1.5673828125
,67.1300747,1.5576171875
,67.1575243,1.5576171875
,67.1577653,1.54296875
,67.1929477,1.533203125
,67.197643,1.5185546875
,67.2367775,1.5185546875
,67.23717,1.5087890625
,67.2834413,1.50390625
,67.2837557,1.494140625
,67.314462,1.5185546875
,67.314714,1.5576171875
,67.3610817,1.6357421875
,67.3614679,1.7138671875
,67.3913837,1.806640625
,67.3970221,1.8798828125
,67.4380135,1.9580078125
,67.4382608,2.01171875
,67.4847385,2.0703125
,67.4849928,2.1142578125
,67.4950252,2.12890625
,67.5313962,2.1484375
,67.5516256,2.1484375
,67.5572276,2.1240234375
,67.5934968,2.0849609375
,67.598905,2.05078125
,67.6335749,2.0068359375
,67.6553019,1.9580078125
,67.6556752,1.904296875
,67.7041472,1.8701171875
,67.7045411,1.8310546875
,67.7353333,1.806640625
,67.7356968,1.7626953125
,67.781753,1.728515625
,67.7821436,1.7041015625
,67.812624,1.669921875
,67.8178936,1.6357421875
,67.8372475,1.6064453125
,67.8728206,1.6015625
,67.8775913,1.58203125
,67.9127114,1.5673828125
,67.9179161,1.552734375
,67.9667597,1.5380859375
,67.9671365,1.5234375
,67.9884638,1.5185546875
,67.9952489,1.4990234375
,68.0319407,1.4990234375
,68.0589104,1.4892578125
,68.0592994,1.484375
,68.0774779,1.484375
,68.114594,1.54296875
,68.1186345,1.6015625
,68.1694441,1.6748046875
,68.1700301,1.7578125
,68.1768905,1.8359375
,68.2157955,1.9140625
,68.2160437,1.982421875
,68.2631691,2.0458984375
,68.2635603,2.08984375
,68.2938711,2.119140625
,68.2995026,2.12890625
,68.3325771,2.119140625
,68.3540722,2.08984375
,68.3611222,2.060546875
,68.3769413,2.0068359375
,68.4185972,1.9677734375
,68.4189103,1.9384765625
,68.4486373,1.8896484375
,68.4595619,1.8505859375
,68.4964867,1.806640625
,68.5017438,1.77734375
,68.5421014,1.7333984375
,68.5423748,1.69921875
,68.5568856,1.6650390625
,68.5906771,1.6455078125
,68.611352,1.62109375
,68.6190207,1.611328125
,68.6656865,1.5869140625
,68.6660022,1.5771484375
,68.6816283,1.5576171875
,68.700604,1.5478515625
,68.7175619,1.5234375
,68.7526244,1.5380859375
,68.757601,1.533203125
,68.7926939,1.5283203125
,68.8128614,1.5185546875
,68.8196981,1.513671875
,68.8690911,1.50390625
,68.8693702,1.4990234375
,68.8805219,1.5234375
,68.8966675,1.5625
,68.9318494,1.630859375
,68.952383,1.7138671875
,68.9579532,1.787109375
,68.9968388,1.8603515625
,68.9971663,1.93359375
,69.0341706,1.9873046875
,69.0543768,2.0263671875
,69.0592762,2.0703125
,69.093077,2.0751953125
,69.1023551,2.0361328125
,69.1192876,1.9873046875
,69.1542678,2.001953125
,69.1604413,1.982421875
,69.196643,1.9580078125
,69.2014245,1.923828125
,69.2456453,1.89453125
,69.2460943,1.8505859375
,69.26136,1.8212890625
,69.2784673,1.77734375
,69.3221775,1.7529296875
,69.3225677,1.728515625
,69.3429595,1.69921875
,69.359574,1.66015625
,69.3954415,1.640625
,69.4007109,1.62109375
,69.4336455,1.5966796875
,69.4557008,1.5771484375
,69.4560543,1.5576171875
,69.5078671,1.5478515625
,69.5081686,1.5380859375
,69.539332,1.5380859375
,69.5397212,1.5234375
,69.586915,1.513671875
,69.587261,1.4990234375
,69.6154401,1.4892578125
,69.6187827,1.484375
,69.6557394,1.513671875
,69.6586205,1.5478515625
,69.6949871,1.6162109375
,69.700211,1.7041015625
,69.740839,1.77734375
,69.741082,1.85546875
,69.7606647,1.923828125
,69.7971059,1.9921875
,69.8168148,2.0361328125
,69.8171624,2.08984375
,69.8537327,2.119140625
,69.8838923,2.138671875
,69.8842749,2.12890625
,69.9003366,2.1142578125
,69.9378679,2.0703125
,69.9426473,2.03125
,69.9631828,1.982421875
,69.9819123,1.8994140625
,69.9993417,1.8212890625
,70.0341689,1.81640625
,70.039152,1.796875
,70.0613325,1.7626953125
,70.0954516,1.7333984375
,70.1162908,1.69921875
,70.1204848,1.669921875
,70.1550492,1.6455078125
,70.1754821,1.6357421875
,70.1785419,1.6162109375
,70.2152467,1.611328125
,70.2212086,1.5966796875
,70.2566396,1.58203125
,70.2620589,1.5625
,70.2955196,1.552734375
,70.3163601,1.533203125
,70.3214025,1.5234375
,70.3566757,1.5185546875
,70.3784226,1.50390625
,70.3788,1.513671875
,70.4272299,1.5283203125
,70.4274654,1.58203125
,70.4415785,1.640625
,70.4776811,1.728515625
,70.4821518,1.8017578125
,70.5214227,1.884765625
,70.5218135,1.943359375
,70.5569203,2.021484375
,70.5616598,2.0703125
,70.5799443,2.119140625
,70.6151548,2.138671875
,70.6375033,2.1484375
,70.6422821,2.12890625
,70.6779266,2.1142578125
,70.6828643,2.0703125
,70.6992519,2.0166015625
,70.7360059,1.9775390625
,70.7410815,1.9384765625
,70.7778025,1.8896484375
,70.7824369,1.8408203125
,70.8197866,1.8017578125
,70.8201066,1.7578125
,70.8670273,1.7236328125
,70.8673443,1.6796875
,70.8970406,1.640625
,70.8998027,1.6064453125
,70.9371168,1.591796875
,70.9417524,1.572265625
,70.991203,1.552734375
,70.9916287,1.54296875
,71.0030517,1.5185546875
,71.0364304,1.5087890625
,71.0564458,1.4892578125
,71.0634528,1.484375
,71.0796395,1.46484375
,71.1308084,1.4599609375
,71.1311832,1.4501953125
,71.1611792,1.455078125
,71.161574,1.4501953125
,71.2074636,1.4794921875
,71.2077068,1.5087890625
,71.2216485,1.572265625
,71.2395661,1.6455078125
,71.2871551,1.73828125
,71.2875449,1.8115234375
,71.3184127,1.904296875
,71.3228858,1.9775390625
,71.3632587,2.0263671875
,71.3635082,2.0703125
,71.4015978,2.0947265625
,71.401863,2.109375
,71.4199352,2.099609375
,71.4547395,2.0947265625
,71.4749718,2.060546875
,71.4804547,2.021484375
,71.5189315,1.97265625
,71.5487658,1.9287109375
,71.5490082,1.8798828125
,71.5636314,1.8408203125
,71.5791897,1.7919921875
,71.6134236,1.7626953125
,71.6332752,1.7333984375
,71.6411962,1.69921875
,71.6771598,1.6650390625
,71.6824192,1.6357421875
,71.7188114,1.6162109375
,71.7228285,1.5869140625
,71.7598091,1.5673828125
,71.7646232,1.5380859375
,71.8133764,1.5234375
,71.8136658,1.50390625
,71.8210667,1.50390625
,71.8572763,1.494140625
,71.8775179,1.4892578125
,71.8824632,1.4794921875
,71.9179347,1.4697265625
,71.9377735,1.4599609375
,71.9439374,1.4697265625
,71.9870254,1.4697265625
,71.9874152,1.484375
,72.0178724,1.5380859375
,72.0228029,1.6015625
,72.0642012,1.689453125
,72.0648095,1.7626953125
,72.0826396,1.845703125
,72.1181007,1.9091796875
,72.1393825,1.9677734375
,72.1398065,2.01171875
,72.1886775,2.0556640625
,72.1889237,2.0751953125
,72.209231,2.099609375
,72.2235031,2.0849609375
,72.2578185,2.060546875
,72.2638541,2.0263671875
,72.3169823,1.9775390625
,72.3171895,1.9287109375
,72.3220723,1.884765625
,72.3626184,1.85546875
,72.3628218,1.8212890625
,72.3981547,1.787109375
,72.4032284,1.748046875
,72.437835,1.7138671875
,72.4584356,1.6845703125
,72.4640988,1.66015625
,72.4807727,1.6259765625
,72.5211894,1.611328125
,72.5502619,1.591796875
,72.5506002,1.572265625
,72.5643059,1.5478515625
,72.6133777,1.54296875
,72.6136169,1.5283203125
,72.6252266,1.5087890625
,72.6617286,1.4990234375
,72.6662181,1.484375
,72.6867747,1.474609375
,72.702622,1.4599609375
,72.7366413,1.474609375
,72.7572303,1.474609375
,72.7624627,1.4794921875
,72.797557,1.494140625
,72.8306289,1.533203125
,72.8310627,1.591796875
,72.8475863,1.6796875
,72.8612498,1.748046875
,72.8970367,1.8359375
,72.9235943,1.9189453125
,72.9238359,1.97265625
,72.9443287,2.0263671875
,72.9879921,2.0556640625
,72.9883085,2.0849609375
,73.0067116,2.080078125
,73.0264176,2.0703125
,73.043397,2.03125
,73.0788573,2.01171875
,73.0833062,1.9677734375
,73.1176433,1.9384765625
,73.1242773,1.89453125
,73.1721574,1.8603515625
,73.1723967,1.81640625
,73.186939,1.7822265625
,73.2018175,1.7333984375
,73.251174,1.7236328125
,73.2514206,1.7041015625
,73.2631204,1.6796875
,73.2988439,1.6552734375
,73.3042121,1.630859375
,73.343419,1.6064453125
,73.3436638,1.58203125
,73.3772686,1.5673828125
,73.3993131,1.5478515625
,73.4063729,1.54296875
,73.4240298,1.4794921875
,73.4678418,1.4892578125
,73.4682476,1.4892578125
,73.4843163,1.4990234375
,73.530142,1.4990234375
,73.5304,1.494140625
,73.5466121,1.4990234375
,73.5660019,1.4990234375
,73.6017933,1.54296875
,73.6247653,1.5966796875
,73.6250762,1.6943359375
,73.6607461,1.7724609375
,73.6660571,1.8603515625
,73.7171791,1.923828125
,73.7174144,1.9970703125
,73.7265417,2.041015625
,73.7623572,2.08984375
,73.7625971,2.1044921875
,73.7988177,2.1240234375
,73.8042499,2.119140625
,73.8433115,2.099609375
,73.8435625,2.0556640625
,73.8865906,2.0166015625
,73.8868274,1.97265625
,73.9086544,1.9287109375
,73.9272731,1.8798828125
,73.9441198,1.8310546875
,73.9796337,1.796875
,73.983629,1.7626953125
,74.0188161,1.728515625
,74.0393808,1.69921875
,74.0444293,1.6650390625
,74.0903111,1.630859375
,74.0908689,1.6015625
,74.110666,1.5673828125
,74.1228513,1.5576171875
,74.158969,1.5380859375
,74.1856199,1.5283203125
,74.1860108,1.5234375
,74.2066816,1.4990234375
,74.2482317,1.4892578125
,74.2484706,1.4794921875
,74.2670748,1.4892578125
,74.2877998,1.484375
,74.3279103,1.4404296875
,74.3282955,1.455078125
,74.3446546,1.494140625
,74.3884453,1.552734375
,74.3887345,1.6455078125
,74.4045667,1.7236328125
,74.4503963,1.8115234375
,74.4506392,1.884765625
,74.4711159,1.953125
,74.4833324,2.0068359375
,74.5192366,2.080078125
,74.525181,2.12890625
,74.561028,2.1484375
,74.5643385,2.158203125
,74.6064408,2.1435546875
,74.6066872,2.1142578125
,74.640428,2.0703125
,74.6607437,2.0263671875
,74.6624714,1.9775390625
,74.7009889,1.943359375
,74.7060843,1.89453125
,74.7493655,1.85546875
,74.7496863,1.8115234375
,74.7668488,1.7822265625
,74.8114,1.73828125
,74.8118283,1.69921875
,74.8275177,1.6650390625
,74.8433387,1.6259765625
,74.8786177,1.6015625
,74.9002035,1.5771484375
,74.9044805,1.5673828125
,74.9399653,1.54296875
,74.9453278,1.5283203125
,74.9820445,1.50390625
,74.9877228,1.494140625
,75.0020548,1.474609375
,75.0379117,1.484375
,75.0586338,1.474609375
,75.0659307,1.474609375
,75.1067941,1.4599609375
,75.107262,1.4599609375
,75.1274468,1.4501953125
,75.1637654,1.484375
,75.1690253,1.5478515625
,75.1883652,1.6162109375
,75.2323914,1.69921875
,75.2327926,1.7724609375
,75.2628811,1.85546875
,75.2676874,1.93359375
,75.2859101,2.001953125
,75.3227045,2.05078125
,75.3439173,2.08984375
,75.349763,2.099609375
,75.3674997,2.099609375
,75.3840334,2.0751953125
,75.4330868,2.060546875
,75.4334483,2.021484375
,75.4542085,1.9775390625
,75.4670632,1.9384765625
,75.5113359,1.884765625
,75.511592,1.8408203125
,75.5274822,1.796875
,75.5645043,1.7578125
,75.5647577,1.7138671875
,75.5992533,1.689453125
,75.619658,1.6552734375
,75.6253574,1.6357421875
,75.6628811,1.6015625
,75.6674457,1.5771484375
,75.7141232,1.5478515625
,75.7143677,1.533203125
,75.7241138,1.50390625
,75.7593945,1.4990234375
,75.7642601,1.4794921875
,75.8075275,1.484375
,75.8077625,1.484375
,75.8279933,1.474609375
,75.8702359,1.46484375
,75.8706278,1.455078125
,75.8890156,1.4501953125
,75.9063185,1.4404296875
,75.9467561,1.4501953125
,75.9471537,1.474609375
,75.9659498,1.5283203125
,76.0092255,1.591796875
,76.0095713,1.669921875
,76.0277244,1.73828125
,76.071286,1.81640625
,76.0716013,1.8701171875
,76.0902076,1.9287109375
,76.134017,1.97265625
,76.1345939,1.9970703125
,76.146517,2.0263671875
,76.1826283,2.0263671875
,76.1879312,2.01171875
,76.2234365,1.9775390625
,76.2284051,1.9384765625
,76.2656886,1.8896484375
,76.2678972,1.845703125
,76.2873944,1.806640625
,76.3206803,1.796875
,76.3277191,1.767578125
,76.3668484,1.7431640625
,76.3672251,1.708984375
,76.4144668,1.6845703125
,76.4148525,1.650390625
,76.4292819,1.630859375
,76.4645339,1.6064453125
,76.4647828,1.5771484375
,76.4992938,1.5673828125
,76.520389,1.552734375
,76.5270892,1.54296875
,76.569052,1.5283203125
,76.5692896,1.5283203125
,76.5888435,1.513671875
,76.6255417,1.5087890625
,76.6258296,1.4892578125
,76.6605574,1.494140625
,76.6816372,1.4892578125
,76.6875218,1.494140625
,76.7214808,1.4892578125
,76.7411952,1.50390625
,76.7489651,1.5478515625
,76.7850376,1.5966796875
,76.7881091,1.669921875
,76.8073597,1.73828125
,76.851472,1.8212890625
,76.85176,1.8798828125
,76.8671987,1.9384765625
,76.9160616,1.97265625
,76.9163433,2.0068359375
,76.9310259,2.021484375
,76.9499827,2.021484375
,76.9862208,2.001953125
,76.9879363,1.97265625
,77.0233879,1.923828125
,77.025965,1.89453125
,77.0612487,1.85546875
,77.0821416,1.8359375
,77.0908657,1.806640625
,77.1092386,1.767578125
,77.1450209,1.73828125
,77.1499955,1.7041015625
,77.1947133,1.669921875
,77.1949706,1.6357421875
,77.2073649,1.6259765625
,77.2430723,1.6015625
,77.2479865,1.58203125
,77.2885553,1.5625
,77.3198806,1.5478515625
,77.3201832,1.5283203125
,77.3313054,1.5283203125
,77.3477583,1.513671875
,77.383111,1.5185546875
,77.387614,1.5234375
,77.4228143,1.513671875
,77.4430116,1.513671875
,77.4490163,1.50390625
,77.4917755,1.50390625
,77.492024,1.4990234375
,77.5275409,1.5234375
,77.5281179,1.5625
,77.5480574,1.6357421875
,77.5996755,1.7041015625
,77.5999256,1.787109375
,77.6093008,1.845703125
,77.6450706,1.904296875
,77.6498302,1.9482421875
,77.684893,1.9921875
,77.6851323,2.01171875
,77.721689,2.05078125
,77.7324158,2.060546875
,77.7479998,1.9921875
,77.78327,1.982421875
,77.8048961,1.953125
,77.8090255,1.9189453125
,77.8466907,1.8798828125
,77.8671827,1.8505859375
,77.8724409,1.81640625
,77.9086093,1.77734375
,77.9090009,1.7431640625
,77.9552856,1.7138671875
,77.9555995,1.689453125
,77.970719,1.6650390625
,77.989916,1.6357421875
,78.0344548,1.611328125
,78.0348638,1.5966796875
,78.0525005,1.5673828125
,78.0720106,1.552734375
,78.0882153,1.5283203125
,78.1288544,1.5380859375
,78.1292624,1.5234375
,78.1628373,1.5185546875
,78.1847098,1.5087890625
,78.1898867,1.50390625
,78.2265733,1.484375
,78.2317792,1.484375
,78.2477517,1.474609375
,78.2986523,1.484375
,78.2989787,1.4892578125
,78.3101586,1.5234375
,78.3476854,1.5673828125
,78.3480527,1.669921875
,78.3906102,1.7578125
,78.3908545,1.8212890625
,78.4262207,1.8896484375
,78.4468484,1.943359375
,78.4472885,1.9921875
,78.487325,2.03125
,78.487721,2.060546875
,78.5235874,2.0751953125
,78.5475087,2.0703125
,78.5526649,2.0458984375
,78.5716778,2.01171875
,78.5910456,1.9677734375
,78.6122764,1.8994140625
,78.6284951,1.8310546875
,78.6636142,1.8212890625
,78.6694301,1.81640625
,78.7089984,1.787109375
,78.7093928,1.7626953125
,78.7449324,1.7333984375
,78.7649065,1.7138671875
,78.7725244,1.6796875
,78.8147923,1.6552734375
,78.8150757,1.6259765625
,78.8296942,1.6162109375
,78.8638609,1.5966796875
,78.8841632,1.591796875
,78.8902862,1.572265625
,78.9253463,1.5625
,78.9457338,1.552734375
,78.9511732,1.5478515625
,78.9677455,1.533203125
,79.0022245,1.5380859375
,79.0223296,1.5380859375
,79.0293371,1.5283203125
,79.0676547,1.5234375
,79.0970827,1.513671875
,79.09732,1.5087890625
,79.11148,1.5185546875
,79.1484984,1.5576171875
,79.1488894,1.5966796875
,79.1838134,1.6748046875
,79.1899495,1.73828125
,79.2247186,1.806640625
,79.244239,1.85546875
,79.2518919,1.9091796875
,79.2890918,1.943359375
,79.2934841,1.9775390625
,79.3311106,2.0068359375
,79.3315196,2.01171875
,79.350547,2.0068359375
,79.3921346,1.9873046875
,79.3924314,1.9677734375
,79.4111883,1.9287109375
,79.4554824,1.8896484375
,79.4558945,1.8505859375
,79.4721727,1.826171875
,79.493379,1.7822265625
,79.527787,1.71875
,79.5500353,1.6943359375
,79.5503655,1.689453125
,79.5850538,1.669921875
,79.589888,1.6552734375
,79.6271874,1.6259765625
,79.6315607,1.62109375
,79.6734748,1.6064453125
,79.6737322,1.58203125
,79.703454,1.572265625
,79.7099064,1.552734375
,79.7461899,1.5478515625
,79.7512857,1.5380859375
,79.7875596,1.5380859375
,79.7920643,1.5283203125
,79.8293843,1.5234375
,79.8341142,1.5185546875
,79.8547723,1.5087890625
,79.8692976,1.4990234375
,79.9053646,1.5185546875
,79.9108361,1.5283203125
,79.9532422,1.5625
,79.9535596,1.62109375
,79.9719629,1.669921875
,80.0090871,1.73828125
,80.0116205,1.7919921875
,80.0463555,1.8505859375
,80.0672146,1.884765625
,80.0701573,1.9384765625
,80.1085426,1.9677734375
,80.1126281,1.9970703125
,80.1555894,1.9970703125
,80.1558401,1.9970703125
,80.1709477,1.962890625
,80.2050255,1.93359375
,80.2268857,1.89453125
,80.2298327,1.8701171875
,80.2633735,1.8310546875
,80.2830964,1.8115234375
,80.2907477,1.787109375
,80.341369,1.7529296875
,80.3417589,1.728515625
,80.3534143,1.7041015625
,80.389508,1.6748046875
,80.3942193,1.6552734375
,80.4293378,1.6455078125
,80.4297379,1.6259765625
,80.4641166,1.62109375
,80.4856129,1.6162109375
,80.492849,1.6064453125
,80.5418707,1.591796875
,80.5422629,1.5869140625
,80.553191,1.572265625
,80.604546,1.5673828125
,80.6049738,1.5673828125
,80.6335915,1.5478515625
,80.6338413,1.552734375
,80.6688318,1.5576171875
,80.673423,1.5625
,80.7098841,1.5576171875
,80.7126105,1.58203125
,80.7472816,1.6162109375
,80.7670611,1.6796875
,80.7704488,1.728515625
,80.8064757,1.806640625
,80.8115334,1.865234375
,80.8518937,1.9189453125
,80.8523271,1.962890625
,80.8960135,1.9970703125
,80.896283,2.021484375
,80.9149519,2.0458984375
,80.9491114,2.0458984375
,80.9515391,2.0166015625
,80.9907524,1.9873046875
,80.9911086,1.953125
,81.0266626,1.9140625
,81.046994,1.875
,81.0516591,1.845703125
,81.0861644,1.806640625
,81.1074376,1.77734375
,81.1102901,1.7431640625
,81.1617736,1.7236328125
,81.1621795,1.7041015625
,81.17234,1.689453125
,81.2103417,1.669921875
,81.211147,1.650390625
,81.2563243,1.640625
,81.2566438,1.6162109375
,81.2866048,1.6015625
,81.2955778,1.58203125
,81.3331173,1.572265625
,81.3333527,1.552734375
,81.3688853,1.5576171875
,81.3720635,1.552734375
,81.4114735,1.552734375
,81.431034,1.5478515625
,81.4339055,1.552734375
,81.4695437,1.54296875
,81.4750354,1.54296875
,81.4918007,1.5380859375
,81.5130245,1.5625
,81.5509483,1.6015625
,81.5540188,1.6650390625
,81.5729108,1.7333984375
,81.6086257,1.787109375
,81.6293103,1.85546875
,81.6351727,1.8994140625
,81.6716832,1.953125
,81.6722481,1.982421875
,81.7239939,2.0263671875
,81.7243838,2.0556640625
,81.73258,2.0703125
,81.7852356,2.0556640625
,81.7856021,2.0263671875
,81.7943596,1.982421875
,81.814807,1.9482421875
,81.8315307,1.8994140625
,81.8786893,1.865234375
,81.8789286,1.8408203125
,81.9085303,1.796875
,81.913344,1.767578125
,81.9558522,1.7333984375
,81.9561214,1.7138671875
,81.9734998,1.6845703125
,82.0091842,1.66015625
,82.0295794,1.630859375
,82.0330021,1.630859375
,82.0541712,1.611328125
,82.087855,1.6015625
,82.0930507,1.58203125
,82.1316627,1.5771484375
,82.1319892,1.5673828125
,82.174353,1.5576171875
,82.1746416,1.5380859375
,82.1958979,1.5478515625
,82.2167456,1.533203125
,82.2322219,1.5234375
,82.2700792,1.5234375
,82.2753868,1.5234375
,82.2958474,1.5234375
,82.3160363,1.5283203125
,82.3369668,1.5576171875
,82.3557252,1.591796875
,82.3780756,1.650390625
,82.3983785,1.708984375
,82.4146691,1.787109375
,82.4500509,1.8505859375
,82.4548908,1.9189453125
,82.4899626,1.962890625
,82.4931903,1.9970703125
,82.5292288,2.0263671875
,82.5491208,2.0263671875
,82.5579381,2.0166015625
,82.5742294,1.9873046875
,82.6243152,1.97265625
,82.6247078,1.9287109375
,82.6337242,1.8994140625
,82.670059,1.8603515625
,82.6901664,1.8310546875
,82.695337,1.7919921875
,82.7320888,1.7724609375
,82.7324515,1.73828125
,82.7645121,1.7236328125
,82.7850576,1.7041015625
,82.7942909,1.689453125
,82.8402872,1.6650390625
,82.8405358,1.66015625
,82.854998,1.6455078125
,82.8913586,1.62109375
,82.8959877,1.6015625
,82.9180196,1.58203125
,82.9368708,1.533203125
,82.9538826,1.494140625
,82.9909593,1.5234375
,82.996106,1.5380859375
,83.032305,1.5478515625
,83.0352021,1.5478515625
,83.0692446,1.5478515625
,83.0901832,1.54296875
,83.0970219,1.5478515625
,83.114422,1.5576171875
,83.1326926,1.5966796875
,83.1657112,1.6650390625
,83.1884635,1.71875
,83.1949103,1.7822265625
,83.2314283,1.8359375
,83.237905,1.8896484375
,83.2575561,1.923828125
,83.2937242,1.953125
,83.2941161,1.97265625
,83.3387436,1.9970703125
,83.3390631,1.9921875
,83.3556335,1.9873046875
,83.3907543,1.9580078125
,83.4113964,1.9287109375
,83.416206,1.8896484375
,83.4610719,1.85546875
,83.4613126,1.81640625
,83.4833987,1.8115234375
,83.494858,1.796875
,83.5388401,1.7724609375
,83.5391113,1.7529296875
,83.5591898,1.728515625
,83.59225,1.7041015625
,83.5981647,1.6796875
,83.6341802,1.6650390625
,83.6344174,1.6357421875
,83.6691307,1.630859375
,83.6747825,1.62109375
,83.6937079,1.611328125
,83.7308138,1.5966796875
,83.7359282,1.6015625
,83.7714792,1.58203125
,83.7924718,1.572265625
,83.7973325,1.572265625
,83.8188684,1.5576171875
,83.8534728,1.513671875
,83.8537223,1.5185546875
,83.8901979,1.5478515625
,83.9146863,1.572265625
,83.9150811,1.6259765625
,83.9615359,1.6796875
,83.9618473,1.7529296875
,83.9918363,1.806640625
,83.9968439,1.875
,84.0136017,1.9140625
,84.0488396,1.97265625
,84.0683258,2.01171875
,84.0762399,2.041015625
,84.1155746,2.0458984375
,84.1158187,2.0458984375
,84.1500871,2.0263671875
,84.1791577,1.9873046875
,84.1795591,1.953125
,84.1955099,1.9140625
,84.2308097,1.8896484375
,84.2358811,1.85546875
,84.2718102,1.8310546875
,84.2766758,1.7919921875
,84.3173682,1.767578125
,84.317623,1.7333984375
,84.34708,1.7041015625
,84.3555956,1.6748046875
,84.3913701,1.66015625
,84.3945205,1.640625
,84.4302607,1.62109375
,84.4507614,1.6162109375
,84.4571186,1.591796875
,84.5054289,1.58203125
,84.5056752,1.572265625
,84.5177181,1.58203125
,84.5340782,1.5673828125
,84.5701433,1.5771484375
,84.598803,1.572265625
,84.5990985,1.572265625
,84.6169069,1.5625
,84.6515621,1.5673828125
,84.6566021,1.5576171875
,84.6917133,1.58203125
,84.7121069,1.611328125
,84.7192781,1.6748046875
,84.7355807,1.728515625
,84.7854909,1.81640625
,84.7857399,1.884765625
,84.7962307,1.9384765625
,84.8314611,1.9873046875
,84.8526157,2.0263671875
,84.8576284,2.05078125
,84.9090401,2.0654296875
,84.9092824,2.060546875
,84.9147567,2.041015625
,84.9496739,2.0166015625
,84.9717015,1.9873046875
,84.9766608,1.953125
,85.0188739,1.9140625
,85.0191124,1.884765625
,85.0541629,1.845703125
,85.059371,1.8115234375
,85.0962309,1.787109375
,85.0965892,1.748046875
,85.144512,1.728515625
,85.1447656,1.69921875
,85.1575668,1.6796875
,85.1953311,1.6455078125
,85.195718,1.6259765625
,85.2375454,1.6015625
,85.238074,1.5869140625
,85.2579667,1.5673828125
,85.291782,1.572265625
,85.2962899,1.5625
,85.3315137,1.5625
,85.3386303,1.552734375
,85.3729063,1.5478515625
,85.3779203,1.533203125
,85.4143392,1.5380859375
,85.4210643,1.533203125
,85.4355733,1.5234375
,85.4734518,1.5380859375
,85.4761663,1.572265625
,85.5115525,1.6259765625
,85.5175763,1.6845703125
,85.5524453,1.7626953125
,85.5733021,1.8212890625
,85.5784566,1.884765625
,85.6145471,1.9287109375
,85.6194927,1.9775390625
,85.6359954,2.001953125
,85.6700882,2.0458984375
,85.6898444,2.05078125
,85.6971788,2.05078125
,85.738592,2.041015625
,85.7389823,2.001953125
,85.7848209,1.962890625
,85.7852111,1.9287109375
,85.8011107,1.89453125
,85.8164942,1.8505859375
,85.8514585,1.826171875
,85.8721857,1.796875
,85.8775796,1.767578125
,85.915846,1.73828125
,85.9201815,1.708984375
,85.9700455,1.6796875
,85.9702817,1.6552734375
,85.9743819,1.6357421875
,86.0180077,1.6259765625
,86.0183301,1.611328125
,86.0499665,1.6162109375
,86.0596582,1.6064453125
,86.0786557,1.591796875
,86.0984302,1.58203125
,86.1424697,1.572265625
,86.142858,1.5625
,86.1614538,1.5478515625
,86.1752589,1.5478515625
,86.2187578,1.54296875
,86.2189958,1.5478515625
,86.2396856,1.54296875
,86.2587358,1.552734375
,86.2928003,1.5771484375
,86.3132571,1.6357421875
,86.3165315,1.6943359375
,86.3597928,1.7724609375
,86.3602453,1.8505859375
,86.3778904,1.8994140625
,86.4149578,1.953125
,86.4210202,1.9873046875
,86.4418344,2.021484375
,86.4591314,2.03125
,86.4936797,2.0361328125
,86.5136867,2.021484375
,86.520551,1.9921875
,86.5376137,1.953125
,86.5722645,1.9384765625
,86.5927071,1.9140625
,86.5977782,1.8896484375
,86.6334494,1.85546875
,86.6536912,1.826171875
,86.6608134,1.787109375
,86.6955646,1.767578125
,86.7009372,1.73828125
,86.7177131,1.708984375
,86.7547493,1.689453125
,86.7574366,1.6748046875
,86.7933777,1.66015625
,86.8143442,1.6455078125
,86.8197735,1.6357421875
,86.8577568,1.6259765625
,86.8623174,1.611328125
,86.8791502,1.5966796875
,86.915849,1.5966796875
,86.9162426,1.5966796875
,86.9644749,1.591796875
,86.9648865,1.5869140625
,86.9973968,1.5771484375
,86.9976903,1.58203125
,87.0436015,1.5673828125
,87.043858,1.5771484375
,87.064534,1.5966796875
,87.078242,1.6650390625
,87.1238487,1.7236328125
,87.1240884,1.8017578125
,87.1538883,1.865234375
,87.1607142,1.93359375
,87.197932,1.9775390625
,87.2006641,2.03125
,87.2161121,2.0556640625
,87.2532866,2.0947265625
,87.2737452,2.0556640625
,87.2787475,2.0703125
,87.3267427,2.05078125
,87.3269925,2.03125
,87.3409112,2.001953125
,87.3871716,1.962890625
,87.3875374,1.923828125
,87.4014543,1.884765625
,87.4492059,1.845703125
,87.4495237,1.8017578125
,87.4587634,1.7822265625
,87.4942833,1.748046875
,87.5003135,1.7236328125
,87.5218229,1.6943359375
,87.5589206,1.669921875
,87.5612021,1.6455078125
,87.5965037,1.630859375
,87.5968132,1.6162109375
,87.631218,1.611328125
,87.6515922,1.611328125
,87.6587786,1.591796875
,87.6951247,1.5869140625
,87.7165113,1.572265625
,87.7209975,1.5673828125
,87.7578368,1.5478515625
,87.7628225,1.54296875
,87.779535,1.5283203125
,87.8204685,1.5478515625
,87.8207059,1.5771484375
,87.8557513,1.6357421875
,87.8609389,1.6943359375
,87.8959997,1.7724609375
,87.9002973,1.8408203125
,87.9361772,1.904296875
,87.9364749,1.953125
,87.9573061,2.0166015625
,87.9964703,2.0654296875
,87.9994365,2.08984375
,88.0360559,2.109375
,88.041093,2.1044921875
,88.0609612,2.0947265625
,88.1045705,2.060546875
,88.1048225,2.021484375
,88.1225446,1.9775390625
,88.1431191,1.8994140625
,88.1603123,1.826171875
,88.1791745,1.826171875
,88.2149046,1.806640625
,88.2458082,1.787109375
,88.2461826,1.7529296875
,88.2625132,1.728515625
,88.2818903,1.708984375
,88.3189119,1.669921875
,88.3215544,1.6455078125
,88.3402584,1.62109375
,88.3773189,1.611328125
,88.3807458,1.5966796875
,88.4170985,1.58203125
,88.420295,1.5673828125
,88.4644709,1.5576171875
,88.4647116,1.54296875
,88.4857316,1.533203125
,88.4997122,1.5185546875
,88.5437591,1.5234375
,88.544006,1.513671875
,88.5607569,1.5087890625
,88.5976041,1.50390625
,88.6167253,1.5478515625
,88.6219481,1.6015625
,88.6587894,1.6552734375
,88.6634502,1.728515625
,88.6810858,1.7919921875
,88.7304958,1.8701171875
,88.730891,1.923828125
,88.7407118,1.982421875
,88.7781809,2.0166015625
,88.7829765,2.0458984375
,88.8186371,2.0556640625
,88.8216877,2.05078125
,88.8390941,2.0263671875
,88.8895412,2.0068359375
,88.8899732,1.9677734375
,88.9015616,1.9287109375
,88.9378765,1.8994140625
,88.9425362,1.85546875
,88.9800411,1.81640625
,88.9844983,1.77734375
,89.0030562,1.748046875
,89.0401436,1.708984375
,89.042996,1.6796875
,89.0601193,1.640625
,89.080106,1.630859375
,89.1155647,1.6064453125
,89.1359101,1.6015625
,89.1436309,1.5771484375
,89.1816993,1.5673828125
,89.1844495,1.5478515625
,89.2046797,1.54296875
,89.2204575,1.5185546875
,89.2554475,1.533203125
,89.2600013,1.5283203125
,89.2963046,1.5185546875
,89.3016488,1.513671875
,89.3365148,1.5087890625
,89.3563383,1.4990234375
,89.3637578,1.494140625
,89.4003536,1.50390625
,89.4007462,1.533203125
,89.4207644,1.591796875
,89.4611559,1.6552734375
,89.4614539,1.7236328125
,89.4967498,1.7822265625
,89.5248162,1.845703125
,89.5252041,1.884765625
,89.5432312,1.923828125
,89.5771568,1.9677734375
,89.5980759,1.9775390625
,89.6007804,1.9921875
,89.648133,1.9775390625
,89.6484469,1.9677734375
,89.6619076,1.9384765625
,89.7092223,1.904296875
,89.7094761,1.8701171875
,89.7254133,1.8408203125
,89.739954,1.8017578125
,89.7875848,1.7822265625
,89.7878303,1.7578125
,89.8081401,1.7333984375
,89.822238,1.708984375
,89.8672809,1.6796875
,89.8677123,1.650390625
,89.8984062,1.6357421875
,89.9053681,1.6162109375
,89.9434377,1.591796875
,89.9436836,1.5771484375
,89.9614131,1.5625
,90.0067104,1.5576171875
,90.0071032,1.5478515625
,90.023019,1.54296875
,90.0688459,1.5380859375
,90.0691681,1.533203125
,90.0828642,1.5234375
,90.117263,1.5185546875
,90.1383729,1.5087890625
,90.1416965,1.533203125
,90.1931483,1.5576171875
,90.1934004,1.6015625
,90.2046989,1.669921875
,90.2416319,1.728515625
,90.2420269,1.8017578125
,90.2789691,1.85546875
,90.3009846,1.9140625
,90.3014348,1.953125
,90.3370207,2.001953125
,90.3438347,2.0263671875
,90.3932377,2.0361328125
,90.3936267,2.0263671875
,90.4039672,1.9970703125
,90.423728,1.9580078125
,90.4583757,1.9189453125
,90.4785619,1.875
,90.481993,1.845703125
,90.5014235,1.8115234375
,90.5354493,1.7919921875
,90.5556001,1.7626953125
,90.5631428,1.728515625
,90.6111727,1.69921875
,90.6115307,1.669921875
,90.6256034,1.6455078125
,90.6406919,1.62109375
,90.68812,1.62109375
,90.6885095,1.6162109375
,90.718863,1.611328125
,90.7235933,1.6064453125
,90.7439225,1.5966796875
,90.7806292,1.58203125
,90.7836391,1.572265625
,90.8257631,1.5625
,90.8261549,1.5576171875
,90.8719587,1.552734375
,90.8722126,1.533203125
,90.8829614,1.5380859375
,90.9180053,1.5380859375
,90.9239801,1.5625
,90.9433932,1.58203125
,90.9794959,1.6357421875
,91.00048,1.6796875
,91.0049906,1.7431640625
,91.021133,1.787109375
,91.0580392,1.8505859375
,91.088232,1.904296875
,91.0884757,1.9580078125
,91.1037294,1.9921875
,91.1406405,2.0166015625
,91.161061,2.01171875
,91.1664902,2.01171875
,91.2160389,1.9873046875
,91.2162772,1.9482421875
,91.2221246,1.9189453125
,91.2604144,1.8896484375
,91.2627396,1.8603515625
,91.2996253,1.826171875
,91.3047053,1.7919921875
,91.3255686,1.7626953125
,91.3715585,1.7236328125
,91.3718771,1.69921875
,91.3827579,1.6845703125
,91.4343037,1.6650390625
,91.4346953,1.66015625
,91.4436808,1.6455078125
,91.4784588,1.6259765625
,91.4999039,1.62109375
,91.5059675,1.5966796875
,91.5259668,1.58203125
,91.5410133,1.5625
,91.576815,1.572265625
,91.5970897,1.513671875
,91.602775,1.533203125
,91.6415899,1.533203125
,91.6462734,1.5478515625
,91.665652,1.5380859375
,91.7001871,1.5576171875
,91.7064915,1.5625
,91.7419188,1.6015625
,91.7423062,1.6455078125
,91.7776467,1.7333984375
,91.7983945,1.8115234375
,91.8039078,1.89453125
,91.8382902,1.9677734375
,91.8593432,2.0166015625
,91.8672106,2.0654296875
,91.9172516,2.099609375
,91.9176468,2.1240234375
,91.923155,2.1240234375
,91.9601103,2.12890625
,91.9656805,2.1142578125
,91.9857663,2.08984375
,92.0215253,2.05078125
,92.0243242,2.0166015625
,92.0579209,1.982421875
,92.077707,1.943359375
,92.0818822,1.8994140625
,92.1178848,1.875
,92.1392618,1.8505859375
,92.1443813,1.81640625
,92.1803938,1.7822265625
,92.1851838,1.748046875
,92.2272726,1.7236328125
,92.2276136,1.6943359375
,92.2635717,1.6748046875
,92.2638258,1.6455078125
,92.3006668,1.640625
,92.3054555,1.6259765625
,92.3234238,1.6162109375
,92.3590195,1.5966796875
,92.380988,1.5869140625
,92.386321,1.572265625
,92.4075242,1.5576171875
,92.4270438,1.54296875
,92.4470329,1.50390625
,92.4687834,1.484375
,92.484416,1.4697265625
,92.5196021,1.552734375
,92.5257943,1.640625
,92.5623709,1.73828125
,92.5676445,1.81640625
,92.6184364,1.8994140625
,92.6186753,1.9580078125
,92.6277215,2.0166015625
,92.643358,2.0556640625
,92.6785649,2.099609375
,92.6985547,2.1240234375
,92.706784,2.1533203125
,92.7424865,2.138671875
,92.7444953,2.119140625
,92.7784421,2.0947265625
,92.7984817,2.05078125
,92.8080102,2.0166015625
,92.8240576,1.97265625
,92.8592408,1.943359375
,92.8801469,1.8994140625
,92.885537,1.865234375
,92.9211146,1.81640625
,92.9274395,1.787109375
,92.9735354,1.748046875
,92.9737808,1.7236328125
,92.9853056,1.6845703125
,93.0219123,1.669921875
,93.0259393,1.6455078125
,93.0461851,1.630859375
,93.0833068,1.6015625
,93.0878115,1.5966796875
,93.1244098,1.5771484375
,93.1284863,1.5576171875
,93.1786363,1.5478515625
,93.1790293,1.533203125
,93.1849344,1.533203125
,93.219721,1.5283203125
,93.2255623,1.5380859375
,93.261604,1.5478515625
,93.2674957,1.5869140625
,93.3009697,1.650390625
,93.321383,1.7236328125
,93.3280585,1.796875
,93.3488191,1.8310546875
,93.365483,1.865234375
,93.4020988,1.962890625
,93.405494,2.041015625
,93.4266079,2.0849609375
,93.4601776,2.1240234375
,93.4812124,2.138671875
,93.4870378,2.1435546875
,93.5220535,2.119140625
,93.5418548,2.08984375
,93.5440866,2.0458984375
,93.5806435,2.0166015625
,93.5863759,1.9775390625
,93.6279784,1.943359375
,93.6283249,1.8994140625
,93.6583537,1.8603515625
,93.6696489,1.8115234375
,93.7203839,1.7724609375
,93.720758,1.7236328125
,93.7251447,1.708984375
,93.7662384,1.6796875
,93.7665305,1.650390625
,93.8138998,1.62109375
,93.8143168,1.5966796875
,93.8280157,1.572265625
,93.8490065,1.552734375
,93.8918779,1.5283203125
,93.8922741,1.513671875
,93.9055306,1.5087890625
,93.9549992,1.4990234375
,93.9553907,1.494140625
,93.9669183,1.484375
,94.0170356,1.484375
,94.0174258,1.474609375
,94.0283617,1.4794921875
,94.0775825,1.513671875
,94.0778356,1.5576171875
,94.0863179,1.6455078125
,94.1243704,1.7236328125
,94.1447959,1.806640625
,94.1476902,1.8701171875
,94.1821783,1.93359375
,94.1873615,1.9775390625
,94.2245355,2.021484375
,94.248947,2.041015625
,94.249334,2.060546875
,94.2667937,2.0458984375
,94.3109437,2.0361328125
,94.3111831,2.01171875
,94.3260029,1.9775390625
,94.3610563,1.93359375
,94.3821677,1.8994140625
,94.3916203,1.8603515625
,94.4095547,1.8212890625
,94.4457272,1.7822265625
,94.4461126,1.7431640625
,94.4678447,1.7138671875
,94.5038862,1.6748046875
,94.5080067,1.6455078125
,94.5432181,1.6162109375
,94.5485502,1.591796875
,94.5889469,1.5625
,94.5891921,1.54296875
,94.6057266,1.513671875
,94.6508202,1.5087890625
,94.651212,1.494140625
,94.6670071,1.4892578125
,94.6889604,1.484375
,94.7255752,1.46484375
,94.7305054,1.4599609375
,94.7758422,1.46484375
,94.7760784,1.474609375
,94.787737,1.4794921875
,94.8076567,1.494140625
,94.8429231,1.5185546875
,94.8481995,1.5673828125
,94.8988907,1.630859375
,94.8994699,1.7236328125
,94.9086882,1.7919921875
,94.9448156,1.8603515625
,94.9450892,1.9189453125
,94.9810954,1.9873046875
,94.9884511,2.0263671875
,95.0073364,2.0751953125
,95.0449299,2.099609375
,95.0495911,2.0947265625
,95.0704921,2.080078125
,95.0894989,2.05078125
,95.1326075,2.01171875
,95.1328554,1.97265625
,95.1633929,1.9384765625
,95.167998,1.8994140625
,95.1875435,1.8701171875
,95.2237859,1.8310546875
,95.22924,1.796875
,95.25003,1.7626953125
,95.2705692,1.73828125
,95.3202952,1.7041015625
,95.3205964,1.669921875
,95.3318846,1.6455078125
,95.3466927,1.611328125
,95.3827225,1.591796875
,95.4025408,1.5673828125
,95.4076441,1.5625
,95.4433357,1.5380859375
,95.4760099,1.5283203125
,95.4763296,1.513671875
,95.4907019,1.50390625
,95.5083547,1.4892578125
,95.5546678,1.4990234375
,95.5549212,1.494140625
,95.569151,1.4990234375
,95.6170476,1.494140625
,95.6174514,1.513671875
,95.6293553,1.5478515625
,95.6667694,1.6259765625
,95.6712146,1.708984375
,95.6873646,1.7724609375
,95.7258234,1.8505859375
,95.726226,1.9189453125
,95.77369,1.9775390625
,95.7740135,2.021484375
,95.8043098,2.0654296875
,95.8116413,2.0849609375
,95.8507894,2.0849609375
,95.8511053,2.0703125
,95.8678067,2.05078125
,95.904359,2.021484375
,95.9097998,2.001953125
,95.9588911,1.9677734375
,95.9592808,1.9384765625
,95.9701711,1.9140625
,96.0054436,1.875
,96.0267783,1.845703125
,96.0319983,1.8017578125
,96.0828221,1.77734375
,96.0831828,1.728515625
,96.0897239,1.7041015625
,96.1288615,1.669921875
,96.1293099,1.650390625
,96.1628069,1.6162109375
,96.1841738,1.6064453125
,96.1918159,1.572265625
,96.237046,1.5576171875
,96.2372968,1.533203125
,96.2482972,1.5283203125
,96.2844217,1.513671875
,96.3048406,1.5185546875
,96.3098082,1.5185546875
,96.346028,1.50390625
,96.3510485,1.50390625
,96.3708597,1.5087890625
,96.4052501,1.54296875
,96.426525,1.6015625
,96.4296967,1.69921875
,96.4492782,1.7822265625
,96.4859429,1.865234375
,96.4892717,1.93359375
,96.5252315,2.001953125
,96.5313609,2.0458984375
,96.5660069,2.099609375
,96.5964739,2.1240234375
,96.5969942,2.1484375
,96.6091629,2.1630859375
,96.6440319,2.1435546875
,96.6502143,2.1142578125
,96.6903242,2.0751953125
,96.690716,2.041015625
,96.7363119,1.9970703125
,96.7367,1.953125
,96.7473256,1.9091796875
,96.7820543,1.8798828125
,96.801685,1.796875
,96.8083985,1.7919921875
,96.8461362,1.7626953125
,96.8758225,1.7333984375
,96.8760676,1.7041015625
,96.8927556,1.6748046875
,96.9388596,1.6357421875
,96.9391817,1.6162109375
,96.9542335,1.591796875
,96.9701535,1.5625
,97.0174936,1.5478515625
,97.0177494,1.533203125
,97.0309321,1.5185546875
,97.050549,1.50390625
,97.0861913,1.4990234375
,97.1065387,1.484375
,97.1128198,1.474609375
,97.1300178,1.46484375
,97.1705393,1.484375
,97.1707774,1.5185546875
,97.1917989,1.6064453125
,97.231263,1.6796875
,97.2315717,1.7626953125
,97.26658,1.845703125
,97.2721686,1.904296875
,97.3064928,1.962890625
,97.3266602,2.0068359375
,97.3298831,2.060546875
,97.3506851,2.0849609375
,97.3706368,2.099609375
,97.4179937,2.0849609375
,97.418248,2.060546875
,97.4312705,2.021484375
,97.4807192,1.982421875
,97.4809556,1.9384765625
,97.4902774,1.904296875
,97.5285073,1.865234375
,97.5288305,1.826171875
,97.5670828,1.77734375
,97.5696102,1.748046875
,97.606062,1.708984375
,97.6264478,1.6650390625
,97.6313707,1.640625
,97.6545773,1.6064453125
,97.6996962,1.5380859375
,97.70009,1.5234375
,97.7111758,1.5234375
,97.7321623,1.513671875
,97.7742909,1.50390625
,97.7745305,1.494140625
,97.7926753,1.484375
,97.8271965,1.4697265625
,97.8474946,1.4697265625
,97.8506575,1.4599609375
,97.899349,1.4599609375
,97.8995934,1.46484375
,97.9108685,1.455078125
,97.9454879,1.4599609375
,97.9660153,1.484375
,97.9714481,1.54296875
,98.0239444,1.6064453125
,98.0241826,1.69921875
,98.0314147,1.767578125
,98.0519335,1.8505859375
,98.1021631,1.9140625
,98.1025537,1.9775390625
,98.1114517,2.01171875
,98.1467746,2.0458984375
,98.1678711,2.05078125
,98.1731174,2.0458984375
,98.1903378,2.0166015625
,98.2269185,2.0068359375
,98.2316876,1.97265625
,98.2721398,1.943359375
,98.2725387,1.904296875
,98.3188521,1.865234375
,98.3192436,1.8212890625
,98.333717,1.787109375
,98.3797683,1.7578125
,98.3804547,1.7236328125
,98.3907357,1.69921875
,98.4255103,1.6650390625
,98.4454978,1.640625
,98.4526124,1.611328125
,98.4884088,1.591796875
,98.4924879,1.5673828125
,98.5295486,1.5478515625
,98.5337568,1.5380859375
,98.5821569,1.513671875
,98.5824042,1.4990234375
,98.5917743,1.4794921875
,98.6421694,1.484375
,98.6425346,1.474609375
,98.6519067,1.474609375
,98.6865461,1.46484375
,98.7081275,1.46484375
,98.7150121,1.4697265625
,98.7529385,1.5185546875
,98.753231,1.5771484375
,98.788281,1.669921875
,98.7930026,1.7578125
,98.8305327,1.8408203125
,98.8330017,1.904296875
,98.8673982,1.982421875
,98.8922207,2.0361328125
,98.8948566,2.0703125
,98.9400775,2.0947265625
,98.9403809,2.0947265625
,98.9511716,2.08984375
,98.9869124,2.060546875
,98.9920681,2.0361328125
,99.0348699,2.001953125
,99.0352611,1.9677734375
,99.0810786,1.923828125
,99.081385,1.8798828125
,99.0930469,1.8408203125
,99.1122375,1.81640625
