fs,t,y
50.90926369878026,237.6848603,2.0068359375
,237.7040373,1.9921875
,237.7382231,1.97265625
,237.7586049,1.9580078125
,237.7675506,1.943359375
,237.7810124,1.923828125
,237.8166538,1.9140625
,237.8209869,1.89453125
,237.8582424,1.8798828125
,237.8637673,1.8603515625
,237.8995973,1.8408203125
,237.9042873,1.81640625
,237.9394861,1.796875
,237.9466592,1.77734375
,237.9631856,1.7578125
,238.0100288,1.748046875
,238.0104279,1.7333984375
,238.0237013,1.71875
,238.0594931,1.7041015625
,238.0645748,1.69921875
,238.0997039,1.689453125
,238.1195971,1.6748046875
,238.1251629,1.6748046875
,238.1429785,1.6845703125
,238.162282,1.728515625
,238.1969996,1.7822265625
,238.2175876,1.845703125
,238.2243532,1.89453125
,238.261428,1.943359375
,238.2662439,1.9775390625
,238.301343,2.0068359375
,238.3055259,2.0166015625
,238.3278681,2.021484375
,238.3430127,2.021484375
,238.3776419,2.01171875
,238.3821935,2.001953125
,238.4168855,1.9921875
,238.4373108,1.982421875
,238.4439266,1.97265625
,238.4782637,1.9580078125
,238.50615,1.9384765625
,238.5065873,1.9189453125
,238.554126,1.89453125
,238.5544605,1.875
,238.5635205,1.8603515625
,238.59894,1.8408203125
,238.6028958,1.826171875
,238.6376826,1.8017578125
,238.660661,1.77734375
,238.6647882,1.7578125
,238.7070508,1.73828125
,238.7074813,1.7236328125
,238.741124,1.708984375
,238.7455324,1.6943359375
,238.7850567,1.6943359375
,238.7855005,1.6796875
,238.8309808,1.6650390625
,238.8312679,1.6552734375
,238.8512363,1.66015625
,238.8625625,1.669921875
,238.9092444,1.7138671875
,238.9099013,1.7626953125
,238.9235061,1.8212890625
,238.9696083,1.875
,238.9699664,1.923828125
,238.986413,1.9580078125
,239.0222035,1.982421875
,239.0251834,1.9970703125
,239.058826,2.001953125
,239.0788328,1.9970703125
,239.0834667,2.001953125
,239.1190384,1.9873046875
,239.1393847,1.9775390625
,239.1468356,1.9677734375
,239.1923334,1.953125
,239.1929112,1.9384765625
,239.2065782,1.923828125
,239.2439431,1.904296875
,239.2447701,1.8896484375
,239.2806181,1.875
,239.2856982,1.8603515625
,239.3212151,1.8408203125
,239.3255559,1.81640625
,239.3612504,1.8017578125
,239.3944938,1.7822265625
,239.3950045,1.767578125
,239.4071507,1.748046875
,239.4246288,1.7333984375
,239.4614713,1.7236328125
,239.4662153,1.708984375
,239.5027908,1.69921875
,239.5056043,1.6845703125
,239.5510422,1.6748046875
,239.551419,1.669921875
,239.5676451,1.6748046875
,239.5839288,1.689453125
,239.6201489,1.73828125
,239.624936,1.7919921875
,239.6630615,1.85546875
,239.6658544,1.904296875
,239.6872066,1.9482421875
,239.7345871,1.9775390625
,239.7348889,2.001953125
,239.748023,2.0166015625
,239.7991982,2.021484375
,239.7997423,2.01171875
,239.8044113,2.001953125
,239.8403309,1.9873046875
,239.8468176,1.97265625
,239.8932873,1.962890625
,239.8938637,1.9482421875
,239.909124,1.93359375
,239.9455752,1.9189453125
,239.9461421,1.904296875
,239.9647143,1.884765625
,240.0018238,1.875
,240.0075425,1.85546875
,240.0265726,1.8408203125
,240.0616325,1.826171875
,240.0667595,1.806640625
,240.1017646,1.787109375
,240.1242661,1.767578125
,240.128579,1.7529296875
,240.1444915,1.7431640625
,240.1793427,1.728515625
,240.1860276,1.71875
,240.206875,1.7041015625
,240.2411624,1.6943359375
,240.2489912,1.6845703125
,240.2684439,1.689453125
,240.3094902,1.708984375
,240.3100461,1.748046875
,240.3284587,1.8017578125
,240.3466378,1.8408203125
,240.3810096,1.904296875
,240.3857982,1.9482421875
,240.4235531,1.9775390625
,240.4291619,2.0068359375
,240.4482292,2.0166015625
,240.4675746,2.021484375
,240.5124156,2.0166015625
,240.5129716,2.001953125
,240.5258109,1.9921875
,240.5636019,1.982421875
,240.5683992,1.97265625
,240.6070056,1.9580078125
,240.6073884,1.943359375
,240.6430065,1.93359375
,240.6474384,1.9189453125
,240.6820016,1.904296875
,240.7141929,1.884765625
,240.7147611,1.865234375
,240.7257682,1.8505859375
,240.7767645,1.8359375
,240.7770551,1.81640625
,240.7878963,1.796875
,240.8225443,1.77734375
,240.82957,1.767578125
,240.8651825,1.7529296875
,240.8656164,1.73828125
,240.9018043,1.728515625
,240.9063184,1.7138671875
,240.9433582,1.7041015625
,240.9476838,1.69921875
,240.9843834,1.7041015625
,240.989684,1.728515625
,241.0276085,1.767578125
,241.0301373,1.8212890625
,241.0498728,1.8701171875
,241.0695991,1.9091796875
,241.0872049,1.9384765625
,241.1233009,1.9775390625
,241.1288889,2.001953125
,241.1636513,2.021484375
,241.1683989,2.0263671875
,241.2052703,2.021484375
,241.2084569,2.01171875
,241.2442881,2.0068359375
,241.2779497,1.9921875
,241.2782431,1.9873046875
,241.2872066,1.97265625
,241.3261611,1.962890625
,241.3268053,1.953125
,241.3622828,1.93359375
,241.3840252,1.9189453125
,241.391169,1.89453125
,241.4262187,1.8798828125
,241.4265096,1.8603515625
,241.4631625,1.845703125
,241.4677887,1.826171875
,241.5047815,1.8017578125
,241.5076635,1.7822265625
,241.5437561,1.7724609375
,241.5643793,1.7529296875
,241.5714003,1.7431640625
,241.5876301,1.7236328125
,241.6081779,1.7138671875
,241.6417649,1.69921875
,241.6493038,1.69921875
,241.7000929,1.7138671875
,241.7005103,1.7333984375
,241.7096312,1.77734375
,241.7466279,1.8212890625
,241.7491826,1.865234375
,241.7705807,1.8994140625
,241.7921709,1.9140625
,241.8077282,1.9287109375
,241.8583832,1.9482421875
,241.858774,1.9580078125
,241.8903396,1.953125
,241.8908156,1.9384765625
,241.935054,1.9189453125
,241.9356315,1.8994140625
,241.9515604,1.884765625
,241.9962881,1.8701171875
,241.996721,1.8505859375
,242.0081319,1.8408203125
,242.0440382,1.8310546875
,242.0484199,1.8115234375
,242.0832567,1.7919921875
,242.103346,1.767578125
,242.1118563,1.73828125
,242.1482132,1.708984375
,242.1484959,1.6796875
,242.1836137,1.650390625
,242.1886701,1.62109375
,242.2255035,1.5966796875
,242.229708,1.5673828125
,242.2645669,1.5380859375
,242.2691059,1.5087890625
,242.307038,1.484375
,242.3103821,1.4599609375
,242.3272127,1.4453125
,242.3622809,1.4404296875
,242.382312,1.4453125
,242.3909723,1.474609375
,242.4275472,1.5185546875
,242.4304569,1.572265625
,242.4770142,1.6162109375
,242.4773089,1.66015625
,242.4904872,1.689453125
,242.5406264,1.7138671875
,242.5410507,1.73828125
,242.5696046,1.7626953125
,242.5699406,1.767578125
,242.6054993,1.767578125
,242.633453,1.7724609375
,242.6337377,1.7724609375
,242.6526717,1.767578125
,242.6887256,1.767578125
,242.6915635,1.767578125
,242.7082329,1.7724609375
,242.7432933,1.7822265625
,242.7495456,1.7822265625
,242.7862386,1.77734375
,242.7921511,1.767578125
,242.8291975,1.767578125
,242.8296276,1.7626953125
,242.8669833,1.7578125
,242.8675484,1.748046875
,242.9029797,1.748046875
,242.9085783,1.748046875
,242.9449329,1.748046875
,242.9510397,1.7529296875
,242.9838407,1.748046875
,243.0058333,1.7431640625
,243.0127331,1.748046875
,243.0551255,1.7578125
,243.0554116,1.7724609375
,243.0691881,1.81640625
,243.1050558,1.865234375
,243.1342923,1.93359375
,243.1345815,1.9921875
,243.1499503,2.0458984375
,243.1978461,2.08984375
,243.198317,2.1240234375
,243.2116474,2.1484375
,243.2591168,2.158203125
,243.2595743,2.1630859375
,243.2709252,2.1484375
,243.2897583,2.1240234375
,243.32461,2.08984375
,243.3465994,2.0458984375
,243.3504172,1.9921875
,243.3872261,1.943359375
,243.4072512,1.89453125
,243.4145113,1.85546875
,243.429692,1.81640625
,243.478431,1.7919921875
,243.4788564,1.7578125
,243.4980597,1.7333984375
,243.5099273,1.708984375
,243.5458386,1.689453125
,243.5659088,1.669921875
,243.5740884,1.650390625
,243.6183641,1.6357421875
,243.6188497,1.62109375
,243.6315202,1.6162109375
,243.6517686,1.611328125
,243.6878665,1.6064453125
,243.6926095,1.611328125
,243.7415568,1.630859375
,243.7421358,1.6650390625
,243.75311,1.7138671875
,243.7695506,1.7626953125
,243.8186807,1.81640625
,243.8192607,1.865234375
,243.829636,1.9140625
,243.8655746,1.9482421875
,243.8721345,1.9775390625
,243.9092766,2.0068359375
,243.9148428,2.021484375
,243.9497745,2.0361328125
,243.9543021,2.03125
,243.9894792,2.0166015625
,243.9897667,1.9970703125
,244.0239329,1.982421875
,244.0441717,1.962890625
,244.0515689,1.9482421875
,244.0965832,1.923828125
,244.0968704,1.9140625
,244.1132699,1.89453125
,244.1595761,1.8798828125
,244.1601547,1.865234375
,244.1703923,1.845703125
,244.2068705,1.826171875
,244.2108088,1.81640625
,244.2503484,1.796875
,244.2551015,1.767578125
,244.290381,1.7333984375
,244.2952134,1.7041015625
,244.3310271,1.6748046875
,244.3316024,1.6455078125
,244.3499238,1.6162109375
,244.385374,1.58203125
,244.4055907,1.5576171875
,244.4106822,1.54296875
,244.4469481,1.5478515625
,244.4675523,1.5771484375
,244.4726579,1.6259765625
,244.4888855,1.6845703125
,244.5219333,1.748046875
,244.5424928,1.81640625
,244.5512611,1.8798828125
,244.586819,1.953125
,244.5918322,2.01171875
,244.6267498,2.060546875
,244.6478396,2.0849609375
,244.6546456,2.0849609375
,244.6906007,2.080078125
,244.695838,2.0654296875
,244.7105941,2.0458984375
,244.7522604,2.0263671875
,244.7525453,1.9970703125
,244.7725179,1.962890625
,244.8106348,1.9287109375
,244.8139315,1.8896484375
,244.8508811,1.8505859375
,244.8552899,1.8212890625
,244.8762601,1.796875
,244.8909861,1.7724609375
,244.9283417,1.7578125
,244.9310791,1.7431640625
,244.9740934,1.728515625
,244.9746564,1.71875
,245.003814,1.708984375
,245.0130643,1.6943359375
,245.0492821,1.6845703125
,245.0517318,1.669921875
,245.0990566,1.669921875
,245.0996316,1.689453125
,245.112061,1.728515625
,245.1606779,1.767578125
,245.1610809,1.81640625
,245.1908446,1.865234375
,245.1934816,1.9091796875
,245.2383722,1.943359375
,245.2388088,1.962890625
,245.258057,1.982421875
,245.2723487,1.9873046875
,245.3081445,1.9873046875
,245.3324526,1.9775390625
,245.332744,1.9677734375
,245.3793845,1.9482421875
,245.3798486,1.93359375
,245.3991539,1.9189453125
,245.4156673,1.9091796875
,245.4329899,1.8994140625
,245.4691136,1.8896484375
,245.4743711,1.8798828125
,245.5117772,1.875
,245.5137325,1.865234375
,245.5477357,1.85546875
,245.5681307,1.845703125
,245.5760356,1.8408203125
,245.6122583,1.845703125
,245.6128259,1.865234375
,245.648943,1.904296875
,245.6560134,1.9384765625
,245.6738043,1.962890625
,245.7100686,1.962890625
,245.7152927,1.943359375
,245.7501775,1.923828125
,245.758227,1.9189453125
,245.7720881,1.9384765625
,245.8205012,1.9775390625
,245.8210738,2.021484375
,245.8359582,2.0556640625
,245.8821933,2.0849609375
,245.8827675,2.109375
,245.8952313,2.12890625
,245.931564,2.1337890625
,245.9361611,2.12890625
,245.9524289,2.1240234375
,245.9883454,2.1142578125
,245.9932339,2.099609375
,246.0287708,2.0849609375
,246.0347682,2.0654296875
,246.0708077,2.05078125
,246.0770463,2.0361328125
,246.0955945,2.0166015625
,246.1314488,2.001953125
,246.1363084,1.982421875
,246.1706965,1.9580078125
,246.1910306,1.9287109375
,246.1957309,1.9091796875
,246.2310426,1.884765625
,246.2350776,1.8603515625
,246.2704644,1.8359375
,246.3035724,1.81640625
,246.3041413,1.796875
,246.3168581,1.77734375
,246.3342541,1.7578125
,246.3820649,1.748046875
,246.3826149,1.7431640625
,246.3936202,1.7578125
,246.4309001,1.787109375
,246.4361957,1.8310546875
,246.4567989,1.8798828125
,246.492667,1.923828125
,246.4970721,1.962890625
,246.5130325,1.9921875
,246.547655,2.0166015625
,246.5695719,2.0263671875
,246.5764579,2.03125
,246.5971902,2.0263671875
,246.6321103,2.0166015625
,246.6351722,1.9970703125
,246.6699233,1.9775390625
,246.6900384,1.962890625
,246.6927057,1.953125
,246.7296366,1.93359375
,246.7349748,1.9189453125
,246.7707489,1.8994140625
,246.8014952,1.884765625
,246.8020665,1.8701171875
,246.8145032,1.8505859375
,246.8518965,1.8310546875
,246.8564028,1.806640625
,246.8922227,1.7919921875
,246.9124153,1.767578125
,246.9147431,1.7578125
,246.9581682,1.73828125
,246.9584706,1.71875
,246.9768097,1.69921875
,247.010472,1.6845703125
,247.0175333,1.6650390625
,247.0684957,1.6552734375
,247.0688267,1.6552734375
,247.0977464,1.6845703125
,247.0980366,1.7333984375
,247.1159053,1.77734375
,247.1512012,1.826171875
,247.1565105,1.8603515625
,247.1778425,1.89453125
,247.2134375,1.9091796875
,247.218433,1.923828125
,247.233399,1.923828125
,247.2696804,1.9189453125
,247.2898211,1.9091796875
,247.2952546,1.8994140625
,247.3323919,1.884765625
,247.3350163,1.865234375
,247.3715116,1.8505859375
,247.3970944,1.8359375
,247.3976442,1.8212890625
,247.4160709,1.81640625
,247.4508621,1.8017578125
,247.4558877,1.77734375
,247.4755139,1.767578125
,247.5221067,1.7578125
,247.5225907,1.7431640625
,247.5509482,1.7236328125
,247.5556375,1.708984375
,247.5987591,1.6943359375
,247.5991929,1.6748046875
,247.6190646,1.66015625
,247.6372586,1.640625
,247.6559776,1.6259765625
,247.6898078,1.6259765625
,247.7107681,1.6357421875
,247.7187358,1.6650390625
,247.7384557,1.7138671875
,247.7852477,1.767578125
,247.7855461,1.8310546875
,247.7959683,1.875
,247.8165285,1.9189453125
,247.8517563,1.943359375
,247.8577454,1.9580078125
,247.8952742,1.962890625
,247.8971858,1.962890625
,247.9329662,1.9482421875
,247.9400926,1.93359375
,247.9559469,1.9189453125
,248.0049309,1.9091796875
,248.0052186,1.8994140625
,248.0253107,1.884765625
,248.0371918,1.875
,248.0733606,1.865234375
,248.0789735,1.85546875
,248.1143751,1.8408203125
,248.1171306,1.826171875
,248.1362864,1.806640625
,248.1606954,1.796875
,248.1770988,1.7724609375
,248.2226898,1.767578125
,248.2232106,1.7529296875
,248.2373056,1.7333984375
,248.2747975,1.71875
,248.2792541,1.7041015625
,248.3166258,1.69921875
,248.3214155,1.708984375
,248.3366039,1.728515625
,248.3729469,1.77734375
,248.3770947,1.8359375
,248.4141242,1.8798828125
,248.4187835,1.923828125
,248.4533751,1.953125
,248.4736996,1.9775390625
,248.4788814,1.9921875
,248.5157223,1.9970703125
,248.5161538,1.9873046875
,248.5508387,1.9775390625
,248.5711399,1.962890625
,248.5792558,1.953125
,248.6142139,1.93359375
,248.6168317,1.9189453125
,248.6509472,1.8994140625
,248.6708433,1.8896484375
,248.6750785,1.875
,248.7252478,1.8701171875
,248.7258042,1.85546875
,248.7544472,1.8408203125
,248.7569674,1.826171875
,248.7937399,1.806640625
,248.8006286,1.787109375
,248.8500344,1.767578125
,248.8505897,1.748046875
,248.8562024,1.7333984375
,248.8923876,1.71875
,248.8971556,1.689453125
,248.9192246,1.6943359375
,248.954893,1.708984375
,248.9576193,1.7529296875
,248.996458,1.8017578125
,249.0010567,1.8603515625
,249.0200682,1.9091796875
,249.0556263,1.943359375
,249.0598198,1.9775390625
,249.0936698,1.9970703125
,249.0966507,2.01171875
,249.1307022,2.01171875
,249.1529685,2.001953125
,249.1588121,1.9921875
,249.1959429,1.982421875
,249.2018424,1.97265625
,249.2213669,1.9580078125
,249.2379524,1.9482421875
,249.259287,1.9482421875
,249.3003211,1.9384765625
,249.3006103,1.93359375
,249.3330472,1.9140625
,249.3389532,1.904296875
,249.3801246,1.8896484375
,249.380692,1.8701171875
,249.4151406,1.8505859375
,249.4199907,1.8212890625
,249.4538185,1.8017578125
,249.4581647,1.77734375
,249.5046378,1.7529296875
,249.5049355,1.728515625
,249.5221327,1.7138671875
,249.5416192,1.7236328125
,249.5765327,1.7529296875
,249.5817828,1.7919921875
,249.6012016,1.8359375
,249.6181278,1.875
,249.6383585,1.9189453125
,249.6722064,1.953125
,249.6923574,1.9775390625
,249.7002466,1.9873046875
,249.721849,1.982421875
,249.7580686,1.982421875
,249.7625376,1.97265625
,249.802,1.9580078125
,249.8022896,1.943359375
,249.8178205,1.93359375
,249.8523417,1.923828125
,249.8726504,1.9189453125
,249.8800107,1.9140625
,249.9153802,1.8994140625
,249.9210384,1.884765625
,249.9416026,1.8701171875
,249.9578825,1.85546875
,249.9940093,1.8408203125
,250.0208832,1.8212890625
,250.0213709,1.8017578125
,250.040155,1.7822265625
,250.0760268,1.7626953125
,250.081227,1.748046875
,250.1182244,1.7333984375
,250.122759,1.7333984375
,250.1395113,1.7529296875
,250.1739074,1.796875
,250.1795192,1.8408203125
,250.2185673,1.8896484375
,250.2189202,1.9287109375
,250.254367,1.9677734375
,250.2748511,1.9873046875
,250.2806634,1.9970703125
,250.316476,1.9970703125
,250.3381288,1.9873046875
,250.3438814,1.962890625
,250.3592745,1.9482421875
,250.3968432,1.93359375
,250.3988093,1.9189453125
,250.4321148,1.8994140625
,250.4522252,1.8896484375
,250.4643725,1.875
,250.4820188,1.8603515625
,250.5190798,1.845703125
,250.5194219,1.8212890625
,250.5394398,1.806640625
,250.5746313,1.7919921875
,250.5787822,1.77734375
,250.615205,1.7529296875
,250.6407315,1.73828125
,250.6410233,1.7236328125
,250.6783171,1.7041015625
,250.6828202,1.6845703125
,250.6989974,1.6650390625
,250.736303,1.6650390625
,250.7562386,1.6845703125
,250.7611288,1.7236328125
,250.7812322,1.7626953125
,250.8172768,1.8115234375
,250.8223884,1.8505859375
,250.8583857,1.884765625
,250.8586733,1.8994140625
,250.8942803,1.9140625
,250.8993717,1.9091796875
,250.9355849,1.89453125
,250.9555233,1.8798828125
,250.9623998,1.8505859375
,250.9970727,1.8212890625
,251.0040578,1.796875
,251.0467716,1.7822265625
,251.0470561,1.767578125
,251.0639634,1.7431640625
,251.0798791,1.7333984375
,251.1148689,1.728515625
,251.1351823,1.71875
,251.1432619,1.7138671875
,251.1630342,1.69921875
,251.1969821,1.6845703125
,251.201948,1.669921875
,251.2376882,1.6552734375
,251.2568835,1.640625
,251.2616912,1.630859375
,251.2962612,1.6162109375
,251.3010141,1.6015625
,251.3471791,1.5966796875
,251.3477426,1.6064453125
,251.377139,1.640625
,251.3821044,1.689453125
,251.417571,1.748046875
,251.4396073,1.806640625
,251.4402173,1.865234375
,251.4761518,1.904296875
,251.4832852,1.93359375
,251.5191995,1.943359375
,251.5238253,1.9482421875
,251.5577725,1.943359375
,251.5648751,1.9287109375
,251.6013978,1.9091796875
,251.6022555,1.884765625
,251.6217238,1.865234375
,251.6578804,1.845703125
,251.6611256,1.8310546875
,251.6977594,1.8115234375
,251.7027819,1.787109375
,251.7399422,1.767578125
,251.7443609,1.7431640625
,251.7846326,1.71875
,251.7852003,1.6943359375
,251.8008817,1.669921875
,251.8370705,1.650390625
,251.8420537,1.630859375
,251.8631824,1.6162109375
,251.8978637,1.6015625
,251.9046421,1.5869140625
,251.9247858,1.5771484375
,251.9725404,1.5625
,251.9730579,1.5625
,251.9813576,1.5869140625
,252.0163848,1.630859375
,252.023472,1.689453125
,252.0576716,1.7578125
,252.0628847,1.8212890625
,252.0970474,1.8701171875
,252.1184384,1.904296875
,252.125612,1.9384765625
,252.142196,1.953125
,252.1881674,1.962890625
,252.1884558,1.9580078125
,252.2017464,1.9384765625
,252.2394481,1.923828125
,252.2438483,1.9091796875
,252.2648198,1.8896484375
,252.3153092,1.8701171875
,252.315778,1.85546875
,252.3225018,1.8408203125
,252.358865,1.8310546875
,252.3607355,1.81640625
,252.3950103,1.8017578125
,252.4157406,1.7822265625
,252.425061,1.7626953125
,252.4604241,1.7431640625
,252.4651239,1.7236328125
,252.4990436,1.7041015625
,252.5192064,1.6845703125
,252.5216312,1.669921875
,252.5581211,1.66015625
,252.5605214,1.6455078125
,252.5946449,1.630859375
,252.6168591,1.6259765625
,252.625293,1.6357421875
,252.661907,1.669921875
,252.6637138,1.7236328125
,252.6992498,1.77734375
,252.7299858,1.8310546875
,252.7304161,1.884765625
,252.7427293,1.923828125
,252.7793957,1.953125
,252.7844399,1.962890625
,252.8232574,1.9775390625
,252.8258992,1.97265625
,252.8617461,1.962890625
,252.8644041,1.943359375
,252.9004689,1.9189453125
,252.9008272,1.9091796875
,252.9353471,1.8896484375
,252.9562175,1.875
,252.9642724,1.8603515625
,252.9996103,1.8408203125
,253.0051129,1.8212890625
,253.0411196,1.8115234375
,253.0414364,1.7919921875
,253.075981,1.7724609375
,253.0967082,1.7529296875
,253.1026454,1.7333984375
,253.1368809,1.7138671875
,253.1680966,1.689453125
,253.1684979,1.669921875
,253.1853234,1.6455078125
,253.2305302,1.6259765625
,253.2308164,1.611328125
,253.2505595,1.5966796875
,253.2639711,1.58203125
,253.2985999,1.591796875
,253.3069927,1.62109375
,253.326323,1.6796875
,253.3703225,1.73828125
,253.3707094,1.8017578125
,253.3847681,1.8505859375
,253.4228946,1.89453125
,253.4234661,1.9287109375
,253.4588177,1.953125
,253.4655918,1.962890625
,253.5122024,1.962890625
,253.5127545,1.953125
,253.5244937,1.9384765625
,253.5573058,1.9189453125
,253.5775768,1.89453125
,253.5884883,1.8798828125
,253.603749,1.865234375
,253.639422,1.8603515625
,253.6453883,1.8505859375
,253.6815543,1.8359375
,253.686142,1.8212890625
,253.7218605,1.806640625
,253.7247652,1.787109375
,253.7610989,1.7724609375
,253.7953182,1.7529296875
,253.7956089,1.73828125
,253.8026234,1.71875
,253.8369488,1.708984375
,253.8589102,1.69921875
,253.8675932,1.6796875
,253.8878847,1.66015625
,253.9063907,1.650390625
,253.9278115,1.640625
,253.9476849,1.640625
,253.969001,1.6552734375
,253.9848408,1.6943359375
,254.0231804,1.7578125
,254.0237548,1.81640625
,254.05962340000002,1.8798828125
,254.080016,1.923828125
,254.08727699999997,1.962890625
,254.1379591,1.9921875
,254.1386165,2.0068359375
,254.148328,2.0068359375
,254.16671079999998,1.9921875
,254.184824,1.97265625
,254.22954750000002,1.953125
,254.22988279999998,1.9384765625
,254.2482468,1.9189453125
,254.26673219999998,1.904296875
,254.30853280000002,1.884765625
,254.3087949,1.875
,254.3242393,1.8603515625
,254.3687719,1.8505859375
,254.36920500000002,1.8310546875
,254.3863113,1.8115234375
,254.4245585,1.7919921875
,254.4248955,1.77734375
,254.4603414,1.7529296875
,254.48182960000003,1.73828125
,254.48675409999998,1.7138671875
,254.50401090000003,1.7041015625
,254.5411527,1.6943359375
,254.5457707,1.6796875
,254.5794907,1.669921875
,254.60059769999998,1.650390625
,254.6060016,1.6357421875
,254.6486521,1.640625
,254.64892350000002,1.669921875
,254.67920930000002,1.7138671875
,254.68843879999997,1.77734375
,254.70464650000002,1.8359375
,254.7375697,1.89453125
,254.75843049999997,1.9384765625
,254.7653209,1.9677734375
,254.802613,1.9921875
,254.806899,1.9970703125
,254.82869599999998,1.9970703125
,254.8507808,1.9873046875
,254.87008200000002,1.9677734375
,254.88564259999998,1.943359375
,254.92076859999997,1.93359375
,254.92507189999998,1.9189453125
,254.95902790000002,1.904296875
,254.97910789999997,1.8896484375
,254.98852240000002,1.8798828125
,255.0244379,1.865234375
,255.0286345,1.8505859375
,255.0458764,1.8359375
,255.0962277,1.81640625
,255.0965245,1.796875
,255.1076607,1.7822265625
,255.15813100000003,1.7626953125
,255.15855870000001,1.7431640625
,255.16819700000002,1.7236328125
,255.1884541,1.7041015625
,255.22376250000002,1.689453125
,255.22419789999998,1.669921875
,255.2437827,1.66015625
,255.2791783,1.6455078125
,255.3009014,1.6357421875
,255.30602340000002,1.6455078125
,255.35082219999998,1.6796875
,255.35125670000002,1.7333984375
,255.36774100000002,1.796875
,255.40308670000002,1.85546875
,255.42310730000003,1.9140625
,255.4282758,1.962890625
,255.4468663,1.9921875
,255.49196369999999,2.0166015625
,255.49243109999998,2.03125
,255.5137436,2.041015625
,255.5282429,2.041015625
,255.57123030000002,2.0263671875
,255.57180390000002,2.0068359375
,255.5912803,1.9873046875
,255.60739619999998,1.97265625
,255.6429668,1.9580078125
,255.6460343,1.943359375
,255.682507,1.9287109375
,255.6864369,1.9140625
,255.72258040000003,1.89453125
,255.7427058,1.875
,255.74944119999998,1.8603515625
,255.78549329999998,1.8359375
,255.7860677,1.8115234375
,255.8055025,1.7919921875
,255.8468269,1.7724609375
,255.8777956,1.7529296875
,255.87808940000002,1.728515625
,255.8891926,1.7138671875
,255.92480790000002,1.6943359375
,255.931982,1.6748046875
,255.9472404,1.6552734375
,255.9811772,1.640625
,255.98538430000002,1.62109375
,256.0223497,1.6455078125
,256.0294611,1.6943359375
,256.050889,1.7578125
,256.0702562,1.826171875
,256.1049298,1.884765625
,256.1100706,1.943359375
,256.1579429,1.982421875
,256.1582794,2.0166015625
,256.1670853,2.0361328125
,256.2019559,2.0458984375
,256.2227118,2.05078125
,256.2279885,2.041015625
,256.2628982,2.0263671875
,256.2831317,2.0068359375
,256.2910007,1.9873046875
,256.3286364,1.9677734375
,256.3292004,1.953125
,256.3471917,1.9384765625
,256.3829592,1.923828125
,256.3880121,1.9140625
,256.421518,1.89453125
,256.4425869,1.875
,256.4497195,1.8505859375
,256.4703283,1.826171875
,256.5151764,1.806640625
,256.5158346,1.7822265625
,256.5352361,1.7724609375
,256.5480488,1.7529296875
,256.590903,1.7333984375
,256.5912474,1.71875
,256.6110907,1.7041015625
,256.6297612,1.6845703125
,256.6653935,1.669921875
,256.6659407,1.650390625
,256.693355,1.6455078125
,256.7118321,1.6357421875
,256.7279906,1.6552734375
,256.7796735,1.708984375
,256.78012,1.7724609375
,256.7910504,1.845703125
,256.8407534,1.9091796875
,256.8410505,1.9580078125
,256.8512449,1.9970703125
,256.8871751,2.021484375
,256.8874708,2.0361328125
,256.9246032,2.0458984375
,256.9291871,2.041015625
,256.9644003,2.0263671875
,256.9847073,2.0068359375
,256.9896574,1.9873046875
,257.026945,1.9677734375
,257.0594623,1.953125
,257.0598701,1.9384765625
,257.0669485,1.9189453125
,257.120034,1.9091796875
,257.1203709,1.8896484375
,257.1307942,1.875
,257.1678403,1.8505859375
,257.1722973,1.826171875
,257.2157681,1.8017578125
,257.2161707,1.7822265625
,257.2277289,1.7578125
,257.2647023,1.7333984375
,257.2690945,1.7138671875
,257.2905825,1.69921875
,257.3104195,1.6796875
,257.3549202,1.66015625
,257.3552157,1.640625
,257.3732135,1.6259765625
,257.416619,1.611328125
,257.4169098,1.5966796875
,257.4327818,1.5966796875
,257.450248,1.6162109375
,257.4855594,1.6845703125
,257.4902883,1.7529296875
,257.5259956,1.826171875
,257.53057,1.884765625
,257.5658046,1.943359375
,257.5858348,1.9775390625
,257.5939594,2.001953125
,257.6084479,2.0166015625
,257.6520222,2.021484375
,257.6526205,2.01171875
,257.6820676,1.9970703125
,257.6905748,1.9775390625
,257.7254216,1.9580078125
,257.7452265,1.943359375
,257.754729,1.923828125
,257.7726287,1.9091796875
,257.7902289,1.89453125
,257.8100588,1.884765625
,257.8313174,1.865234375
,257.8655391,1.845703125
,257.8707274,1.826171875
,257.9147717,1.8115234375
,257.9152016,1.787109375
,257.9452958,1.7724609375
,257.9495371,1.748046875
,257.9840471,1.728515625
,258.0039104,1.7138671875
,258.0113835,1.69921875
,258.0470261,1.6796875
,258.0500232,1.6650390625
,258.0837911,1.6552734375
,258.1041883,1.6455078125
,258.1117864,1.6357421875
,258.1336674,1.640625
,258.1535742,1.6552734375
,258.1704177,1.69921875
,258.2124324,1.77734375
,258.2127157,1.845703125
,258.2322919,1.9091796875
,258.2537595,1.953125
,258.2732983,1.9921875
,258.2951001,2.01171875
,258.3138781,2.03125
,258.3473947,2.0263671875
,258.3684021,2.01171875
,258.3716243,2.001953125
,258.391705,1.9873046875
,258.426405,1.9677734375
,258.4483427,1.9482421875
,258.4528112,1.93359375
,258.4884353,1.9140625
,258.4936159,1.904296875
,258.5103653,1.884765625
,258.5453852,1.8701171875
,258.5491671,1.85546875
,258.6020907,1.8408203125
,258.6026577,1.8212890625
,258.6316321,1.8017578125
,258.6319671,1.7822265625
,258.6687919,1.7578125
,258.6740956,1.73828125
,258.6899264,1.71875
,258.7280949,1.7041015625
,258.7320416,1.6845703125
,258.7664112,1.669921875
,258.7733477,1.6552734375
,258.7922171,1.6455078125
,258.8302437,1.630859375
,258.834891,1.630859375
,258.8558411,1.6455078125
,258.8979614,1.6796875
,258.8985273,1.7431640625
,258.9115297,1.8212890625
,258.9475013,1.8798828125
,258.9521185,1.9384765625
,258.9882276,1.982421875
,258.9952436,2.0068359375
,259.0137981,2.0263671875
,259.0531096,2.03125
,259.0533988,2.0263671875
,259.0740097,2.0166015625
,259.0925142,2.0068359375
,259.1266546,1.9873046875
,259.1487993,1.97265625
,259.1534151,1.953125
,259.1884321,1.943359375
,259.1935412,1.9287109375
,259.2292511,1.9140625
,259.2499573,1.89453125
,259.2530605,1.8798828125
,259.2897489,1.865234375
,259.290145,1.845703125
,259.3338824,1.8212890625
,259.3342721,1.8017578125
,259.3539549,1.77734375
,259.3886449,1.7529296875
,259.4099016,1.73828125
,259.4104434,1.71875
,259.4451437,1.7041015625
,259.4671411,1.689453125
,259.4742414,1.6796875
,259.4938171,1.6650390625
,259.528529,1.650390625
,259.5361844,1.6455078125
,259.5549215,1.6650390625
,259.5750835,1.708984375
,259.6107181,1.7626953125
,259.6297864,1.8359375
,259.6318467,1.8994140625
,259.6667515,1.953125
,259.6867993,1.9970703125
,259.6940274,2.0263671875
,259.7283723,2.041015625
,259.7482222,2.0458984375
,259.7553136,2.041015625
,259.8017626,2.0263671875
,259.8021633,2.01171875
,259.8129165,1.9921875
,259.8486676,1.9775390625
,259.8536695,1.962890625
,259.8883084,1.9482421875
,259.9084723,1.93359375
,259.916822,1.923828125
,259.9370553,1.8994140625
,259.9562295,1.8798828125
,259.9722994,1.865234375
,260.0170034,1.8505859375
,260.017294,1.826171875
,260.0332535,1.806640625
,260.0718519,1.7822265625
,260.075252,1.7626953125
,260.1128218,1.7431640625
,260.1133909,1.728515625
,260.1486871,1.7138671875
,260.154084,1.69921875
,260.1725798,1.6845703125
,260.207419,1.6748046875
,260.2279653,1.6650390625
,260.2357369,1.6748046875
,260.2716297,1.7138671875
,260.2737308,1.767578125
,260.3112616,1.8310546875
,260.3312469,1.8896484375
,260.3363301,1.9384765625
,260.3544272,1.9775390625
,260.3915554,2.01171875
,260.3921229,2.03125
,260.4284556,2.041015625
,260.4480382,2.0361328125
,260.4572329,2.021484375
,260.4755877,2.0068359375
,260.5109712,1.9873046875
,260.5307165,1.9677734375
,260.535477,1.953125
,260.5699061,1.943359375
,260.573464,1.9287109375
,260.6087792,1.9189453125
,260.6287654,1.8994140625
,260.6353372,1.884765625
,260.686475,1.8701171875
,260.6868472,1.8505859375
,260.6937381,1.8310546875
,260.7313505,1.8115234375
,260.7339972,1.7919921875
,260.7672219,1.7724609375
,260.788012,1.7529296875
,260.7951881,1.7333984375
,260.8415733,1.71875
,260.8420556,1.69921875
,260.853666,1.6845703125
,260.87441,1.6748046875
,260.9206456,1.6748046875
,260.9210092,1.6845703125
,260.9354906,1.7236328125
,260.9808567,1.77734375
,260.9812806,1.8359375
,260.9973411,1.89453125
,261.0183904,1.943359375
,261.0367825,1.9775390625
,261.075464,2.0068359375
,261.0758933,2.0166015625
,261.0937942,2.0263671875
,261.1279657,2.0263671875
,261.1486401,2.01171875
,261.1572601,2.001953125
,261.1987496,1.9873046875
,261.1992265,1.97265625
,261.2341974,1.9580078125
,261.2382641,1.943359375
,261.2538737,1.9287109375
,261.2983546,1.9140625
,261.2986148,1.8994140625
,261.3281523,1.8798828125
,261.3346446,1.85546875
,261.3798327,1.8359375
,261.3801324,1.81640625
,261.4024137,1.796875
,261.4126184,1.7724609375
,261.4489994,1.7529296875
,261.4702525,1.73828125
,261.474887,1.7236328125
,261.5114637,1.708984375
,261.5159545,1.6943359375
,261.552088,1.6796875
,261.5777581,1.6650390625
,261.5785663,1.6650390625
,261.5939031,1.6796875
,261.6386989,1.7236328125
,261.639259,1.77734375
,261.6553458,1.845703125
,261.6960497,1.904296875
,261.6963515,1.953125
,261.7322557,1.982421875
,261.7636277,2.0068359375
,261.7639428,2.0166015625
,261.7785896,2.0263671875
,261.7930431,2.0166015625
,261.827492,2.0068359375
,261.8473823,1.9921875
,261.8564286,1.982421875
,261.8912561,1.97265625
,261.9118819,1.9580078125
,261.9193263,1.9384765625
,261.9381233,1.9189453125
,261.9583206,1.8994140625
,261.975805,1.8798828125
,261.9968714,1.865234375
,262.0334221,1.8359375
,262.0380825,1.8115234375
,262.0577815,1.7919921875
,262.1074603,1.767578125
,262.1078816,1.73828125
,262.1191464,1.7138671875
,262.1345044,1.689453125
,262.1698708,1.6796875
,262.1919158,1.66015625
,262.1963927,1.640625
,262.2317122,1.6259765625
,262.2520517,1.611328125
,262.256991,1.62109375
,262.2912142,1.650390625
,262.3112716,1.708984375
,262.3131513,1.7626953125
,262.3541654,1.826171875
,262.3560763,1.884765625
,262.3921545,1.923828125
,262.3981734,1.953125
,262.4314413,1.9677734375
,262.4370664,1.97265625
,262.4737122,1.9677734375
,262.4792055,1.953125
,262.526996,1.93359375
,262.5272849,1.9091796875
,262.5373232,1.8896484375
,262.5729198,1.8798828125
,262.5755429,1.865234375
,262.6115075,1.85546875
,262.632555,1.845703125
,262.6383126,1.8310546875
,262.6844105,1.81640625
,262.6847011,1.8017578125
,262.705476,1.787109375
,262.7176359,1.767578125
,262.7368812,1.748046875
,262.7722256,1.7333984375
,262.7773328,1.7138671875
,262.8249552,1.6943359375
,262.8252421,1.6748046875
,262.8466154,1.6552734375
,262.8597573,1.640625
,262.876881,1.62109375
,262.8972743,1.62109375
,262.9335706,1.6357421875
,262.9360077,1.6845703125
,262.9729049,1.7431640625
,262.9931862,1.8115234375
,262.9984667,1.865234375
,263.035057,1.9091796875
,263.0355229,1.9482421875
,263.0705081,1.9775390625
,263.0916345,1.9921875
,263.0977596,1.9921875
,263.1323372,1.982421875
,263.1530526,1.9580078125
,263.1571891,1.9384765625
,263.1942076,1.923828125
,263.2278755,1.9091796875
,263.2284502,1.89453125
,263.2403288,1.8798828125
,263.2749821,1.8701171875
,263.2754244,1.8603515625
,263.3204029,1.845703125
,263.3207807,1.8310546875
,263.3401148,1.8115234375
,263.376877,1.7919921875
,263.3814009,1.7724609375
,263.4155743,1.748046875
,263.4159973,1.7236328125
,263.4530552,1.708984375
,263.4569449,1.689453125
,263.4933332,1.669921875
,263.5123166,1.650390625
,263.5175671,1.6357421875
,263.5638938,1.6357421875
,263.5643278,1.6552734375
,263.5835033,1.708984375
,263.5951317,1.767578125
,263.630698,1.8359375
,263.6579868,1.8896484375
,263.6583345,1.943359375
,263.7042131,1.982421875
,263.7045192,2.01171875
,263.7241892,2.0166015625
,263.7391845,2.0166015625
,263.7753985,2.001953125
,263.7973239,1.982421875
,263.802343,1.9677734375
,263.8194281,1.93359375
,263.8390826,1.923828125
,263.8583606,1.9140625
,263.8932196,1.904296875
,263.9138606,1.8896484375
,263.920053,1.8701171875
,263.9533795,1.85546875
,263.973278,1.8408203125
,263.9773736,1.81640625
,264.0164255,1.8017578125
,264.0368816,1.7822265625
,264.0387975,1.767578125
,264.0769088,1.7529296875
,264.0822498,1.73828125
,264.1010582,1.71875
,264.1406042,1.69921875
,264.1412844,1.6845703125
,264.1626477,1.6748046875
,264.1794851,1.6796875
,264.2144059,1.708984375
,264.220685,1.7626953125
,264.2548336,1.8310546875
,264.2588108,1.89453125
,264.2927767,1.9482421875
,264.3127853,1.9873046875
,264.317353,2.01171875
,264.3534371,2.041015625
,264.3765701,2.0556640625
,264.3790637,2.0556640625
,264.4164265,2.0458984375
,264.4217955,2.0263671875
,264.441841,2.0068359375
,264.4606901,1.9873046875
,264.5020176,1.9677734375
,264.5024637,1.9482421875
,264.5308843,1.93359375
,264.5403143,1.904296875
,264.5601992,1.89453125
,264.6105307,1.8798828125
,264.6109951,1.865234375
,264.6198265,1.845703125
,264.655756,1.826171875
,264.6618674,1.8017578125
,264.6965473,1.7822265625
,264.7165013,1.7529296875
,264.7192257,1.73828125
,264.7662935,1.7236328125
,264.7667774,1.708984375
,264.78811,1.6943359375
,264.8032017,1.6845703125
,264.8222204,1.689453125
,264.8575647,1.71875
,264.8616621,1.7724609375
,264.8780583,1.8310546875
,264.9119687,1.8896484375
,264.9316083,1.943359375
,264.9390318,1.9873046875
,264.9758613,2.01171875
,264.9948515,2.03125
,265.0010327,2.0361328125
,265.036241,2.0263671875
,265.0575934,2.01171875
,265.0581062,1.9921875
,265.0933068,1.97265625
,265.1147156,1.953125
,265.1186352,1.9384765625
,265.1526432,1.9287109375
,265.173561,1.9140625
,265.1806994,1.904296875
,265.214344,1.884765625
,265.2351911,1.8701171875
,265.2450967,1.85546875
,265.2613655,1.826171875
,265.2818176,1.8115234375
,265.3181344,1.7919921875
,265.3199467,1.7724609375
,265.3563484,1.7529296875
,265.3626921,1.73828125
,265.3957329,1.7236328125
,265.4159612,1.7041015625
,265.4235432,1.689453125
,265.4391626,1.6748046875
,265.4746333,1.6796875
,265.4944343,1.69921875
,265.5018735,1.7431640625
,265.5379093,1.8017578125
,265.5426374,1.8603515625
,265.5634785,1.9140625
,265.5977036,1.9580078125
,265.6186467,1.982421875
,265.6189542,2.0068359375
,265.6660231,2.021484375
,265.6665683,2.021484375
,265.6968989,2.01171875
,265.7017967,1.9873046875
,265.7372566,1.97265625
,265.7454152,1.9580078125
,265.7654234,1.9482421875
,265.7804966,1.9287109375
,265.8169151,1.9189453125
,265.8219097,1.904296875
,265.8674912,1.89453125
,265.8678679,1.875
,265.8874632,1.8603515625
,265.9027009,1.8408203125
,265.9231655,1.81640625
,265.9452175,1.796875
,265.9638302,1.767578125
,265.9804121,1.73828125
,266.014858,1.728515625
,266.0373854,1.71875
,266.0421612,1.7041015625
,266.0772837,1.689453125
,266.0843058,1.6748046875
,266.1346903,1.6650390625
,266.1352391,1.669921875
,266.1460582,1.708984375
,266.161672,1.7578125
,266.1983309,1.8212890625
,266.2022485,1.875
,266.2384372,1.9287109375
,266.2414731,1.9677734375
,266.2762174,1.9970703125
,266.2964772,2.01171875
,266.3063394,2.0166015625
,266.3407163,2.0166015625
,266.3412985,2.001953125
,266.3776022,1.9873046875
,266.3825245,1.9677734375
,266.4303516,1.953125
,266.4309302,1.93359375
,266.4454117,1.923828125
,266.4652635,1.9091796875
,266.4838966,1.89453125
,266.5006216,1.875
,266.5353101,1.865234375
,266.5550825,1.8505859375
,266.5617282,1.8310546875
,266.5961518,1.8115234375
,266.6163243,1.787109375
,266.6239485,1.767578125
,266.6594188,1.7529296875
,266.6646065,1.7333984375
,266.686888,1.7138671875
,266.7050661,1.6845703125
,266.7244927,1.669921875
,266.7437963,1.6650390625
,266.7796217,1.66015625
,266.7847845,1.6796875
,266.8202113,1.7138671875
,266.8227951,1.7724609375
,266.860287,1.8310546875
,266.8651825,1.8896484375
,266.882729,1.93359375
,266.916538,1.9677734375
,266.9234623,1.9921875
,266.9436522,2.0068359375
,266.9789021,2.01171875
,266.9840373,2.001953125
,267.0197573,1.982421875
,267.0259341,1.962890625
,267.0455307,1.9482421875
,267.0619252,1.93359375
,267.0984729,1.9140625
,267.1034421,1.89453125
,267.1243698,1.8798828125
,267.1649036,1.8603515625
,267.1652594,1.8408203125
,267.1842285,1.8212890625
,267.2220148,1.796875
,267.2226404,1.7724609375
,267.2593113,1.7578125
,267.2625536,1.73828125
,267.3003686,1.71875
,267.3039688,1.7041015625
,267.324071,1.6845703125
,267.3668483,1.6650390625
,267.3674178,1.650390625
,267.385718,1.6357421875
,267.4068433,1.62109375
,267.4402145,1.6162109375
,267.4608556,1.6455078125
,267.4641614,1.69921875
,267.4847914,1.7578125
,267.5057885,1.81640625
,267.5536384,1.8701171875
,267.5541042,1.9140625
,267.5658499,1.9384765625
,267.6036622,1.953125
,267.604206,1.9580078125
,267.624902,1.9482421875
,267.6602627,1.9384765625
,267.6630806,1.923828125
,267.6969258,1.904296875
,267.7173995,1.8896484375
,267.7250538,1.875
,267.7717779,1.865234375
,267.7723318,1.8505859375
,267.782162,1.8408203125
,267.8319327,1.8310546875
,267.8322355,1.8212890625
,267.8437163,1.806640625
,267.8812234,1.7919921875
,267.8857898,1.767578125
,267.9064925,1.7431640625
,267.9563076,1.7236328125
,267.9568827,1.7041015625
,267.9618622,1.6796875
,268.0034318,1.66015625
,268.0324582,1.640625
,268.0327483,1.6259765625
,268.0464755,1.611328125
,268.0812957,1.62109375
,268.086433,1.650390625
,268.1209838,1.7041015625
,268.1260487,1.7626953125
,268.1767212,1.826171875
,268.1771631,1.8701171875
,268.1839701,1.9140625
,268.2208747,1.93359375
,268.2413748,1.953125
,268.2440468,1.9580078125
,268.279827,1.9482421875
,268.3003972,1.9287109375
,268.3073873,1.9091796875
,268.3455993,1.8896484375
,268.3459134,1.875
,268.3827539,1.8603515625
,268.3833243,1.845703125
,268.4274273,1.8359375
,268.4278444,1.8212890625
,268.4489407,1.8115234375
,268.4683888,1.796875
,268.5066497,1.77734375
,268.5070066,1.7578125
,268.5254248,1.7431640625
,268.5450871,1.728515625
,268.5799953,1.708984375
,268.5841028,1.689453125
,268.6204143,1.669921875
,268.6275302,1.6552734375
,268.6608931,1.6357421875
,268.681218,1.62109375
,268.6834362,1.6162109375
,268.7193077,1.630859375
,268.724184,1.6748046875
,268.7720944,1.7333984375
,268.7727304,1.796875
,268.8022776,1.8505859375
,268.8048074,1.89453125
,268.8511165,1.9384765625
,268.8514966,1.9580078125
,268.8697325,1.9677734375
,268.8887859,1.962890625
,268.9060787,1.9482421875
,268.9414489,1.93359375
,268.9440567,1.9189453125
,268.979797,1.904296875
,269.0013338,1.884765625
,269.0084326,1.875
,269.052049,1.865234375
,269.0523404,1.85546875
,269.066452,1.845703125
,269.0864319,1.8310546875
,269.1217004,1.8212890625
,269.1263431,1.806640625
,269.1774369,1.796875
,269.1777398,1.77734375
,269.1896784,1.7578125
,269.209262,1.7431640625
,269.2546871,1.7333984375
,269.2551984,1.7236328125
,269.2650718,1.71875
,269.3022156,1.7138671875
,269.3084301,1.7138671875
,269.3288313,1.728515625
,269.3474246,1.7578125
,269.3813939,1.796875
,269.4027107,1.8359375
,269.4033073,1.875
,269.4413677,1.9140625
,269.4461285,1.93359375
,269.4810558,1.9482421875
,269.4860815,1.943359375
,269.5217379,1.9287109375
,269.5413152,1.9091796875
,269.5485732,1.8896484375
,269.5835886,1.865234375
,269.5887076,1.845703125
,269.6267173,1.8310546875
,269.627074,1.8212890625
,269.6633555,1.8115234375
,269.6679963,1.8017578125
,269.7025603,1.7919921875
,269.7074436,1.77734375
,269.7425842,1.767578125
,269.748881,1.748046875
,269.783433,1.7333984375
,269.8038446,1.7138671875
,269.8059442,1.7041015625
,269.8529318,1.689453125
,269.8533765,1.6796875
,269.8684634,1.669921875
,269.9043557,1.6552734375
,269.9100106,1.6455078125
,269.944586,1.640625
,269.9493492,1.650390625
,269.9662352,1.6748046875
,270.0028966,1.71875
,270.0047071,1.767578125
,270.0379556,1.81640625
,270.0581699,1.8505859375
,270.0677211,1.8701171875
,270.1021506,1.8798828125
,270.1230835,1.8798828125
,270.1239026,1.865234375
,270.1598912,1.845703125
,270.1803401,1.826171875
,270.1881454,1.806640625
,270.2256643,1.7919921875
,270.2282628,1.787109375
,270.2490885,1.77734375
,270.2889895,1.767578125
,270.2893287,1.7578125
,270.3092723,1.748046875
,270.3309658,1.73828125
,270.3463991,1.7236328125
,270.381023,1.7138671875
,270.4005313,1.69921875
,270.4089147,1.6845703125
,270.4443874,1.669921875
,270.4484563,1.6552734375
,270.4847161,1.6357421875
,270.489718,1.62109375
,270.5249638,1.6064453125
,270.525254,1.5966796875
,270.5626458,1.611328125
,270.5674303,1.640625
,270.6029975,1.689453125
,270.6075503,1.73828125
,270.6418518,1.7919921875
,270.6636565,1.826171875
,270.6703363,1.85546875
,270.6864976,1.865234375
,270.7280572,1.8701171875
,270.7283397,1.865234375
,270.7485128,1.8505859375
,270.792364,1.8310546875
,270.792943,1.806640625
,270.8106773,1.796875
,270.8288031,1.77734375
,270.8635394,1.767578125
,270.8839044,1.7578125
,270.886661,1.7529296875
,270.9233244,1.7431640625
,270.928683,1.73828125
,270.9639551,1.7236328125
,270.9690374,1.708984375
,271.0087907,1.689453125
,271.0090746,1.6796875
,271.029161,1.66015625
,271.0659642,1.6455078125
,271.0861899,1.6259765625
,271.0865174,1.6162109375
,271.1204517,1.5966796875
,271.1413835,1.5966796875
,271.1516596,1.6015625
,271.1703409,1.62109375
,271.2062175,1.66015625
,271.2109822,1.7041015625
,271.2470043,1.748046875
,271.2472862,1.77734375
,271.2841778,1.8017578125
,271.2887996,1.8115234375
,271.3378858,1.81640625
,271.3382739,1.81640625
,271.3498616,1.806640625
,271.3706143,1.7919921875
,271.4051937,1.77734375
,271.4252318,1.767578125
,271.429974,1.7578125
,271.4485176,1.748046875
,271.4834793,1.73828125
,271.4877898,1.728515625
,271.539218,1.71875
,271.5395061,1.7138671875
,271.5510322,1.7041015625
,271.5865991,1.6943359375
,271.5868807,1.6796875
,271.621909,1.669921875
,271.6420708,1.66015625
,271.6486848,1.6552734375
,271.6918127,1.640625
,271.6922477,1.630859375
,271.7115433,1.62109375
,271.7522022,1.6162109375
,271.752696,1.6162109375
,271.8021834,1.640625
,271.8024695,1.6748046875
,271.8079683,1.708984375
,271.8441562,1.748046875
,271.8648495,1.7724609375
,271.8696745,1.7919921875
,271.912148,1.8017578125
,271.9124302,1.81640625
,271.9340422,1.81640625
,271.9695837,1.8115234375
,271.9700112,1.796875
,272.0049025,1.787109375
,272.0093156,1.77734375
,272.0464592,1.767578125
,272.0494793,1.7626953125
,272.0867115,1.7529296875
,272.0917133,1.7431640625
,272.1340022,1.73828125
,272.1345793,1.7333984375
,272.148894,1.7236328125
,272.1869544,1.71875
,272.1916929,1.7138671875
,272.2101908,1.708984375
,272.2458035,1.7041015625
,272.2508745,1.69921875
,272.2860198,1.689453125
,272.3080333,1.6796875
,272.3083209,1.6796875
,272.3436196,1.6748046875
,272.3638162,1.6796875
,272.3703769,1.689453125
,272.4055151,1.7138671875
,272.410941,1.7529296875
,272.447831,1.787109375
,272.4528513,1.806640625
,272.4914905,1.826171875
,272.4917823,1.8310546875
,272.527985,1.8408203125
,272.5284013,1.8408203125
,272.5693875,1.8408203125
,272.6008103,1.8310546875
,272.6013726,1.826171875
,272.6111316,1.81640625
,272.6468289,1.8115234375
,272.6793492,1.806640625
,272.6797995,1.8017578125
,272.6891764,1.796875
,272.7421313,1.796875
,272.7428706,1.796875
,272.7506552,1.7919921875
,272.7873465,1.7822265625
,272.7920685,1.7724609375
,272.8274912,1.767578125
,272.8313184,1.7578125
,272.8801916,1.7529296875
,272.880755,1.7431640625
,272.9011383,1.7431640625
,272.9116352,1.73828125
,272.9477752,1.73828125
,272.9508866,1.73828125
,272.9730314,1.73828125
,273.0093512,1.7529296875
,273.011299,1.77734375
,273.0297017,1.796875
,273.0664647,1.8212890625
,273.086065,1.8212890625
,273.0909457,1.81640625
,273.1122269,1.8310546875
,273.1610284,1.8359375
,273.1613192,1.8359375
,273.1818321,1.8310546875
,273.1937478,1.826171875
,273.2290403,1.81640625
,273.2335016,1.8115234375
,273.2508428,1.8115234375
,273.300184,1.806640625
,273.3004728,1.8017578125
,273.3102845,1.8017578125
,273.347412,1.796875
,273.3525702,1.7919921875
,273.3864462,1.787109375
,273.4090272,1.7822265625
,273.4161223,1.77734375
,273.4298425,1.7724609375
,273.462821,1.767578125
,273.4828285,1.7626953125
,273.4929315,1.7626953125
,273.532572,1.7578125
,273.532883,1.7529296875
,273.5677838,1.748046875
,273.5879499,1.73828125
,273.5904143,1.73828125
,273.6112582,1.748046875
,273.6599806,1.7724609375
,273.660549,1.7919921875
,273.6726029,1.806640625
,273.7072857,1.8212890625
,273.7276537,1.8310546875
,273.7349715,1.8359375
,273.7543089,1.8359375
,273.7758598,1.826171875
,273.7968553,1.8115234375
,273.8118491,1.796875
,273.8464348,1.796875
,273.866749,1.796875
,273.8750971,1.7919921875
,273.8939392,1.7919921875
,273.9289619,1.7919921875
,273.9477789,1.7919921875
,273.9565968,1.796875
,273.9693246,1.7919921875
,274.0197048,1.7919921875
,274.0202569,1.796875
,274.0486868,1.7919921875
,274.0531771,1.787109375
,274.0951859,1.77734375
,274.09576,1.7724609375
,274.1157408,1.767578125
,274.1570938,1.7626953125
,274.1573953,1.7529296875
,274.1740954,1.748046875
,274.1923872,1.748046875
,274.2368543,1.748046875
,274.2374181,1.7431640625
,274.2679722,1.7529296875
,274.2745093,1.767578125
,274.2950866,1.787109375
,274.3111177,1.806640625
,274.3481634,1.826171875
,274.3682842,1.8310546875
,274.3731482,1.8310546875
,274.4235752,1.8359375
,274.4240634,1.8310546875
,274.4541302,1.826171875
,274.4546946,1.81640625
,274.4909171,1.8115234375
,274.4966007,1.806640625
,274.515955,1.796875
,274.5330531,1.787109375
,274.5693532,1.796875
,274.5723748,1.7919921875
,274.611392,1.796875
,274.6163776,1.796875
,274.6553517,1.7919921875
,274.6556477,1.787109375
,274.6925367,1.7822265625
,274.6955364,1.77734375
,274.7136075,1.7724609375
,274.750779,1.767578125
,274.7527686,1.7626953125
,274.7978194,1.7529296875
,274.7982817,1.748046875
,274.8154124,1.7431640625
,274.8370075,1.7333984375
,274.8772064,1.728515625
,274.8777898,1.7236328125
,274.893547,1.728515625
,274.9150847,1.73828125
,274.9336737,1.7578125
,274.9688505,1.7724609375
,274.9887336,1.796875
,274.9962303,1.8115234375
,275.0171306,1.81640625
,275.0667181,1.8212890625
,275.0670116,1.8212890625
,275.0714778,1.8212890625
,275.1087201,1.81640625
,275.1284905,1.81640625
,275.1352185,1.806640625
,275.1564918,1.8017578125
,275.1922371,1.796875
,275.1947735,1.796875
,275.2163085,1.7919921875
,275.2517675,1.7822265625
,275.2522878,1.7822265625
,275.2901116,1.7822265625
,275.3184321,1.787109375
,275.3188162,1.7822265625
,275.3351795,1.7822265625
,275.3713294,1.77734375
,275.3754289,1.7724609375
,275.3963915,1.7626953125
,275.4327746,1.7578125
,275.4520077,1.7529296875
,275.4539634,1.748046875
,275.4911242,1.748046875
,275.4966463,1.748046875
,275.5157983,1.7431640625
,275.5361752,1.7431640625
,275.5727569,1.7431640625
,275.5776311,1.748046875
,275.5953076,1.7626953125
,275.6290864,1.787109375
,275.6360401,1.806640625
,275.6550792,1.8212890625
,275.6959965,1.8359375
,275.6964971,1.845703125
,275.7148515,1.8505859375
,275.7488006,1.8505859375
,275.7712989,1.8505859375
,275.7717307,1.8408203125
,275.8059238,1.8408203125
,275.8280931,1.8408203125
,275.8361406,1.8359375
,275.8734701,1.8310546875
,275.8767975,1.826171875
,275.896141,1.826171875
,275.9341913,1.8212890625
,275.9370676,1.8212890625
,275.9571103,1.8115234375
,275.9924922,1.8115234375
,276.0126067,1.8115234375
,276.0144291,1.81640625
,276.0517008,1.8115234375
,276.0564982,1.806640625
,276.1017418,1.806640625
,276.1020323,1.8017578125
,276.1166238,1.796875
,276.1525942,1.7919921875
,276.1531622,1.787109375
,276.1991321,1.787109375
,276.1996958,1.787109375
,276.2286036,1.787109375
,276.2365213,1.787109375
,276.2574629,1.796875
,276.307454,1.81640625
,276.3078231,1.8359375
,276.3184681,1.85546875
,276.3355356,1.865234375
,276.3741449,1.875
,276.3746951,1.884765625
,276.4125193,1.8896484375
,276.4171094,1.8896484375
,276.4376021,1.884765625
,276.4735447,1.8798828125
,276.4781735,1.875
,276.494431,1.8701171875
,276.5300491,1.875
,276.5489508,1.8701171875
,276.5546357,1.865234375
,276.5907971,1.8701171875
,276.6110365,1.865234375
,276.6176084,1.865234375
,276.6530125,1.8603515625
,276.6570111,1.85546875
,276.6934525,1.845703125
,276.7132867,1.845703125
,276.7158327,1.8359375
,276.7533589,1.8359375
,276.7565757,1.826171875
,276.8003216,1.826171875
,276.8006526,1.8212890625
,276.816787,1.81640625
,276.8654915,1.8115234375
,276.8658129,1.806640625
,276.8953916,1.8017578125
,276.8957413,1.806640625
,276.9160597,1.826171875
,276.9533951,1.8408203125
,276.9590741,1.8603515625
,276.9778399,1.884765625
,276.9994189,1.904296875
,277.02093,1.9189453125
,277.0392117,1.9287109375
,277.0559698,1.9287109375
,277.077256,1.93359375
,277.0986775,1.9287109375
,277.1191271,1.9287109375
,277.1399141,1.9189453125
,277.1604579,1.9140625
,277.1792179,1.904296875
,277.2158719,1.8994140625
,277.2184238,1.8994140625
,277.2360855,1.8896484375
,277.2706767,1.884765625
,277.291291,1.884765625
,277.2958323,1.884765625
,277.3319507,1.875
,277.3634268,1.8701171875
,277.3638576,1.8603515625
,277.3796385,1.85546875
,277.4008666,1.845703125
,277.4204303,1.8408203125
,277.4389445,1.826171875
,277.4574804,1.8212890625
,277.4958281,1.81640625
,277.4961541,1.8115234375
,277.5323744,1.8017578125
,277.5636228,1.806640625
,277.5639155,1.826171875
,277.5803207,1.845703125
,277.6147405,1.875
,277.6154073,1.89453125
,277.6514534,1.9091796875
,277.6725858,1.9189453125
,277.6777542,1.93359375
,277.7130339,1.93359375
,277.7335604,1.93359375
,277.7412708,1.9287109375
,277.7810375,1.9189453125
,277.7813371,1.9091796875
,277.7985794,1.9091796875
,277.8342328,1.8994140625
,277.8380424,1.89453125
,277.8747667,1.89453125
,277.8771123,1.8896484375
,277.912077,1.884765625
,277.9352027,1.875
,277.9399073,1.865234375
,277.9565749,1.85546875
,277.991932,1.85546875
,277.9990362,1.8505859375
,278.0185472,1.8408203125
,278.0388073,1.8359375
,278.0784811,1.8310546875
,278.0788101,1.8212890625
,278.0998199,1.81640625
,278.1351408,1.8115234375
,278.1424104,1.8017578125
,278.1573869,1.796875
,278.2020234,1.8115234375
,278.2023538,1.8359375
,278.219743,1.85546875
,278.2640635,1.875
,278.2643604,1.8896484375
,278.2805826,1.904296875
,278.3149119,1.9091796875
,278.3351682,1.9140625
,278.3375643,1.9091796875
,278.3887059,1.9091796875
,278.3889906,1.904296875
,278.3990191,1.8994140625
,278.4359849,1.8896484375
,278.4386724,1.884765625
,278.4746625,1.875
,278.496513,1.8701171875
,278.501705,1.865234375
,278.5175669,1.8603515625
,278.5529337,1.85546875
,278.5602427,1.845703125
,278.5803383,1.845703125
,278.6227434,1.8359375
,278.6232492,1.826171875
,278.6397879,1.81640625
,278.6741778,1.8115234375
,278.6943395,1.8017578125
,278.6968594,1.796875
,278.7503448,1.787109375
,278.7509823,1.7822265625
,278.7602118,1.7724609375
,278.7954808,1.7724609375
,278.8016716,1.77734375
,278.8396677,1.796875
,278.8401505,1.8115234375
,278.863218,1.8310546875
,278.8817338,1.8505859375
,278.8996607,1.865234375
,278.9203635,1.875
,278.9409592,1.8798828125
,278.9615397,1.8896484375
,279.0031008,1.884765625
,279.0036666,1.884765625
,279.0208565,1.875
,279.055313,1.8603515625
,279.0756614,1.85546875
,279.0779822,1.85546875
,279.127504,1.8505859375
,279.1280484,1.8505859375
,279.1420234,1.8408203125
,279.1619263,1.8408203125
,279.2069765,1.8310546875
,279.2072902,1.8212890625
,279.2220267,1.8115234375
,279.2388517,1.8017578125
,279.273203,1.796875
,279.2949757,1.7919921875
,279.3016431,1.787109375
,279.3375391,1.77734375
,279.3392729,1.767578125
,279.375598,1.7578125
,279.3958385,1.7529296875
,279.39795,1.7431640625
,279.433294,1.73828125
,279.4406759,1.7333984375
,279.4588062,1.7431640625
,279.4946944,1.7626953125
,279.5014931,1.787109375
,279.5227542,1.81640625
,279.5418617,1.8408203125
,279.5790726,1.85546875
,279.5824025,1.8701171875
,279.618347,1.8798828125
,279.6219116,1.8798828125
,279.6409099,1.884765625
,279.6761869,1.884765625
,279.6807957,1.8798828125
,279.7175404,1.8701171875
,279.7221857,1.865234375
,279.7424158,1.85546875
,279.7788663,1.8505859375
,279.7819733,1.8505859375
,279.7996542,1.845703125
,279.8447471,1.8408203125
,279.8455724,1.8359375
,279.8592379,1.8310546875
,279.8946654,1.8212890625
,279.9179223,1.81640625
,279.9235266,1.8017578125
,279.9596282,1.7919921875
,279.9600182,1.77734375
,279.9961718,1.7724609375
,280.0006992,1.7626953125
,280.0375827,1.7529296875
,280.0401393,1.7431640625
,280.0746256,1.73828125
,280.0967722,1.728515625
,280.1039079,1.728515625
,280.1396358,1.7236328125
,280.1400599,1.7236328125
,280.175798,1.7431640625
,280.1803978,1.767578125
,280.2156742,1.796875
,280.220761,1.8212890625
,280.2568073,1.845703125
,280.2623107,1.8603515625
,280.3019686,1.875
,280.3022549,1.875
,280.3222374,1.875
,280.3403496,1.8701171875
,280.3619912,1.865234375
,280.3811785,1.8603515625
,280.4260773,1.85546875
,280.426368,1.845703125
,280.4475778,1.8408203125
,280.4656024,1.8359375
,280.5018141,1.826171875
,280.5023793,1.8212890625
,280.5374622,1.8115234375
,280.5424427,1.806640625
,280.584181,1.8017578125
,280.5847722,1.796875
,280.6023862,1.787109375
,280.6389667,1.7822265625
,280.6435963,1.7724609375
,280.6657382,1.7626953125
,280.6817055,1.7529296875
,280.7185436,1.748046875
,280.7191102,1.73828125
,280.755826,1.7333984375
,280.7854917,1.728515625
,280.7860604,1.71875
,280.8037643,1.708984375
,280.8244864,1.7041015625
,280.8623124,1.7041015625
,280.8631703,1.71875
,280.8865225,1.748046875
,280.9014804,1.767578125
,280.9361319,1.796875
,280.9577026,1.8212890625
,280.963077,1.8408203125
,281.001829,1.8505859375
,281.0023857,1.85546875
,281.0424946,1.85546875
,281.0470562,1.8505859375
,281.0661056,1.8505859375
,281.0831616,1.8408203125
,281.1178367,1.8359375
,281.1221977,1.826171875
,281.1553738,1.826171875
,281.1758492,1.8212890625
,281.1846107,1.81640625
,281.2323932,1.8115234375
,281.2326802,1.8017578125
,281.254772,1.7919921875
,281.2623053,1.7919921875
,281.2986369,1.7822265625
,281.3031471,1.7724609375
,281.3384403,1.7626953125
,281.342502,1.7529296875
,281.3889628,1.7431640625
,281.3892469,1.7333984375
,281.4205005,1.7236328125
,281.4210646,1.708984375
,281.4599984,1.7041015625
,281.4605577,1.69921875
,281.4947291,1.69921875
,281.5156287,1.689453125
,281.5240941,1.689453125
,281.5587982,1.6943359375
,281.5896271,1.7236328125
,281.5900804,1.7529296875
,281.6060284,1.7919921875
,281.6219611,1.806640625
,281.6583251,1.8359375
,281.6629584,1.8603515625
,281.6992158,1.8701171875
,281.7307697,1.8798828125
,281.7310402,1.8798828125
,281.7441946,1.8798828125
,281.7794484,1.875
,281.7987245,1.865234375
,281.8007439,1.85546875
,281.8350488,1.845703125
,281.8561854,1.8408203125
,281.862307,1.8408203125
,281.90284,1.8359375
,281.9338525,1.8310546875
,281.9341449,1.8212890625
,281.9458877,1.81640625
,281.9632176,1.806640625
,281.997928,1.8017578125
,282.0028356,1.787109375
,282.0381904,1.77734375
,282.0721549,1.767578125
,282.0724391,1.7578125
,282.0864773,1.7529296875
,282.1212745,1.7431640625
,282.1252338,1.7333984375
,282.1583497,1.7236328125
,282.1626904,1.7236328125
,282.196609,1.7236328125
,282.2166451,1.71875
,282.2236537,1.7236328125
,282.2613276,1.7431640625
,282.282095,1.7724609375
,282.2861254,1.806640625
,282.3027483,1.8408203125
,282.3392849,1.865234375
,282.3477495,1.875
,282.3641404,1.8798828125
,282.4014226,1.89453125
,282.4038704,1.8994140625
,282.4404025,1.8994140625
,282.46339,1.89453125
,282.4657603,1.8896484375
,282.4990383,1.8798828125
,282.5207928,1.8701171875
,282.5212682,1.8603515625
,282.5570137,1.8603515625
,282.5887944,1.85546875
,282.5890798,1.85546875
,282.6047818,1.845703125
,282.6385818,1.8408203125
,282.6586114,1.8310546875
,282.6659073,1.826171875
,282.7015226,1.81640625
,282.7224084,1.8017578125
,282.7230211,1.796875
,282.7609978,1.787109375
,282.7655507,1.77734375
,282.802186,1.767578125
,282.8051157,1.7578125
,282.8405911,1.7529296875
,282.8472485,1.7431640625
,282.8625299,1.7333984375
,282.8959111,1.7333984375
,282.9170722,1.7333984375
,282.9272624,1.748046875
,282.9472047,1.77734375
,282.9654302,1.81640625
,283.0012846,1.8505859375
,283.005874,1.875
,283.0458123,1.89453125
,283.0647006,1.9091796875
,283.0665734,1.904296875
,283.0853838,1.8994140625
,283.1247799,1.904296875
,283.1250567,1.904296875
,283.1611629,1.904296875
,283.1872489,1.89453125
,283.1878199,1.89453125
,283.2226558,1.8896484375
,283.2287961,1.884765625
,283.2437268,1.8798828125
,283.2821988,1.8798828125
,283.2865075,1.875
,283.3290134,1.865234375
,283.3293555,1.85546875
,283.3484196,1.845703125
,283.3836286,1.8359375
,283.3857509,1.8212890625
,283.4235601,1.806640625
,283.4444787,1.796875
,283.4451133,1.7919921875
,283.4798157,1.7822265625
,283.5000088,1.7724609375
,283.5070567,1.7578125
,283.5404734,1.748046875
,283.5628478,1.73828125
,283.5671688,1.728515625
,283.5843953,1.7236328125
,283.6200979,1.73828125
,283.6262954,1.7724609375
,283.6603977,1.8115234375
,283.664761,1.8505859375
,283.7036795,1.8798828125
,283.7083695,1.8994140625
,283.7453709,1.9140625
,283.7459156,1.9287109375
,283.7851621,1.9287109375
,283.7895819,1.9189453125
,283.804876,1.9140625
,283.8465037,1.9140625
,283.8467949,1.904296875
,283.866154,1.8994140625
,283.9001946,1.8896484375
,283.9212087,1.884765625
,283.9303714,1.8798828125
,283.9651267,1.875
,283.9697391,1.8701171875
,283.9847502,1.8603515625
,284.0174039,1.8505859375
,284.0383381,1.845703125
,284.0471993,1.8359375
,284.0798564,1.8212890625
,284.1015681,1.8115234375
,284.1082708,1.796875
,284.1568199,1.787109375
,284.1574059,1.7724609375
,284.1664415,1.767578125
,284.2029465,1.7529296875
,284.2084014,1.748046875
,284.2284271,1.7431640625
,284.264316,1.73828125
,284.2671826,1.748046875
,284.3033164,1.7626953125
,284.3090809,1.7919921875
,284.3251176,1.8212890625
,284.3643372,1.8603515625
,284.3649116,1.884765625
,284.4015266,1.904296875
,284.4242735,1.9140625
,284.4291851,1.923828125
,284.4491214,1.923828125
,284.4847673,1.9189453125
,284.4888891,1.9091796875
,284.5225817,1.8896484375
,284.550149,1.8798828125
,284.5505735,1.8798828125
,284.5669812,1.875
,284.6098175,1.8701171875
,284.6100813,1.865234375
,284.6299386,1.85546875
,284.6716606,1.85546875
,284.6719526,1.845703125
,284.7186814,1.8310546875
,284.7189715,1.8212890625
,284.7273648,1.81640625
,284.7637289,1.8115234375
,284.7668794,1.8017578125
,284.8017887,1.787109375
,284.8212639,1.77734375
,284.8277044,1.767578125
,284.8625225,1.7626953125
,284.893144,1.748046875
,284.8935038,1.7431640625
,284.9073871,1.7431640625
,284.9425131,1.7431640625
,284.9470254,1.7529296875
,284.9819631,1.77734375
,285.0161059,1.8115234375
,285.0164579,1.8408203125
,285.0293687,1.875
,285.0453509,1.89453125
,285.0817988,1.9189453125
,285.1085197,1.923828125
,285.1087872,1.923828125
,285.1555096,1.923828125
,285.155776,1.9140625
,285.1697834,1.8994140625
,285.2164572,1.8896484375
,285.2168485,1.8798828125
,285.2368323,1.8798828125
,285.2506769,1.875
,285.2698898,1.8701171875
,285.3042961,1.865234375
,285.3106698,1.8603515625
,285.329374,1.85546875
,285.3649789,1.8408203125
,285.3696842,1.8310546875
,285.3904751,1.81640625
,285.4349687,1.8017578125
,285.4353046,1.7919921875
,285.4557751,1.787109375
,285.4700317,1.77734375
,285.5056234,1.7626953125
,285.5084768,1.7529296875
,285.544429,1.748046875
,285.5495668,1.73828125
,285.585622,1.7333984375
,285.6073967,1.728515625
,285.6077138,1.73828125
,285.6429866,1.767578125
,285.6485895,1.8017578125
,285.6836701,1.845703125
,285.7030574,1.875
,285.709721,1.8994140625
,285.7305978,1.9140625
,285.7670056,1.9287109375
,285.7672964,1.93359375
,285.8017838,1.93359375
,285.8227061,1.9287109375
,285.8283368,1.923828125
,285.8638917,1.9140625
,285.8686235,1.9091796875
,285.9048619,1.8994140625
,285.9335556,1.8896484375
,285.9340098,1.8896484375
,285.951157,1.8798828125
,285.9875865,1.8701171875
,285.9880312,1.8603515625
,286.0233873,1.8505859375
,286.0282481,1.8408203125
,286.0640041,1.8310546875
,286.0891972,1.8212890625
,286.0895875,1.806640625
,286.1256566,1.796875
,286.1294252,1.787109375
,286.1659404,1.77734375
,286.1665049,1.767578125
,286.2022346,1.7626953125
,286.2291021,1.7529296875
,286.2293881,1.748046875
,286.2636162,1.748046875
,286.2928061,1.7626953125
,286.2933757,1.7822265625
,286.3396772,1.8212890625
,286.3403193,1.8603515625
,286.3508658,1.89453125
,286.3711931,1.9189453125
,286.3909157,1.9384765625
,286.4101377,1.9482421875
,286.44638,1.9580078125
,286.4820871,1.9580078125
,286.482414,1.953125
,286.488936,1.943359375
,286.5299113,1.9384765625
,286.5303404,1.9287109375
,286.5674942,1.923828125
,286.5680737,1.9140625
,286.6027464,1.9091796875
,286.6236643,1.904296875
,286.6306134,1.89453125
,286.6638082,1.884765625
,286.6852723,1.875
,286.694482,1.8603515625
,286.7092524,1.845703125
,286.7439298,1.8359375
,286.7643976,1.826171875
,286.7698894,1.8115234375
,286.812011,1.796875
,286.8125969,1.787109375
,286.8319854,1.7822265625
,286.8677127,1.767578125
,286.8882276,1.7578125
,286.8889805,1.7431640625
,286.9244299,1.7529296875
,286.9310343,1.767578125
,286.9511704,1.796875
,286.9717116,1.8310546875
,287.0053539,1.865234375
,287.0269237,1.89453125
,287.0341185,1.923828125
,287.0500623,1.943359375
,287.0923111,1.953125
,287.092596,1.9580078125
,287.1216772,1.962890625
,287.1306384,1.9580078125
,287.1665151,1.9482421875
,287.1711509,1.9384765625
,287.2165784,1.9287109375
,287.2169195,1.9189453125
,287.2366501,1.9140625
,287.2500542,1.9091796875
,287.2959759,1.904296875
,287.2962624,1.89453125
,287.3174714,1.8896484375
,287.3321965,1.8798828125
,287.3519079,1.8701171875
,287.3733073,1.8505859375
,287.4082716,1.8359375
,287.4150041,1.826171875
,287.4313674,1.8115234375
,287.4809299,1.8017578125
,287.481225,1.7919921875
,287.4928045,1.7822265625
,287.528316,1.7724609375
,287.5309816,1.7626953125
,287.56632,1.7529296875
,287.5865923,1.748046875
,287.5935193,1.7626953125
,287.6119985,1.787109375
,287.6307231,1.826171875
,287.6657022,1.865234375
,287.6858489,1.89453125
,287.6925873,1.9189453125
,287.7276153,1.9384765625
,287.7325799,1.9482421875
,287.7699463,1.9580078125
,287.7703781,1.953125
,287.8058775,1.953125
,287.8100708,1.9482421875
,287.8460398,1.9384765625
,287.851011,1.9287109375
,287.8864391,1.9140625
,287.9057273,1.9091796875
,287.9132629,1.8994140625
,287.9489444,1.8896484375
,287.9492339,1.8798828125
,287.9697248,1.8701171875
,287.9911267,1.85546875
,288.025896,1.8505859375
,288.0461949,1.8359375
,288.0524285,1.8212890625
,288.0893645,1.8017578125
,288.1093286,1.787109375
,288.1144158,1.77734375
,288.1495962,1.7626953125
,288.1548328,1.748046875
,288.1714376,1.7333984375
,288.20653,1.7236328125
,288.2115403,1.71875
,288.2471637,1.7138671875
,288.2660135,1.71875
,288.2736562,1.73828125
,288.3107676,1.767578125
,288.3162001,1.81640625
,288.3330608,1.85546875
,288.3678124,1.8896484375
,288.3722672,1.9140625
,288.4077102,1.93359375
,288.4132527,1.943359375
,288.4488177,1.953125
,288.4530358,1.953125
,288.5023022,1.9384765625
,288.502884,1.93359375
,288.5112572,1.923828125
,288.5469245,1.9189453125
,288.5515158,1.9091796875
,288.5862072,1.8994140625
,288.6060988,1.89453125
,288.614468,1.884765625
,288.6498667,1.875
,288.6549939,1.8603515625
,288.6704992,1.845703125
,288.7051213,1.8359375
,288.7268958,1.826171875
,288.7337758,1.81640625
,288.7698429,1.8017578125
,288.7752012,1.787109375
,288.7941721,1.77734375
,288.8298811,1.7626953125
,288.8352666,1.7578125
,288.8730546,1.7431640625
,288.877746,1.7333984375
,288.8949123,1.7236328125
,288.9142132,1.7236328125
,288.9495905,1.73828125
,288.953414,1.767578125
,288.9969362,1.796875
,288.9974366,1.8359375
,289.0272134,1.8701171875
,289.0360808,1.8994140625
,289.0512936,1.9140625
,289.0862672,1.93359375
,289.1065634,1.9482421875
,289.1143983,1.953125
,289.1517485,1.9482421875
,289.1550352,1.9384765625
,289.1930156,1.9287109375
,289.193429,1.9189453125
,289.2309374,1.9091796875
,289.2638629,1.904296875
,289.2644274,1.89453125
,289.2725347,1.884765625
,289.3110447,1.8798828125
,289.3134532,1.8701171875
,289.3486183,1.8603515625
,289.3682246,1.845703125
,289.3743812,1.8359375
,289.4078,1.826171875
,289.4286771,1.8115234375
,289.4357625,1.8017578125
,289.4535862,1.77734375
,289.4888669,1.767578125
,289.4934935,1.7578125
,289.5284683,1.7529296875
,289.5487224,1.73828125
,289.5574498,1.728515625
,289.5761178,1.7236328125
,289.5981638,1.728515625
,289.6127799,1.7431640625
,289.6479353,1.7822265625
,289.6540896,1.81640625
,289.6906419,1.85546875
,289.6951906,1.884765625
,289.7308622,1.9140625
,289.7525064,1.93359375
,289.7576257,1.943359375
,289.8084768,1.9482421875
,289.808767,1.9482421875
,289.813227,1.9482421875
,289.8471024,1.9384765625
,289.8703298,1.93359375
,289.8751443,1.923828125
,289.8955973,1.9189453125
,289.9307713,1.9091796875
,289.9359669,1.8994140625
,289.9530125,1.884765625
,289.9960026,1.8798828125
,289.9963081,1.8701171875
,290.012937,1.8603515625
,290.0488188,1.845703125
,290.0694164,1.8310546875
,290.0769104,1.81640625
,290.0981596,1.806640625
,290.1165193,1.7919921875
,290.1339546,1.7822265625
,290.1850098,1.767578125
,290.1853662,1.7431640625
,290.1943678,1.73828125
,290.2154723,1.7333984375
,290.2498355,1.7236328125
,290.2700205,1.71875
,290.2779745,1.7236328125
,290.3120178,1.7431640625
,290.3189665,1.77734375
,290.335418,1.81640625
,290.3709101,1.8603515625
,290.3735738,1.8994140625
,290.4093567,1.9287109375
,290.4282256,1.953125
,290.435341,1.9677734375
,290.4698977,1.97265625
,290.4906611,1.97265625
,290.4992521,1.9677734375
,290.5160341,1.9580078125
,290.5342097,1.953125
,290.56972,1.9384765625
,290.5900886,1.93359375
,290.5950329,1.923828125
,290.6289493,1.9140625
,290.6489639,1.904296875
,290.6587925,1.8896484375
,290.6786454,1.8798828125
,290.6946606,1.865234375
,290.7449647,1.8603515625
,290.7453796,1.845703125
,290.7556939,1.8310546875
,290.7905334,1.81640625
,290.8108857,1.8017578125
,290.8188587,1.7919921875
,290.8533775,1.77734375
,290.8584103,1.7578125
,290.8791905,1.7431640625
,290.895008,1.7236328125
,290.9156354,1.7236328125
,290.9511039,1.71875
,290.9556845,1.7138671875
,290.990501,1.71875
,291.0117438,1.7431640625
,291.0168264,1.77734375
,291.0518877,1.81640625
,291.0735241,1.85546875
,291.0739717,1.8896484375
,291.1104616,1.923828125
,291.1306177,1.9482421875
,291.1354787,1.962890625
,291.1714979,1.97265625
,291.1782198,1.97265625
,291.2131258,1.97265625
,291.2182303,1.962890625
,291.2364304,1.953125
,291.277202,1.9482421875
,291.2780014,1.9384765625
,291.2973756,1.93359375
,291.338285,1.9287109375
,291.3388352,1.9140625
,291.3573638,1.8994140625
,291.379172,1.89453125
,291.41511,1.884765625
,291.4155398,1.8701171875
,291.466699,1.85546875
,291.4672512,1.8408203125
,291.4776847,1.826171875
,291.5270758,1.8115234375
,291.5273671,1.8017578125
,291.5378043,1.7822265625
,291.5714814,1.767578125
,291.5932202,1.7529296875
,291.5990662,1.7333984375
,291.616931,1.708984375
,291.6532481,1.708984375
,291.6581292,1.7041015625
,291.693473,1.7041015625
,291.6964734,1.71875
,291.7324723,1.73828125
,291.7616639,1.77734375
,291.7619591,1.81640625
,291.7975084,1.8603515625
,291.7980741,1.8896484375
,291.817876,1.9189453125
,291.8574206,1.93359375
,291.8577056,1.943359375
,291.8784549,1.9482421875
,291.9131796,1.9482421875
,291.9210362,1.9384765625
,291.9402477,1.9287109375
,291.975269,1.9189453125
,291.975663,1.9091796875
,291.9974587,1.904296875
,292.0428914,1.89453125
,292.0437305,1.884765625
,292.0620136,1.875
,292.0790479,1.8701171875
,292.1205652,1.85546875
,292.1211261,1.845703125
,292.1399521,1.826171875
,292.1576121,1.8115234375
,292.1921288,1.796875
,292.1967516,1.7822265625
,292.2333663,1.767578125
,292.2584867,1.7529296875
,292.2587706,1.7333984375
,292.2938367,1.728515625
,292.2982217,1.71875
,292.3195409,1.708984375
,292.3680772,1.6845703125
,292.3684726,1.6748046875
,292.3782261,1.669921875
,292.4128993,1.669921875
,292.4175,1.6748046875
,292.4515653,1.689453125
,292.4732709,1.7236328125
,292.4802779,1.767578125
,292.5007105,1.8115234375
,292.5160061,1.845703125
,292.5512478,1.8798828125
,292.5717763,1.8994140625
,292.5780915,1.9189453125
,292.6137345,1.9287109375
,292.6188317,1.9287109375
,292.6550604,1.9189453125
,292.6606121,1.9091796875
,292.6964612,1.904296875
,292.696747,1.89453125
,292.7341318,1.884765625
,292.7372095,1.875
,292.7738861,1.8701171875
,292.7796405,1.8603515625
,292.8147192,1.85546875
,292.8201497,1.8408203125
,292.8562858,1.826171875
,292.8565776,1.8115234375
,292.8935844,1.8017578125
,292.8986057,1.787109375
,292.9338936,1.77734375
,292.9609365,1.7626953125
,292.961224,1.7529296875
,292.9803626,1.73828125
,292.9988976,1.728515625
,293.0397803,1.7138671875
,293.0400662,1.7041015625
,293.0603419,1.689453125
,293.0781156,1.6845703125
,293.1122866,1.6845703125
,293.1327501,1.6796875
,293.1400192,1.6796875
,293.1615114,1.689453125
,293.1805204,1.71875
,293.2182094,1.7529296875
,293.2234541,1.796875
,293.259552,1.8310546875
,293.260108,1.8603515625
,293.2950372,1.8896484375
,293.2994386,1.9091796875
,293.3355603,1.9189453125
,293.355532,1.9189453125
,293.3604622,1.9189453125
,293.3971985,1.9091796875
,293.4025571,1.8994140625
,293.4179179,1.8896484375
,293.4526556,1.884765625
,293.4749721,1.8798828125
,293.4789614,1.875
,293.5187612,1.865234375
,293.5190454,1.85546875
,293.5419946,1.8408203125
,293.5756725,1.8310546875
,293.5982074,1.8212890625
,293.5987755,1.8017578125
,293.6342171,1.787109375
,293.6389137,1.7724609375
,293.6742897,1.7578125
,293.6963818,1.7431640625
,293.7008493,1.728515625
,293.7388702,1.7138671875
,293.7392379,1.69921875
,293.7748256,1.6845703125
,293.7968998,1.6748046875
,293.7973068,1.66015625
,293.845009,1.650390625
,293.845369,1.640625
,293.8746988,1.6455078125
,293.8800147,1.6650390625
,293.9156848,1.689453125
,293.9220041,1.7236328125
,293.9601783,1.7626953125
,293.9605987,1.806640625
,293.9952674,1.8359375
,294.0011395,1.865234375
,294.0380139,1.875
,294.0385788,1.884765625
,294.0740132,1.884765625
,294.0946701,1.8798828125
,294.1025056,1.8701171875
,294.1379819,1.85546875
,294.1387233,1.8408203125
,294.1730401,1.8359375
,294.1933914,1.826171875
,294.2014069,1.8212890625
,294.2374084,1.8115234375
,294.241852,1.8017578125
,294.2761797,1.7919921875
,294.2820367,1.77734375
,294.3166312,1.7626953125
,294.3378265,1.7431640625
,294.3382762,1.73828125
,294.3745579,1.7236328125
,294.394364,1.7138671875
,294.4029099,1.69921875
,294.4233256,1.6845703125
,294.4700314,1.6748046875
,294.4704929,1.669921875
,294.4839489,1.66015625
,294.5191867,1.6552734375
,294.5244768,1.6455078125
,294.5400056,1.640625
,294.576886,1.6552734375
,294.5791507,1.6796875
,294.6148434,1.7236328125
,294.6363859,1.7626953125
,294.6431162,1.8017578125
,294.6638729,1.8359375
,294.6990735,1.865234375
,294.6998025,1.8798828125
,294.7342955,1.89453125
,294.754999,1.8994140625
,294.761187,1.89453125
,294.7950671,1.884765625
,294.8172796,1.875
,294.8235186,1.865234375
,294.874187,1.85546875
,294.8748425,1.8505859375
,294.8805154,1.845703125
,294.9191058,1.8408203125
,294.921852,1.826171875
,294.9589635,1.81640625
,294.9637782,1.806640625
,294.9993502,1.8017578125
,295.0018749,1.787109375
,295.0394698,1.7724609375
,295.0589135,1.7578125
,295.0592078,1.748046875
,295.0946472,1.7333984375
,295.1221655,1.7236328125
,295.1224548,1.708984375
,295.1569287,1.69921875
,295.1642438,1.6943359375
,295.1836808,1.6796875
,295.2191926,1.6748046875
,295.2235966,1.6748046875
,295.2627203,1.69921875
,295.2632224,1.728515625
,295.2967998,1.77734375
,295.3012409,1.8212890625
,295.3387087,1.85546875
,295.3434667,1.884765625
,295.379473,1.9140625
,295.3842494,1.9287109375
,295.4052601,1.9384765625
,295.4209471,1.9384765625
,295.4564254,1.93359375
,295.4615248,1.9287109375
,295.4984174,1.9189453125
,295.5034278,1.9140625
,295.5381807,1.8994140625
,295.5430358,1.89453125
,295.5897171,1.884765625
,295.5900031,1.8798828125
,295.6112391,1.865234375
,295.623385,1.8603515625
,295.6675855,1.8505859375
,295.6679307,1.8408203125
,295.6834177,1.826171875
,295.7183397,1.8115234375
,295.7236401,1.7919921875
,295.759306,1.7822265625
,295.7597396,1.767578125
,295.7795708,1.7578125
,295.8155628,1.748046875
,295.8371067,1.7333984375
,295.8439158,1.728515625
,295.863577,1.7236328125
,295.8992012,1.7236328125
,295.9036891,1.73828125
,295.9388262,1.7724609375
,295.9580329,1.8115234375
,295.9656249,1.85546875
,295.9817366,1.89453125
,296.0160086,1.9287109375
,296.0376329,1.953125
,296.0445963,1.9677734375
,296.0847245,1.9775390625
,296.0850196,1.9775390625
,296.1218092,1.97265625
,296.1227292,1.962890625
,296.1632542,1.953125
,296.1636869,1.943359375
,296.1828345,1.9384765625
,296.2234893,1.9287109375
,296.2237742,1.9189453125
,296.2439058,1.9140625
,296.2797365,1.904296875
,296.2846481,1.8896484375
,296.3196801,1.875
,296.3461359,1.8603515625
,296.3464246,1.8505859375
,296.3621033,1.8359375
,296.3951641,1.8212890625
,296.4153082,1.806640625
,296.4249555,1.7919921875
,296.4451757,1.7822265625
,296.4788399,1.767578125
,296.4994361,1.7578125
,296.5013074,1.748046875
,296.5372667,1.7529296875
,296.5423809,1.767578125
,296.5764859,1.8017578125
,296.5979268,1.8359375
,296.6054575,1.8798828125
,296.6248384,1.9140625
,296.6584898,1.953125
,296.6790456,1.9775390625
,296.6866104,1.9970703125
,296.7024103,2.001953125
,296.7371082,2.0068359375
,296.7573581,2.0068359375
,296.7654829,2.0068359375
,296.8010843,1.9970703125
,296.803754,1.982421875
,296.8388937,1.97265625
,296.859108,1.962890625
,296.8663009,1.953125
,296.8859007,1.943359375
,296.9031759,1.93359375
,296.9381735,1.923828125
,296.9575901,1.9140625
,296.9647877,1.8994140625
,297.000776,1.884765625
,297.0036508,1.865234375
,297.0405665,1.8505859375
,297.0656595,1.8408203125
,297.0659467,1.826171875
,297.0822472,1.81640625
,297.1200623,1.8017578125
,297.1244933,1.7919921875
,297.1464024,1.7822265625
,297.180596,1.7822265625
,297.185251,1.7919921875
,297.2238068,1.81640625
,297.2243782,1.8505859375
,297.2704213,1.8994140625
,297.2708614,1.9384765625
,297.2853184,1.9775390625
,297.3201577,1.9970703125
,297.3241621,2.021484375
,297.3581033,2.03125
,297.3800628,2.03125
,297.3869319,2.0263671875
,297.4242039,2.021484375
,297.4264179,2.01171875
,297.4614351,1.9970703125
,297.4661734,1.9873046875
,297.4862316,1.982421875
,297.5226157,1.97265625
,297.5273114,1.962890625
,297.5622262,1.9580078125
,297.5672838,1.9482421875
,297.6036789,1.93359375
,297.6041103,1.9189453125
,297.6425118,1.904296875
,297.6427922,1.8896484375
,297.6780837,1.875
,297.6984968,1.85546875
,297.7058383,1.8408203125
,297.7386698,1.826171875
,297.7589937,1.8115234375
,297.7690523,1.8017578125
,297.7836845,1.7822265625
,297.817563,1.7822265625
,297.8394777,1.7919921875
,297.8445396,1.81640625
,297.8799837,1.8505859375
,297.9013232,1.884765625
,297.9059088,1.9189453125
,297.9426586,1.9580078125
,297.9624905,1.982421875
,297.9627841,2.0068359375
,297.9986325,2.0166015625
,298.0197413,2.0166015625
,298.0278302,2.01171875
,298.046408,2.0068359375
,298.0929839,1.9970703125
,298.0934295,1.982421875
,298.1228891,1.9677734375
,298.1302569,1.9580078125
,298.1491329,1.943359375
,298.1645774,1.9287109375
,298.2024194,1.9189453125
,298.2075392,1.904296875
,298.2427303,1.8896484375
,298.245746,1.875
,298.2837209,1.8603515625
,298.288253,1.8408203125
,298.3239286,1.8212890625
,298.324224,1.806640625
,298.3707613,1.796875
,298.3710447,1.7822265625
,298.3912522,1.767578125
,298.406002,1.7529296875
,298.4415386,1.7431640625
,298.464839,1.7431640625
,298.4694321,1.748046875
,298.4884284,1.7724609375
,298.505959,1.8017578125
,298.5405443,1.8505859375
,298.5445332,1.8896484375
,298.581321,1.93359375
,298.5855004,1.9580078125
,298.6226334,1.9775390625
,298.6294717,1.9921875
,298.6648791,1.9970703125
,298.6653119,1.9921875
,298.7022053,1.9873046875
,298.7116854,1.9775390625
,298.726799,1.953125
,298.7625044,1.943359375
,298.7674744,1.9384765625
,298.8034427,1.923828125
,298.8069508,1.9140625
,298.8465029,1.904296875
,298.8471501,1.8896484375
,298.8998258,1.8798828125
,298.9003927,1.8603515625
,298.9070125,1.8505859375
,298.9409708,1.8408203125
,298.9631134,1.8310546875
,298.9678792,1.81640625
,299.0036544,1.8017578125
,299.0089059,1.7919921875
,299.0439452,1.77734375
,299.0485174,1.7626953125
,299.0845934,1.7529296875
,299.0848754,1.7529296875
,299.1230307,1.767578125
,299.1281411,1.8017578125
,299.1488621,1.8359375
,299.1679196,1.8798828125
,299.2090821,1.9091796875
,299.20962,1.9482421875
,299.2393107,1.9677734375
,299.2466894,1.9921875
,299.284791,2.001953125
,299.2850777,2.001953125
,299.332538,1.9970703125
,299.3328917,1.9921875
,299.3621019,1.982421875
,299.3692359,1.97265625
,299.3906893,1.9580078125
,299.4099194,1.9482421875
,299.4303149,1.9287109375
,299.4486527,1.9091796875
,299.4829839,1.904296875
,299.4881036,1.89453125
,299.5328747,1.884765625
,299.5331706,1.8701171875
,299.5490485,1.85546875
,299.5862569,1.8359375
,299.5906898,1.8212890625
,299.606577,1.806640625
,299.6423565,1.796875
,299.6475819,1.7822265625
,299.6818683,1.767578125
,299.7026373,1.7529296875
,299.7104117,1.748046875
,299.7449424,1.7529296875
,299.7493944,1.767578125
,299.7875033,1.796875
,299.7878367,1.8359375
,299.8228816,1.8798828125
,299.8276735,1.9091796875
,299.863553,1.9384765625
,299.8678646,1.953125
,299.9056955,1.962890625
,299.9252766,1.9677734375
,299.9300616,1.9677734375
,299.9463577,1.9580078125
,299.9806793,1.9482421875
,300.0019121,1.9384765625
,300.0078691,1.923828125
,300.0474442,1.9140625
,300.0477414,1.904296875
,300.0832222,1.8896484375
,300.1016902,1.875
,300.1093079,1.8701171875
,300.1307315,1.85546875
,300.1510518,1.8310546875
,300.1675731,1.806640625
,300.2068064,1.796875
,300.2073746,1.7919921875
,300.2441075,1.7822265625
,300.2486322,1.7724609375
,300.2835489,1.7578125
,300.3037137,1.7431640625
,300.3109673,1.728515625
,300.3460153,1.7138671875
,300.3480451,1.69921875
,300.3687632,1.7041015625
,300.4028951,1.7236328125
,300.425587,1.7529296875
,300.4301847,1.7919921875
,300.4516299,1.826171875
,300.5008486,1.8603515625
,300.5011347,1.89453125
,300.5078751,1.9189453125
,300.5437159,1.943359375
,300.5503851,1.9580078125
,300.5922554,1.962890625
,300.5925463,1.9677734375
,300.610278,1.97265625
,300.6457191,1.9775390625
,300.6498964,1.982421875
,300.6878989,1.9873046875
,300.6883974,1.9921875
,300.7246746,2.0068359375
,300.729662,2.01171875
,300.7677639,2.021484375
,300.7700163,2.0263671875
,300.8050334,2.03125
,300.8102188,2.03125
,300.8591299,2.03125
,300.8596758,2.0263671875
,300.8893813,2.0068359375
,300.8897461,1.982421875
,300.9090525,1.97265625
,300.9441803,1.953125
,300.9662517,1.9287109375
,300.9695359,1.904296875
,301.0052931,1.8896484375
,301.0299878,1.89453125
,301.0305596,1.904296875
,301.066826,1.9189453125
,301.0671628,1.9384765625
,301.0893603,1.9677734375
,301.1379657,1.9873046875
,301.1385349,2.001953125
,301.1517181,2.0068359375
,301.171966,2.001953125
,301.2074412,1.9921875
,301.2127163,1.982421875
,301.2290376,1.962890625
,301.2493751,1.953125
,301.2835139,1.9384765625
,301.3051106,1.923828125
,301.3121459,1.9091796875
,301.3476019,1.89453125
,301.3517001,1.875
,301.3921532,1.8603515625
,301.3924573,1.845703125
,301.4191785,1.8310546875
,301.4308476,1.81640625
,301.4667306,1.796875
,301.4698169,1.7822265625
,301.5102955,1.7626953125
,301.5105874,1.7529296875
,301.5471264,1.7333984375
,301.5525094,1.71875
,301.5875894,1.708984375
,301.5921919,1.6943359375
,301.6363845,1.6943359375
,301.6368814,1.708984375
,301.6501947,1.73828125
,301.6995302,1.7724609375
,301.7001828,1.81640625
,301.7109151,1.85546875
,301.7612119,1.8896484375
,301.7615551,1.9140625
,301.7820806,1.9384765625
,301.7901881,1.9482421875
,301.8395912,1.9580078125
,301.8401603,1.953125
,301.8520106,1.943359375
,301.8725802,1.9287109375
,301.9078384,1.923828125
,301.9129044,1.9140625
,301.9487701,1.8994140625
,301.9544444,1.884765625
,301.9694963,1.875
,302.0043435,1.865234375
,302.0247052,1.8505859375
,302.0306866,1.8359375
,302.0646284,1.8212890625
,302.0850241,1.806640625
,302.093019,1.7919921875
,302.1261875,1.7724609375
,302.1463118,1.7529296875
,302.1482868,1.7431640625
,302.1962467,1.728515625
,302.1972077,1.7138671875
,302.2267859,1.69921875
,302.234091,1.6845703125
,302.2688532,1.669921875
,302.2719322,1.6748046875
,302.2937551,1.6943359375
,302.3279827,1.7138671875
,302.3481176,1.73828125
,302.3498121,1.7578125
,302.3875891,1.7822265625
,302.3905751,1.796875
,302.4262563,1.8115234375
,302.4465668,1.8115234375
,302.4536184,1.8017578125
,302.4911635,1.787109375
,302.4955589,1.7724609375
,302.5116864,1.7578125
,302.5509133,1.748046875
,302.5512013,1.73828125
,302.5706671,1.728515625
,302.6066405,1.7236328125
,302.627304,1.7138671875
,302.635028,1.708984375
,302.6534197,1.69921875
,302.6887542,1.6943359375
,302.7103419,1.689453125
,302.7109068,1.6845703125
,302.7476911,1.6796875
,302.7529551,1.6748046875
,302.7855847,1.669921875
,302.8059302,1.6650390625
,302.8141225,1.6552734375
,302.8496113,1.650390625
,302.8542841,1.640625
,302.8727593,1.630859375
,302.9088321,1.640625
,302.9115345,1.6552734375
,302.947705,1.689453125
,302.9673321,1.7236328125
,302.9744305,1.767578125
,303.0197549,1.806640625
,303.0200699,1.8408203125
,303.0360687,1.8603515625
,303.0706887,1.8798828125
,303.0712492,1.884765625
,303.1056617,1.8896484375
,303.1261459,1.8798828125
,303.1332095,1.8701171875
,303.1681057,1.8505859375
,303.1883285,1.8408203125
,303.1925611,1.8310546875
,303.2303122,1.8212890625
,303.2511786,1.806640625
,303.2514649,1.796875
,303.2876867,1.787109375
,303.3129139,1.77734375
,303.3132138,1.7626953125
,303.3592594,1.748046875
,303.3595565,1.728515625
,303.3732551,1.7138671875
,303.4084786,1.6943359375
,303.430185,1.6796875
,303.430659,1.66015625
,303.4708999,1.6455078125
,303.4714835,1.6357421875
,303.5144542,1.6259765625
,303.5147389,1.6259765625
,303.5342971,1.640625
,303.5697279,1.6650390625
,303.5899884,1.7138671875
,303.5902708,1.7529296875
,303.6276732,1.796875
,303.6319665,1.8212890625
,303.6687981,1.8505859375
,303.7019267,1.865234375
,303.7022868,1.875
,303.715971,1.875
,303.7496024,1.865234375
,303.7556996,1.845703125
,303.7923104,1.8310546875
,303.7929069,1.81640625
,303.8277987,1.8115234375
,303.8347432,1.796875
,303.8716145,1.787109375
,303.8764807,1.7822265625
,303.9131593,1.7724609375
,303.9161114,1.7578125
,303.9519235,1.7431640625
,303.9566898,1.7333984375
,303.9727725,1.71875
,304.0104105,1.708984375
,304.0130457,1.69921875
,304.0518735,1.6796875
,304.0565137,1.6650390625
,304.0775082,1.6552734375
,304.0972427,1.640625
,304.1324874,1.6259765625
,304.1366031,1.630859375
,304.1541642,1.6455078125
,304.202159,1.689453125
,304.202482,1.73828125
,304.2150581,1.7919921875
,304.2489789,1.8310546875
,304.2693014,1.865234375
,304.2765867,1.8896484375
,304.2973325,1.904296875
,304.3119128,1.9091796875
,304.3458425,1.9091796875
,304.3658717,1.904296875
,304.3720099,1.8994140625
,304.4086055,1.884765625
,304.4286285,1.875
,304.43488,1.8603515625
,304.4720314,1.8505859375
,304.4766281,1.845703125
,304.5123947,1.8310546875
,304.51762,1.8212890625
,304.5349533,1.8115234375
,304.5710319,1.8017578125
,304.5731456,1.787109375
,304.6090274,1.77734375
,304.6288252,1.7626953125
,304.6365514,1.7431640625
,304.6870152,1.7236328125
,304.6873069,1.708984375
,304.6926846,1.6943359375
,304.7281891,1.689453125
,304.7487898,1.689453125
,304.7542692,1.708984375
,304.7960218,1.7431640625
,304.7963976,1.7822265625
,304.8417916,1.826171875
,304.8420734,1.8603515625
,304.8586511,1.8994140625
,304.8743125,1.9189453125
,304.9207059,1.9384765625
,304.921282,1.9384765625
,304.9349288,1.93359375
,304.9738036,1.9287109375
,304.9744353,1.9140625
,305.0085698,1.8994140625
,305.0305368,1.884765625
,305.0353118,1.8701171875
,305.0695346,1.865234375
,305.0744834,1.85546875
,305.1099967,1.8505859375
,305.1151179,1.8408203125
,305.1523238,1.826171875
,305.1729305,1.81640625
,305.177598,1.8017578125
,305.2152987,1.787109375
,305.2204914,1.7724609375
,305.2371091,1.7578125
,305.2778713,1.7431640625
,305.2784465,1.7333984375
,305.294564,1.71875
,305.3307737,1.708984375
,305.3508878,1.7041015625
,305.3559986,1.7236328125
,305.4031074,1.7578125
,305.403645,1.796875
,305.4340166,1.8359375
,305.4343036,1.8701171875
,305.4693991,1.904296875
,305.4894906,1.923828125
,305.4960464,1.93359375
,305.5417236,1.93359375
,305.5420097,1.923828125
,305.5597396,1.9140625
,305.5946142,1.8994140625
,305.5949114,1.8798828125
,305.6296513,1.8701171875
,305.6370622,1.8603515625
,305.6873444,1.8505859375
,305.6879073,1.845703125
,305.6966222,1.8359375
,305.7321132,1.8212890625
,305.7366916,1.8212890625
,305.7738025,1.8115234375
,305.7742066,1.8017578125
,305.8121405,1.787109375
,305.8320036,1.77734375
,305.8365486,1.7626953125
,305.8579941,1.748046875
,305.8932173,1.7333984375
,305.9139293,1.7236328125
,305.918413,1.71875
,305.9549116,1.7333984375
,305.9595272,1.767578125
,305.9761862,1.8017578125
,306.0106776,1.845703125
,306.0176494,1.8798828125
,306.0530431,1.9091796875
,306.055727,1.93359375
,306.0902725,1.943359375
,306.1122289,1.943359375
,306.1190223,1.9384765625
,306.1696912,1.9287109375
,306.1703209,1.9189453125
,306.175952,1.9140625
,306.2129096,1.8994140625
,306.2175389,1.89453125
,306.2524999,1.884765625
,306.2596946,1.884765625
,306.2948066,1.8798828125
,306.2982468,1.8701171875
,306.3152576,1.8603515625
,306.3506757,1.85546875
,306.3725873,1.845703125
,306.3768592,1.8359375
,306.4118953,1.826171875
,306.4325087,1.8115234375
,306.4397016,1.8017578125
,306.4809029,1.7919921875
,306.4814344,1.787109375
,306.4965843,1.787109375
,306.5317726,1.8115234375
,306.5371163,1.8408203125
,306.575339,1.8798828125
,306.5757289,1.9091796875
,306.6106836,1.93359375
,306.6307804,1.9482421875
,306.6384821,1.962890625
,306.6752013,1.962890625
,306.6799939,1.953125
,306.7155623,1.943359375
,306.7158442,1.9287109375
,306.7531375,1.9189453125
,306.7583286,1.9091796875
,306.7946177,1.904296875
,306.7992136,1.89453125
,306.83461,1.884765625
,306.8397085,1.8798828125
,306.8746882,1.8701171875
,306.9017137,1.8603515625
,306.902006,1.85546875
,306.9180208,1.8408203125
,306.9536369,1.8359375
,306.9582511,1.8212890625
,306.9804998,1.8115234375
,307.0169856,1.7919921875
,307.0210132,1.7822265625
,307.0567782,1.77734375
,307.057061,1.7822265625
,307.0941714,1.806640625
,307.0989747,1.8408203125
,307.1347234,1.875
,307.1397434,1.904296875
,307.1741318,1.93359375
,307.1940811,1.9482421875
,307.1980647,1.953125
,307.2336554,1.9482421875
,307.2432352,1.9482421875
,307.2589075,1.923828125
,307.2933507,1.9189453125
,307.2983006,1.9091796875
,307.3381778,1.8994140625
,307.3387462,1.8994140625
,307.3737743,1.8896484375
,307.3944808,1.8798828125
,307.4012673,1.875
,307.4356225,1.865234375
,307.4621815,1.85546875
,307.4627422,1.85546875
,307.477507,1.845703125
,307.5111635,1.8310546875
,307.5315545,1.8212890625
,307.5421276,1.8115234375
,307.5615204,1.796875
,307.5998961,1.7919921875
,307.6001928,1.796875
,307.6177915,1.8212890625
,307.6622829,1.8505859375
,307.6628409,1.8896484375
,307.6823038,1.923828125
,307.7009432,1.943359375
,307.7349555,1.9677734375
,307.7391755,1.9775390625
,307.7903947,1.982421875
,307.7909367,1.9775390625
,307.8201188,1.97265625
,307.8204057,1.9677734375
,307.8574939,1.9580078125
,307.8580575,1.953125
,307.8932054,1.943359375
,307.9139301,1.93359375
,307.9224925,1.93359375
,307.9369735,1.923828125
,307.9719415,1.9189453125
,307.9944705,1.904296875
,307.998969,1.8798828125
,308.0385588,1.8798828125
,308.0388544,1.875
,308.0760364,1.865234375
,308.0810129,1.85546875
,308.1163923,1.845703125
,308.1226307,1.8359375
,308.1586179,1.845703125
,308.1589024,1.8603515625
,308.2093727,1.89453125
,308.2096663,1.923828125
,308.220767,1.9580078125
,308.2559313,1.9873046875
,308.2604342,2.0068359375
,308.2942737,2.0166015625
,308.3147892,2.021484375
,308.3207823,2.021484375
,308.3649013,2.01171875
,308.3654413,2.0068359375
,308.3794031,1.9921875
,308.4152565,1.982421875
,308.4210475,1.9677734375
,308.4589464,1.962890625
,308.4595097,1.953125
,308.4963557,1.9384765625
,308.5181532,1.9287109375
,308.5185227,1.9189453125
,308.553531,1.9091796875
,308.5737945,1.89453125
,308.5818644,1.8798828125
,308.6276419,1.865234375
,308.627929,1.85546875
,308.6419961,1.8408203125
,308.6771405,1.826171875
,308.7074881,1.8212890625
,308.7079989,1.8212890625
,308.7196919,1.8359375
,308.7404428,1.8798828125
,308.7862816,1.9189453125
,308.7868522,1.953125
,308.8004454,1.97265625
,308.8355011,1.9970703125
,308.8557149,2.001953125
,308.8628762,2.0068359375
,308.8813956,1.9970703125
,308.9263331,1.9921875
,308.9266242,1.9775390625
,308.9404055,1.9677734375
,308.960999,1.9580078125
,308.9965295,1.943359375
,309.0170622,1.9287109375
,309.021405,1.9189453125
,309.0557051,1.904296875
,309.0773644,1.8896484375
,309.0818227,1.8798828125
,309.1014014,1.865234375
,309.1377705,1.8505859375
,309.1426037,1.8310546875
,309.1781157,1.81640625
,309.1807211,1.796875
,309.2189188,1.7822265625
,309.2193499,1.767578125
,309.2567746,1.7626953125
,309.261432,1.77734375
,309.2952336,1.796875
,309.3152809,1.8310546875
,309.3212868,1.865234375
,309.3562021,1.8994140625
,309.3616822,1.923828125
,309.4071114,1.943359375
,309.4073979,1.953125
,309.428866,1.9482421875
,309.440776,1.9482421875
,309.4863414,1.9482421875
,309.4868931,1.9384765625
,309.5030579,1.93359375
,309.5486773,1.923828125
,309.5492508,1.9189453125
,309.5643571,1.9091796875
,309.5988911,1.8994140625
,309.6038439,1.89453125
,309.6221803,1.8798828125
,309.6405898,1.875
,309.6758941,1.865234375
,309.6974336,1.85546875
,309.7046782,1.8408203125
,309.7514955,1.8310546875
,309.751863,1.81640625
,309.7651533,1.806640625
,309.7822565,1.7919921875
,309.8010043,1.787109375
,309.8378357,1.7919921875
,309.8408255,1.81640625
,309.8621105,1.845703125
,309.9086548,1.8798828125
,309.908938,1.9189453125
,309.9250574,1.943359375
,309.9602409,1.962890625
,309.9605323,1.9775390625
,309.9921579,1.9873046875
,310.0128283,1.9873046875
,310.0220631,1.982421875
,310.0645524,1.9677734375
,310.0651132,1.9580078125
,310.0934696,1.943359375
,310.1044522,1.93359375
,310.1238797,1.923828125
,310.1593016,1.904296875
,310.1884165,1.89453125
,310.1892369,1.884765625
,310.2029873,1.8798828125
,310.2519324,1.875
,310.2524978,1.865234375
,310.2637013,1.845703125
,310.3003664,1.8310546875
,310.3050836,1.81640625
,310.345938,1.8017578125
,310.3467934,1.7919921875
,310.3623501,1.7822265625
,310.4082146,1.7822265625
,310.4084984,1.8017578125
,310.4280899,1.826171875
,310.4445405,1.8603515625
,310.485773,1.8896484375
,310.4861911,1.9189453125
,310.5021243,1.943359375
,310.538208,1.9580078125
,310.5423631,1.97265625
,310.5800187,1.9677734375
,310.5847299,1.962890625
,310.6193649,1.953125
,310.6241782,1.9384765625
,310.6441774,1.923828125
,310.6860883,1.9091796875
,310.6863773,1.89453125
,310.7185951,1.8896484375
,310.7231679,1.8798828125
,310.7584015,1.875
,310.7803848,1.8603515625
,310.7845894,1.8505859375
,310.8195677,1.8359375
,310.8240666,1.826171875
,310.8667305,1.806640625
,310.8670465,1.7919921875
,310.8880647,1.7822265625
,310.9024848,1.767578125
,310.9467318,1.7626953125
,310.9471054,1.7578125
,310.9760439,1.767578125
,310.9858677,1.7919921875
,311.0070385,1.826171875
,311.0434418,1.85546875
,311.0440358,1.884765625
,311.078393,1.9091796875
,311.0830729,1.9287109375
,311.1186119,1.9384765625
,311.1248303,1.943359375
,311.1655205,1.9384765625
,311.1660854,1.923828125
,311.2026303,1.9140625
,311.2048451,1.904296875
,311.243453,1.8896484375
,311.2439094,1.8798828125
,311.2886605,1.8701171875
,311.2889559,1.8603515625
,311.3044871,1.8505859375
,311.3388431,1.8408203125
,311.3588837,1.826171875
,311.3656533,1.8115234375
,311.4121489,1.796875
,311.4124382,1.7822265625
,311.4330251,1.7724609375
,311.4430218,1.7578125
,311.4892462,1.7431640625
,311.4895733,1.728515625
,311.5051472,1.7236328125
,311.5418297,1.7138671875
,311.5459769,1.69921875
,311.5818361,1.6943359375
,311.5859402,1.6943359375
,311.6216475,1.708984375
,311.644578,1.7333984375
,311.6451504,1.7822265625
,311.690541,1.8212890625
,311.6911387,1.865234375
,311.7049934,1.89453125
,311.7400492,1.923828125
,311.7470586,1.9384765625
,311.7673889,1.9482421875
,311.7839326,1.953125
,311.8202748,1.953125
,311.8242867,1.943359375
,311.8587568,1.93359375
,311.8789909,1.9189453125
,311.8881096,1.9091796875
,311.9064916,1.8994140625
,311.9541021,1.8896484375
,311.9546769,1.8798828125
,311.9630137,1.865234375
,312.0007006,1.85546875
,312.0052566,1.845703125
,312.0255066,1.8310546875
,312.062094,1.8115234375
,312.0821423,1.796875
,312.0874703,1.7822265625
,312.1068614,1.767578125
,312.1232575,1.7529296875
,312.1593682,1.73828125
,312.1641244,1.728515625
,312.1850627,1.71875
,312.2353781,1.708984375
,312.2356846,1.69921875
,312.2474894,1.689453125
,312.2663234,1.6748046875
,312.3023607,1.669921875
,312.3221194,1.66015625
,312.3294608,1.650390625
,312.3451303,1.6455078125
,312.3909715,1.6552734375
,312.3914499,1.6796875
,312.4075073,1.728515625
,312.4529863,1.7724609375
,312.4534714,1.81640625
,312.4662066,1.8603515625
,312.5021945,1.8896484375
,312.5228699,1.9140625
,312.5231559,1.9287109375
,312.5579195,1.943359375
,312.5798317,1.943359375
,312.5856226,1.9384765625
,312.6242054,1.9287109375
,312.6286948,1.9189453125
,312.663359,1.904296875
,312.6663643,1.89453125
,312.6839794,1.8798828125
,312.7204644,1.875
,312.7253001,1.865234375
,312.7605064,1.8505859375
,312.7651841,1.8359375
,312.8007074,1.826171875
,312.821037,1.8115234375
,312.8283188,1.7919921875
,312.8658588,1.77734375
,312.8664071,1.7578125
,312.9004355,1.748046875
,312.9054023,1.73828125
,312.9414962,1.728515625
,312.9474448,1.7138671875
,312.9816265,1.7041015625
,312.9862281,1.6943359375
,313.0216943,1.689453125
,313.0413266,1.6748046875
,313.0493688,1.6650390625
,313.064915,1.6552734375
,313.1062519,1.650390625
,313.1065377,1.6455078125
,313.1271397,1.6357421875
,313.1478324,1.6259765625
,313.1841211,1.6162109375
,313.1866745,1.611328125
,313.230321,1.611328125
,313.230663,1.6259765625
,313.250997,1.6552734375
,313.2661588,1.708984375
,313.302231,1.7578125
,313.322747,1.806640625
,313.3274234,1.8505859375
,313.3679031,1.8798828125
,313.3684704,1.8994140625
,313.40351,1.9189453125
,313.4039852,1.923828125
,313.4472234,1.93359375
,313.4477681,1.9287109375
,313.4764361,1.9189453125
,313.4865662,1.9140625
,313.5205231,1.9091796875
,313.5422774,1.8994140625
,313.5483379,1.8896484375
,313.5854806,1.8798828125
,313.5857723,1.8701171875
,313.6056473,1.8603515625
,313.6390011,1.8505859375
,313.6613677,1.8310546875
,313.6684615,1.81640625
,313.7119605,1.806640625
,313.7123921,1.7919921875
,313.7290817,1.7724609375
,313.7510073,1.7578125
,313.770847,1.7431640625
,313.7922594,1.728515625
,313.806684,1.71875
,313.8427437,1.708984375
,313.8660835,1.69921875
,313.8666167,1.6943359375
,313.9029559,1.6845703125
,313.9234717,1.6796875
,313.9308916,1.669921875
,313.9659957,1.6650390625
,313.9664381,1.6552734375
,313.9998697,1.6552734375
,314.0218092,1.6455078125
,314.028531,1.640625
,314.0489742,1.6357421875
,314.084561,1.650390625
,314.0895888,1.6796875
,314.1239058,1.7236328125
,314.1442246,1.767578125
,314.1463769,1.8115234375
,314.1798613,1.85546875
,314.2005717,1.8896484375
,314.2076933,1.9140625
,314.2542251,1.9287109375
,314.2545246,1.9384765625
,314.271082,1.943359375
,314.2900376,1.9384765625
,314.3052585,1.9287109375
,314.338802,1.923828125
,314.3607844,1.9140625
,314.367452,1.904296875
,314.4054105,1.89453125
,314.4095871,1.8896484375
,314.443456,1.875
,314.464959,1.8603515625
,314.4719258,1.8505859375
,314.4908222,1.8408203125
,314.5108952,1.826171875
,314.527908,1.806640625
,314.5651708,1.796875
,314.5678446,1.7822265625
,314.6128429,1.7724609375
,314.6131329,1.7578125
,314.6326706,1.7431640625
,314.6518872,1.728515625
,314.686447,1.71875
,314.6871166,1.7041015625
,314.7078996,1.69921875
,314.7568266,1.6845703125
,314.7573318,1.6748046875
,314.7693583,1.669921875
,314.8060723,1.66015625
,314.8118312,1.650390625
,314.8482766,1.640625
,314.850196,1.630859375
,314.8670017,1.6259765625
,314.9100975,1.62109375
,314.9105045,1.6259765625
,314.9572438,1.6357421875
,314.9575403,1.6650390625
,314.9703709,1.7138671875
,315.006144,1.7626953125
,315.0117164,1.8115234375
,315.0470486,1.8603515625
,315.0473364,1.8896484375
,315.083566,1.923828125
,315.1133119,1.9287109375
,315.1138008,1.9482421875
,315.1316123,1.953125
,315.1659106,1.953125
,315.1719879,1.9482421875
,315.2200156,1.9384765625
,315.2203084,1.9287109375
,315.2317358,1.9189453125
,315.2485127,1.904296875
,315.2839075,1.8994140625
,315.3042689,1.8896484375
,315.3111042,1.8798828125
,315.3456805,1.865234375
,315.3511636,1.8505859375
,315.3724342,1.8408203125
,315.3930015,1.8212890625
,315.4391777,1.8017578125
,315.4398461,1.787109375
,315.4499059,1.7724609375
,315.5011743,1.7578125
,315.5017303,1.748046875
,315.5092852,1.7333984375
,315.5431218,1.7236328125
,315.5635337,1.708984375
,315.5729347,1.69921875
,315.588809,1.689453125
,315.6241573,1.6845703125
,315.6286542,1.669921875
,315.6649121,1.6650390625
,315.6845992,1.66015625
,315.6902524,1.650390625
,315.7316718,1.6357421875
,315.7321095,1.6259765625
,315.7534256,1.62109375
,315.7693462,1.62109375
,315.8052986,1.640625
,315.8105136,1.66015625
,315.8307313,1.708984375
,315.8677848,1.7578125
,315.8705932,1.8115234375
,315.9053548,1.8505859375
,315.9266987,1.884765625
,315.9336119,1.9091796875
,315.9684613,1.9287109375
,315.9687727,1.9384765625
,316.0041614,1.9482421875
,316.0113583,1.9482421875
,316.0484336,1.9384765625
,316.0493089,1.9287109375
,316.0864196,1.9189453125
,316.0909328,1.9091796875
,316.1319671,1.8994140625
,316.132302,1.8896484375
,316.1489869,1.8798828125
,316.1995279,1.8701171875
,316.1999599,1.85546875
,316.2116583,1.8408203125
,316.2473436,1.8212890625
,316.2526423,1.806640625
,316.2884057,1.787109375
,316.2924437,1.767578125
,316.3288308,1.748046875
,316.329256,1.7333984375
,316.3626931,1.71875
,316.3828584,1.708984375
,316.3920863,1.6943359375
,316.4125971,1.6796875
,316.4470365,1.6650390625
,316.4502239,1.6552734375
,316.4854205,1.6455078125
,316.5044036,1.640625
,316.5151773,1.62109375
,316.5312786,1.6015625
,316.5659118,1.6015625
,316.5709106,1.6015625
,316.6051418,1.6015625
,316.6256655,1.6015625
,316.6335531,1.6259765625
,316.6797856,1.66015625
,316.6800836,1.7041015625
,316.6943154,1.7578125
,316.7097106,1.8017578125
,316.7582095,1.8408203125
,316.7587814,1.875
,316.7729434,1.904296875
,316.7928768,1.9189453125
,316.8269241,1.923828125
,316.8472865,1.923828125
,316.8556477,1.923828125
,316.8722828,1.9091796875
,316.8907626,1.904296875
,316.9305705,1.89453125
,316.9311321,1.884765625
,316.9665416,1.8798828125
,316.9730783,1.8701171875
,316.9933577,1.8603515625
,317.0122092,1.845703125
,317.0532755,1.8359375
,317.0537287,1.826171875
,317.0829282,1.81640625
,317.0934048,1.8017578125
,317.1122008,1.787109375
,317.1472584,1.7724609375
,317.1673771,1.7578125
,317.1726121,1.7431640625
,317.2083562,1.728515625
,317.2129888,1.7138671875
,317.235155,1.6943359375
,317.2509441,1.6748046875
,317.2845129,1.6796875
,317.3062612,1.6796875
,317.3129896,1.669921875
,317.3480111,1.6650390625
,317.3543784,1.66015625
,317.3745871,1.6552734375
,317.4099561,1.66015625
,317.4154248,1.6845703125
,317.4320507,1.71875
,317.4522211,1.7724609375
,317.4887371,1.81640625
,317.4929331,1.8603515625
,317.5284858,1.8896484375
,317.548282,1.9189453125
,317.5563621,1.9384765625
,317.5745808,1.9482421875
,317.6113247,1.953125
,317.6117826,1.9482421875
,317.6571677,1.943359375
,317.6574539,1.93359375
,317.6730656,1.9287109375
,317.7217336,1.9140625
,317.7220928,1.904296875
,317.7511339,1.89453125
,317.7534326,1.8896484375
,317.7713626,1.8798828125
,317.8077802,1.8701171875
,317.8126401,1.85546875
,317.8477757,1.845703125
,317.8689021,1.8310546875
,317.8735475,1.81640625
,317.9100491,1.8017578125
,317.9126834,1.787109375
,317.9469369,1.7724609375
,317.9675603,1.7578125
,317.9748912,1.73828125
,317.9915671,1.7333984375
,318.0264348,1.728515625
,318.0481694,1.71875
,318.0552061,1.71875
,318.0744391,1.7138671875
,318.1106355,1.7041015625
,318.1159314,1.69921875
,318.1574137,1.71875
,318.1578563,1.7431640625
,318.1735544,1.7919921875
,318.218367,1.8310546875
,318.2188829,1.875
,318.233972,1.9091796875
,318.2817051,1.93359375
,318.2821397,1.953125
,318.2947535,1.962890625
,318.3308075,1.9677734375
,318.3334521,1.9677734375
,318.3683985,1.9677734375
,318.3897052,1.962890625
,318.394819,1.953125
,318.4297678,1.943359375
,318.4345541,1.93359375
,318.4710532,1.923828125
,318.4757449,1.9189453125
,318.4928197,1.904296875
,318.5137108,1.89453125
,318.5589873,1.884765625
,318.5594527,1.8798828125
,318.5745361,1.8603515625
,318.6096597,1.845703125
,318.6148645,1.826171875
,318.6498916,1.806640625
,318.6722079,1.796875
,318.6765804,1.7822265625
,318.7124961,1.767578125
,318.7128831,1.7578125
,318.7339632,1.748046875
,318.7704982,1.7431640625
,318.7751788,1.7333984375
,318.7960801,1.7236328125
,318.8308595,1.7138671875
,318.851342,1.708984375
,318.8587026,1.71875
,318.9055318,1.7431640625
,318.9061194,1.77734375
,318.9146412,1.8212890625
,318.9492268,1.865234375
,318.9576474,1.9091796875
,318.9754196,1.93359375
,319.0121506,1.9580078125
,319.0182765,1.97265625
,319.0370337,1.982421875
,319.0521359,1.982421875
,319.0889654,1.9873046875
,319.0962865,1.9775390625
,319.1149237,1.97265625
,319.1499877,1.962890625
,319.1723602,1.9580078125
,319.1786979,1.9482421875
,319.1963071,1.9384765625
,319.2341618,1.9287109375
,319.2350862,1.9140625
,319.2537162,1.9091796875
,319.295754,1.89453125
,319.2963176,1.8798828125
,319.3153511,1.8603515625
,319.3519739,1.845703125
,319.3570804,1.8310546875
,319.3941081,1.81640625
,319.3972873,1.8017578125
,319.4329494,1.7822265625
,319.4334599,1.767578125
,319.4535646,1.7626953125
,319.4996205,1.7529296875
,319.5004423,1.73828125
,319.5164207,1.7333984375
,319.5607129,1.7236328125
,319.5612809,1.71875
,319.5899269,1.7138671875
,319.5976837,1.728515625
,319.6149278,1.748046875
,319.6502089,1.7919921875
,319.6558404,1.8359375
,319.6915147,1.8798828125
,319.6977485,1.9140625
,319.7350287,1.943359375
,319.7356026,1.9677734375
,319.7738065,1.982421875
,319.7741129,1.9921875
,319.7949796,1.9921875
,319.841773,1.982421875
,319.84215,1.982421875
,319.8566411,1.97265625
,319.8927418,1.962890625
,319.8975978,1.9482421875
,319.9326018,1.9384765625
,319.9530433,1.9287109375
,319.953368,1.9140625
,319.9958409,1.904296875
,319.9961223,1.8896484375
,320.0149356,1.8798828125
,320.0595937,1.865234375
,320.060194,1.845703125
,320.0897598,1.8310546875
,320.0994363,1.8115234375
,320.1354537,1.796875
,320.1397089,1.7822265625
,320.1603011,1.767578125
,320.176395,1.7529296875
,320.1960326,1.7431640625
,320.2330568,1.7333984375
,320.2380715,1.7236328125
,320.2729427,1.7138671875
,320.277776,1.7041015625
,320.3000283,1.689453125
,320.3350899,1.689453125
,320.3353703,1.6943359375
,320.371184,1.728515625
,320.3763781,1.7626953125
,320.4183857,1.806640625
,320.4189519,1.845703125
,320.4475736,1.884765625
,320.4595217,1.9091796875
,320.4942722,1.9384765625
,320.4992479,1.9482421875
,320.5147462,1.9580078125
,320.5495202,1.962890625
,320.5699913,1.9580078125
,320.5783341,1.953125
,320.5974945,1.943359375
,320.6330576,1.9384765625
,320.6397744,1.93359375
,320.6584665,1.923828125
,320.6765802,1.9140625
,320.7107813,1.9091796875
,320.7150782,1.8994140625
,320.7533751,1.8896484375
,320.7578579,1.875
,320.793177,1.8603515625
,320.7982235,1.845703125
,320.8379467,1.826171875
,320.8382458,1.8115234375
,320.8756239,1.796875
,320.8800754,1.7822265625
,320.8985606,1.7626953125
,320.9188118,1.7578125
,320.9399805,1.7529296875
,320.9579202,1.7431640625
,320.9939525,1.7333984375
,320.9991473,1.7236328125
,321.0354768,1.7138671875
,321.039939,1.7138671875
,321.0555573,1.7236328125
,321.1029732,1.7529296875
,321.1035446,1.7919921875
,321.1173148,1.845703125
,321.1540353,1.89453125
,321.159428,1.93359375
,321.1940854,1.962890625
,321.1985799,1.9873046875
,321.2350528,2.001953125
,321.2356128,2.01171875
,321.2661712,2.0166015625
,321.2879185,2.01171875
,321.2997975,2.001953125
,321.318809,1.9921875
,321.3537241,1.982421875
,321.3582312,1.97265625
,321.394366,1.9677734375
,321.4282529,1.953125
,321.4285404,1.9482421875
,321.4380075,1.9384765625
,321.475788,1.923828125
,321.4766031,1.904296875
,321.5108777,1.884765625
,321.5308238,1.8701171875
,321.5410182,1.8505859375
,321.5748801,1.8359375
,321.5800345,1.81640625
,321.6324325,1.796875
,321.6327191,1.7822265625
,321.6391431,1.77734375
,321.6743459,1.767578125
,321.678736,1.7578125
,321.6995158,1.748046875
,321.7201402,1.73828125
,321.7565034,1.7236328125
,321.7605733,1.7236328125
,321.7968768,1.728515625
,321.7974346,1.748046875
,321.8198305,1.7919921875
,321.8386893,1.8310546875
,321.8733715,1.8798828125
,321.8783609,1.9189453125
,321.9121888,1.953125
,321.9326267,1.982421875
,321.9403133,2.001953125
,321.9587316,2.01171875
,321.9785873,2.021484375
,322.0165304,2.0166015625
,322.0171166,2.01171875
,322.0562751,2.001953125
,322.0613586,1.9921875
,322.082287,1.9873046875
,322.1166398,1.97265625
,322.121548,1.962890625
,322.1387803,1.9482421875
,322.1584032,1.943359375
,322.1795232,1.923828125
,322.2210201,1.9091796875
,322.2214528,1.89453125
,322.2416296,1.875
,322.2605576,1.8603515625
,322.2989749,1.8408203125
,322.3016647,1.8212890625
,322.345328,1.806640625
,322.3456187,1.7919921875
,322.3596103,1.77734375
,322.3794263,1.7626953125
,322.4258054,1.7529296875
,322.4268929,1.7431640625
,322.440378,1.7333984375
,322.4606943,1.7236328125
,322.4958063,1.7138671875
,322.5027052,1.69921875
,322.519876,1.689453125
,322.5551395,1.689453125
,322.5598751,1.7041015625
,322.5802485,1.7333984375
,322.6251693,1.767578125
,322.6255876,1.8212890625
,322.6411685,1.865234375
,322.6777139,1.9140625
,322.6781445,1.9482421875
,322.7124309,1.9775390625
,322.7349723,2.001953125
,322.7396815,2.01171875
,322.7594322,2.0166015625
,322.7815879,2.01171875
,322.826474,2.0068359375
,322.8268532,1.9970703125
,322.8422491,1.9873046875
,322.8588229,1.97265625
,322.8933344,1.962890625
,322.8983931,1.953125
,322.9328721,1.943359375
,322.953067,1.93359375
,322.9622958,1.9189453125
,322.9977387,1.8994140625
,323.0032798,1.8798828125
,323.0401378,1.8603515625
,323.0407978,1.845703125
,323.076728,1.826171875
,323.0967813,1.806640625
,323.0996356,1.7919921875
,323.1380408,1.77734375
,323.1383193,1.767578125
,323.1755569,1.7529296875
,323.1992718,1.73828125
,323.2037672,1.728515625
,323.2409385,1.71875
,323.2414985,1.708984375
,323.2610243,1.7041015625
,323.2960938,1.689453125
,323.3004864,1.6796875
,323.3341089,1.6650390625
,323.3563177,1.6552734375
,323.363481,1.640625
,323.3979481,1.6357421875
,323.4043008,1.6455078125
,323.420899,1.6748046875
,323.4554258,1.728515625
,323.4604732,1.7822265625
,323.4959181,1.8359375
,323.5020683,1.8798828125
,323.5408484,1.923828125
,323.5411805,1.953125
,323.5753987,1.97265625
,323.6039337,1.982421875
,323.6043584,1.9921875
,323.6229342,1.9921875
,323.6577696,1.982421875
,323.6584154,1.97265625
,323.6961549,1.962890625
,323.7176455,1.953125
,323.7223441,1.943359375
,323.7589954,1.9287109375
,323.7636702,1.9140625
,323.8045886,1.89453125
,323.8048831,1.8798828125
,323.8208572,1.8701171875
,323.8568764,1.8505859375
,323.8616811,1.8310546875
,323.8983637,1.8115234375
,323.9184497,1.7919921875
,323.9228658,1.7724609375
,323.9617156,1.7578125
,323.9621488,1.7431640625
,324.0070309,1.7236328125
,324.0073229,1.7138671875
,324.0213887,1.7041015625
,324.0691589,1.689453125
,324.0696729,1.6796875
,324.0844601,1.669921875
,324.132707,1.66015625
,324.133267,1.650390625
,324.1404503,1.6357421875
,324.1747862,1.6259765625
,324.1969629,1.6162109375
,324.2017921,1.630859375
,324.22392,1.66015625
,324.2601009,1.708984375
,324.2648429,1.7578125
,324.3000028,1.806640625
,324.3004316,1.8505859375
,324.3345365,1.89453125
,324.3547193,1.9140625
,324.3609708,1.923828125
,324.4115978,1.943359375
,324.411891,1.953125
,324.4223783,1.9580078125
,324.4576499,1.953125
,324.4779611,1.9482421875
,324.4854941,1.9384765625
,324.504613,1.9287109375
,324.520267,1.9189453125
,324.5567285,1.9140625
,324.5761933,1.904296875
,324.583314,1.89453125
,324.6180321,1.8798828125
,324.6384785,1.865234375
,324.6428701,1.8505859375
,324.6791378,1.8310546875
,324.6849345,1.8115234375
,324.7030008,1.796875
,324.7379755,1.787109375
,324.7408225,1.7724609375
,324.7788981,1.7578125
,324.7833764,1.73828125
,324.8201875,1.7333984375
,324.8253979,1.7236328125
,324.8599624,1.7138671875
,324.8603929,1.69921875
,324.8943543,1.689453125
,324.9154813,1.6796875
,324.9231035,1.6748046875
,324.9584309,1.6650390625
,324.9631927,1.669921875
,324.9837306,1.69921875
,325.0220093,1.73828125
,325.0249226,1.787109375
,325.0463831,1.8359375
,325.0668215,1.8701171875
,325.0838659,1.89453125
,325.1292864,1.9384765625
,325.1295705,1.962890625
,325.1451687,1.9775390625
,325.1911396,1.982421875
,325.1914564,1.9775390625
,325.2052159,1.97265625
,325.2542203,1.9677734375
,325.2545585,1.9580078125
,325.2738881,1.9482421875
,325.2827284,1.943359375
,325.3310134,1.93359375
,325.3312986,1.923828125
,325.3448121,1.9091796875
,325.38111,1.89453125
,325.3853367,1.875
,325.4208961,1.8603515625
,325.4214726,1.8408203125
,325.4591819,1.826171875
,325.4637049,1.806640625
,325.5165334,1.7919921875
,325.5169782,1.77734375
,325.5229271,1.767578125
,325.5583506,1.748046875
,325.5801918,1.7333984375
,325.5810348,1.71875
,325.6167359,1.71875
,325.6392237,1.708984375
,325.6447579,1.69921875
,325.6795333,1.6845703125
,325.685046,1.6748046875
,325.7344048,1.669921875
,325.7349442,1.6748046875
,325.7442209,1.7041015625
,325.7677001,1.7431640625
,325.7874454,1.7822265625
,325.8017202,1.826171875
,325.8359651,1.8798828125
,325.8561472,1.923828125
,325.8648954,1.953125
,325.8843735,1.97265625
,325.9192294,1.9873046875
,325.9393388,1.9970703125
,325.9463795,1.9921875
,325.9819994,1.982421875
,326.0140516,1.97265625
,326.0143381,1.9677734375
,326.0242147,1.9580078125
,326.0618407,1.9482421875
,326.0673212,1.93359375
,326.0859373,1.923828125
,326.125066,1.9091796875
,326.125617,1.8994140625
,326.1443597,1.8798828125
,326.1860674,1.865234375
,326.1863568,1.8505859375
,326.2057304,1.8359375
,326.2261563,1.81640625
,326.2617717,1.8017578125
,326.2663119,1.7822265625
,326.2865529,1.7626953125
,326.3204722,1.748046875
,326.3419333,1.7333984375
,326.342226,1.7236328125
,326.3776646,1.7138671875
,326.3981107,1.7041015625
,326.4056189,1.6943359375
,326.4399929,1.6845703125
,326.4671369,1.669921875
,326.4674267,1.66015625
,326.4876093,1.6650390625
,326.5086773,1.689453125
,326.5242226,1.728515625
,326.5580688,1.787109375
,326.5779414,1.845703125
,326.5860085,1.89453125
,326.6227888,1.9384765625
,326.6254415,1.9677734375
,326.6672995,1.9873046875
,326.6675852,1.9970703125
,326.6877419,1.9970703125
,326.7058423,1.9921875
,326.7437372,1.9873046875
,326.7440331,1.9775390625
,326.7919593,1.9677734375
,326.7922415,1.9580078125
,326.8123704,1.953125
,326.8270907,1.943359375
,326.8624602,1.9287109375
,326.862744,1.9091796875
,326.8989952,1.8994140625
,326.9036865,1.884765625
,326.9396943,1.865234375
,326.9615339,1.845703125
,326.9660128,1.826171875
,327.0049409,1.806640625
,327.0056471,1.7822265625
,327.042728,1.767578125
,327.0744135,1.748046875
,327.074928,1.73828125
,327.0857179,1.728515625
,327.1205566,1.7138671875
,327.1518455,1.7041015625
,327.1521655,1.6943359375
,327.167344,1.6796875
,327.2015191,1.669921875
,327.2079767,1.66015625
,327.2434562,1.650390625
,327.2475318,1.6552734375
,327.2659332,1.6796875
,327.3086047,1.7333984375
,327.309171,1.787109375
,327.3379354,1.8408203125
,327.3471391,1.884765625
,327.3815087,1.923828125
,327.4016926,1.9482421875
,327.4077067,1.9677734375
,327.4265015,1.9775390625
,327.4612737,1.9775390625
,327.4642444,1.97265625
,327.4998196,1.962890625
,327.5208691,1.9482421875
,327.5280506,1.9384765625
,327.5637439,1.923828125
,327.5687816,1.9140625
,327.5895547,1.904296875
,327.6071038,1.8896484375
,327.6414934,1.8798828125
,327.6467628,1.865234375
,327.6665037,1.8505859375
,327.688091,1.8359375
,327.7093365,1.81640625
,327.729346,1.796875
,327.7642579,1.77734375
,327.7645407,1.7578125
,327.8018541,1.748046875
,327.80648,1.7333984375
,327.8516812,1.7236328125
,327.8519754,1.708984375
,327.8681968,1.69921875
,327.9027639,1.689453125
,327.9086476,1.6796875
,327.9449285,1.669921875
,327.9490948,1.6552734375
,327.984452,1.650390625
,327.9847897,1.6552734375
,328.021795,1.689453125
,328.0535162,1.728515625
,328.0538783,1.787109375
,328.0673953,1.8359375
,328.0897241,1.884765625
,328.131708,1.9189453125
,328.1320502,1.9482421875
,328.145291,1.962890625
,328.1817562,1.97265625
,328.1863545,1.982421875
,328.2217587,1.97265625
,328.2278739,1.962890625
,328.2632164,1.9482421875
,328.2682162,1.93359375
,328.3022024,1.923828125
,328.3221174,1.9189453125
,328.3262506,1.9091796875
,328.363015,1.8994140625
,328.3656723,1.884765625
,328.403822,1.875
,328.408212,1.8603515625
,328.442711,1.8408203125
,328.4481445,1.8212890625
,328.4843529,1.8017578125
,328.5048261,1.787109375
,328.5051181,1.767578125
,328.542705,1.7529296875
,328.5475767,1.73828125
,328.5851626,1.728515625
,328.5898865,1.71875
,328.6099235,1.708984375
,328.6460522,1.6943359375
,328.6487162,1.6845703125
,328.6846863,1.669921875
,328.6898776,1.6650390625
,328.7072915,1.66015625
,328.7533828,1.6748046875
,328.7536672,1.7041015625
,328.774316,1.7529296875
,328.7890088,1.8017578125
,328.8255582,1.85546875
,328.8285761,1.904296875
,328.8628246,1.93359375
,328.8842432,1.9580078125
,328.8873027,1.97265625
,328.9226252,1.982421875
,328.9267023,1.982421875
,328.9620914,1.97265625
,328.9820437,1.962890625
,328.989053,1.953125
,329.0242444,1.9384765625
,329.0299004,1.9287109375
,329.0473607,1.9140625
,329.0846995,1.9091796875
,329.0893781,1.8994140625
,329.1302847,1.884765625
,329.1305755,1.8701171875
,329.1659587,1.85546875
,329.1703482,1.8359375
,329.2095058,1.81640625
,329.2099821,1.796875
,329.2258833,1.77734375
,329.2490341,1.7578125
,329.2845495,1.7431640625
,329.2887229,1.7333984375
,329.3218544,1.71875
,329.3438438,1.7138671875
,329.3513882,1.69921875
,329.3883519,1.689453125
,329.3927644,1.6796875
,329.4435987,1.669921875
,329.4438925,1.6552734375
,329.4478196,1.6552734375
,329.4852594,1.6748046875
,329.4902674,1.708984375
,329.5271487,1.7578125
,329.5280229,1.8017578125
,329.5632957,1.85546875
,329.5853403,1.89453125
,329.5921106,1.93359375
,329.6080712,1.9580078125
,329.6463714,1.97265625
,329.6468677,1.9775390625
,329.6855097,1.9775390625
,329.6903026,1.9677734375
,329.7114938,1.9580078125
,329.7577508,1.943359375
,329.7580348,1.923828125
,329.7713192,1.9140625
,329.7888904,1.8994140625
,329.8229062,1.89453125
,329.827921,1.8798828125
,329.862062,1.865234375
,329.8846679,1.8505859375
,329.8916022,1.8359375
,329.9291607,1.81640625
,329.9296976,1.796875
,329.9478369,1.77734375
,329.9829121,1.7626953125
,329.988056,1.7431640625
,330.0379161,1.728515625
,330.0384775,1.7138671875
,330.0672634,1.69921875
,330.0699356,1.6845703125
,330.1067879,1.6748046875
,330.1109324,1.6650390625
,330.1589339,1.650390625
,330.1592221,1.6357421875
,330.1693678,1.630859375
,330.2070481,1.6455078125
,330.2124984,1.6748046875
,330.2315059,1.7236328125
,330.2679577,1.7724609375
,330.2710622,1.826171875
,330.2923422,1.8701171875
,330.3274944,1.8994140625
,330.328064,1.9189453125
,330.3477373,1.943359375
,330.3835551,1.9482421875
,330.4078709,1.9482421875
,330.4124797,1.943359375
,330.4313089,1.923828125
,330.4520396,1.9091796875
,330.4868147,1.89453125
,330.5069833,1.884765625
,330.5088747,1.875
,330.5428304,1.8603515625
,330.5646125,1.8505859375
,330.5713655,1.8359375
,330.592141,1.81640625
,330.6409273,1.8017578125
,330.6415198,1.7822265625
,330.6518991,1.7626953125
,330.6697862,1.73828125
,330.705975,1.7236328125
,330.7087048,1.7041015625
,330.742453,1.6845703125
,330.7644037,1.669921875
,330.7713147,1.66015625
,330.8075551,1.6455078125
,330.8118356,1.6357421875
,330.8566967,1.6162109375
,330.8572679,1.6064453125
,330.8750615,1.6015625
,330.8890184,1.6015625
,330.9251582,1.62109375
,330.9471965,1.6552734375
,330.9516501,1.708984375
,330.9941474,1.7626953125
,330.9944406,1.81640625
,331.0133852,1.8603515625
,331.0466666,1.8896484375
,331.0670773,1.9189453125
,331.0705561,1.9287109375
,331.1182309,1.9384765625
,331.1185193,1.9384765625
,331.1322682,1.93359375
,331.1670901,1.9189453125
,331.1723023,1.9140625
,331.2097885,1.8994140625
,331.2139965,1.89453125
,331.2302355,1.8798828125
,331.2775559,1.875
,331.2779955,1.865234375
,331.2933464,1.85546875
,331.3410672,1.8359375
,331.3415006,1.8212890625
,331.3529373,1.8017578125
,331.3741111,1.787109375
,331.3946851,1.7724609375
,331.4113118,1.7529296875
,331.4502721,1.7333984375
,331.4505645,1.7236328125
,331.4862768,1.708984375
,331.492814,1.69921875
,331.5282087,1.689453125
,331.5327338,1.6748046875
,331.5682585,1.66015625
,331.5884555,1.650390625
,331.5935561,1.640625
,331.6110655,1.640625
,331.6476593,1.66015625
,331.6528253,1.69921875
,331.6731793,1.7529296875
,331.7077283,1.806640625
,331.7130554,1.845703125
,331.7501202,1.884765625
,331.7545118,1.9091796875
,331.7894958,1.9287109375
,331.7898985,1.9384765625
,331.8279946,1.943359375
,331.84779,1.93359375
,331.8530535,1.9287109375
,331.892288,1.9140625
,331.8928652,1.904296875
,331.9300314,1.8896484375
,331.9346862,1.8798828125
,331.9506117,1.865234375
,331.9853202,1.8603515625
,332.0049761,1.845703125
,332.0115975,1.8310546875
,332.0457481,1.81640625
,332.0659078,1.796875
,332.0738726,1.7822265625
,332.1233174,1.7626953125
,332.1236184,1.73828125
,332.1318562,1.71875
,332.170255,1.708984375
,332.1705428,1.6943359375
,332.190453,1.6845703125
,332.2279559,1.669921875
,332.2347545,1.6552734375
,332.2560022,1.640625
,332.2743548,1.630859375
,332.3099525,1.62109375
,332.3149967,1.62109375
,332.3355889,1.640625
,332.351136,1.669921875
,332.3858102,1.7236328125
,332.4079621,1.77734375
,332.4151158,1.8310546875
,332.4504539,1.8701171875
,332.454794,1.904296875
,332.489853,1.923828125
,332.49436,1.9384765625
,332.5304527,1.9384765625
,332.5330916,1.9384765625
,332.5787538,1.9287109375
,332.5793225,1.923828125
,332.5936183,1.9091796875
,332.6312894,1.89453125
,332.6343858,1.8798828125
,332.6717743,1.8701171875
,332.6923063,1.8603515625
,332.6927403,1.845703125
,332.7320565,1.8359375
,332.73235,1.8212890625
,332.7711291,1.806640625
,332.7757179,1.787109375
,332.81232,1.767578125
,332.8128842,1.748046875
,332.850598,1.728515625
,332.8736788,1.708984375
,332.8740497,1.69921875
,332.9091172,1.6748046875
,332.9121135,1.6650390625
,332.9490351,1.650390625
,332.9812359,1.6455078125
,332.9815267,1.6357421875
,332.9954607,1.6357421875
,333.0318427,1.6455078125
,333.0383916,1.6748046875
,333.0574318,1.7236328125
,333.0748265,1.7724609375
,333.1101567,1.8212890625
,333.114085,1.8603515625
,333.1492642,1.8896484375
,333.1707892,1.9140625
,333.1750815,1.923828125
,333.2122466,1.9287109375
,333.2170555,1.923828125
,333.2339588,1.9140625
,333.2683928,1.904296875
,333.2736798,1.8896484375
,333.3253158,1.8798828125
,333.3258357,1.865234375
,333.3354826,1.8505859375
,333.3704103,1.8408203125
,333.3761231,1.826171875
,333.4105653,1.8115234375
,333.4309935,1.796875
,333.4351978,1.787109375
,333.4803528,1.7724609375
,333.4809287,1.7578125
,333.4950694,1.7431640625
,333.5139801,1.7236328125
,333.5571513,1.7041015625
,333.5574321,1.689453125
,333.5766897,1.6748046875
,333.5975178,1.6650390625
,333.6186352,1.6357421875
,333.6347054,1.6162109375
,333.6838537,1.6162109375
,333.68445,1.6259765625
,333.696539,1.650390625
,333.7316914,1.689453125
,333.7365411,1.73828125
,333.7718052,1.787109375
,333.7784944,1.8359375
,333.7935696,1.8701171875
,333.8281971,1.89453125
,333.8481303,1.9140625
,333.8557569,1.923828125
,333.8908028,1.923828125
,333.8950753,1.9189453125
,333.9303386,1.904296875
,333.9516598,1.89453125
,333.9580464,1.8896484375
,333.9739539,1.875
,334.02732,1.8701171875
