fs,t,y
50.50200541974655,0.9050669999999998,1.4453125
,0.9109083,1.5087890625
,0.9640441000000002,1.630859375
,0.9644799000000002,1.8017578125
,0.9743509000000001,1.9580078125
,0.9943046999999998,2.1240234375
,1.0112766999999998,2.2607421875
,1.0587619,2.40234375
,1.0593871,2.5244140625
,1.0708247000000002,2.6171875
,1.1192210999999999,2.6953125
,1.1195458,2.744140625
,1.1406256,2.7685546875
,1.1537278999999998,2.7587890625
,1.1916069999999999,2.7294921875
,1.1966795000000001,2.6904296875
,1.2152545,2.65625
,1.2301460999999998,2.6220703125
,1.2668108999999999,2.5927734375
,1.2872605,2.55859375
,1.2925616,2.529296875
,1.3366204000000002,2.48046875
,1.337018,2.4267578125
,1.3560491,2.3681640625
,1.374294,2.3095703125
,1.4124134000000002,2.24609375
,1.4131993999999999,2.1875
,1.4303933,2.1435546875
,1.4699563000000002,2.099609375
,1.4727063999999999,2.05078125
,1.5063987,2.0068359375
,1.5268129,1.9580078125
,1.5344856999999998,1.9140625
,1.5715156000000001,1.875
,1.5721289,1.8359375
,1.6169813999999998,1.8017578125
,1.6174233999999998,1.7578125
,1.6323226000000002,1.71875
,1.6682432,1.6796875
,1.6728850999999998,1.650390625
,1.7094992000000002,1.6162109375
,1.7299848999999998,1.572265625
,1.7347598999999998,1.5380859375
,1.7515701,1.4990234375
,1.7722261000000001,1.4697265625
,1.7915301000000001,1.4453125
,1.8124071000000002,1.416015625
,1.8476979,1.3818359375
,1.8692707,1.357421875
,1.8745811,1.328125
,1.8946483,1.298828125
,1.9313364000000002,1.2744140625
,1.9373537,1.26953125
,1.9521405,1.2939453125
,1.9726341,1.4013671875
,2.0084285,1.5673828125
,2.0274979,1.7529296875
,2.0366036999999997,1.943359375
,2.0552545,2.1044921875
,2.0754425000000003,2.255859375
,2.1153519999999997,2.3681640625
,2.1157493,2.4755859375
,2.1370201,2.5537109375
,2.1531453000000003,2.63671875
,2.1895982,2.6806640625
,2.1922613,2.7001953125
,2.2287850000000002,2.6904296875
,2.2499276000000004,2.666015625
,2.255648,2.63671875
,2.2919532,2.607421875
,2.2923492999999997,2.578125
,2.3290521999999996,2.5634765625
,2.3318341,2.529296875
,2.3701581999999997,2.490234375
,2.3746777999999997,2.451171875
,2.3948783999999996,2.40234375
,2.4424108999999996,2.34375
,2.4428036000000004,2.2900390625
,2.4564502,2.2265625
,2.473453,2.1630859375
,2.5218669,2.119140625
,2.5222778999999997,2.0751953125
,2.5320163000000004,2.0263671875
,2.5700256,1.982421875
,2.5901359,1.9482421875
,2.5947611000000004,1.9091796875
,2.6290875,1.8701171875
,2.6502154000000004,1.8408203125
,2.6578253,1.796875
,2.6782747000000002,1.7626953125
,2.6945115,1.7236328125
,2.7314149,1.69921875
,2.7344961000000003,1.66015625
,2.7870980999999997,1.6259765625
,2.7877196,1.5869140625
,2.7960613,1.552734375
,2.8156492,1.5185546875
,2.8546601999999996,1.494140625
,2.8551713000000003,1.4697265625
,2.8744577,1.4404296875
,2.8948023999999997,1.4111328125
,2.9438828,1.38671875
,2.9445096,1.357421875
,2.9558279,1.3427734375
,2.9903842999999997,1.3330078125
,2.9952870999999996,1.3671875
,3.0306286,1.484375
,3.0535679,1.6455078125
,3.0540355999999997,1.8408203125
,3.0916495,2.0166015625
,3.0946286,2.177734375
,3.1308453,2.3095703125
,3.1361701999999996,2.4169921875
,3.1730995,2.5
,3.1759538999999997,2.5830078125
,3.1928617,2.63671875
,3.2293132,2.6806640625
,3.2352492,2.65625
,3.2729850000000003,2.646484375
,3.273461,2.626953125
,3.3135686,2.5927734375
,3.3141913,2.5634765625
,3.3502082,2.5341796875
,3.3711057999999996,2.5
,3.3779586999999998,2.4658203125
,3.3981475999999997,2.412109375
,3.4148413,2.36328125
,3.4341916,2.314453125
,3.4709006000000002,2.2607421875
,3.4759355999999997,2.2119140625
,3.4960464,2.1630859375
,3.5175226000000004,2.1142578125
,3.5368557999999997,2.0654296875
,3.5745872,2.021484375
,3.5752084999999996,1.9677734375
,3.5942476,1.9384765625
,3.6299886,1.8994140625
,3.6348235000000004,1.8603515625
,3.6743261,1.81640625
,3.6747213,1.767578125
,3.7121319,1.728515625
,3.7168245000000004,1.6845703125
,3.7518646999999996,1.6455078125
,3.7723601,1.6064453125
,3.7754193000000003,1.572265625
,3.7965387,1.533203125
,3.830916,1.4990234375
,3.8356125,1.46484375
,3.8733240999999996,1.435546875
,3.8762952000000004,1.4111328125
,3.8964290000000004,1.3818359375
,3.9480725999999997,1.357421875
,3.9486274000000003,1.3330078125
,3.9785731,1.2841796875
,3.9789706000000002,1.240234375
,3.9977603000000004,1.2353515625
,4.0168644,1.220703125
,4.0571917,1.2109375
,4.058342,1.2353515625
,4.0788442,1.3330078125
,4.1144884,1.484375
,4.1176154,1.6943359375
,4.1362467,1.875
,4.1719813,2.05078125
,4.175053,2.1826171875
,4.224839,2.2998046875
,4.2253279,2.3876953125
,4.2356135,2.470703125
,4.2726746,2.5244140625
,4.2930858,2.5634765625
,4.2979861,2.5732421875
,4.316279,2.5537109375
,4.3521432,2.529296875
,4.3547765,2.5
,4.3952808,2.48046875
,4.4158715,2.4560546875
,4.4182115,2.431640625
,4.4546514,2.3974609375
,4.4568003,2.36328125
,4.4742923,2.32421875
,4.4953169,2.2802734375
,4.5316631,2.2265625
,4.5516942,2.1728515625
,4.5584583,2.12890625
,4.5784051,2.080078125
,4.6131727,2.0361328125
,4.6181585,1.982421875
,4.6556243,1.943359375
,4.6585164,1.8994140625
,4.7064749,1.8408203125
,4.7070493,1.806640625
,4.7180602,1.7822265625
,4.738135,1.7529296875
,4.784084,1.7236328125
,4.7847013,1.689453125
,4.7988981,1.6552734375
,4.8439492,1.6162109375
,4.8442935,1.58203125
,4.8547014,1.552734375
,4.8935877,1.5478515625
,4.8975817,1.5283203125
,4.9191193,1.50390625
,4.9380342,1.4794921875
,4.9857792,1.4501953125
,4.9861974,1.4208984375
,4.9994685,1.3916015625
,5.0203075,1.357421875
,5.0358139,1.3330078125
,5.0766474,1.328125
,5.0786382,1.3623046875
,5.098742,1.46484375
,5.118236,1.6064453125
,5.152797,1.77734375
,5.1726463,1.9287109375
,5.1788396,2.0703125
,5.2143169,2.1875
,5.2344982,2.275390625
,5.2361444,2.353515625
,5.2577851,2.4072265625
,5.2921137,2.4365234375
,5.3124684,2.44140625
,5.3184809,2.4267578125
,5.3572803,2.40234375
,5.3576941,2.3779296875
,5.3797158,2.353515625
,5.4174359,2.333984375
,5.417824,2.3193359375
,5.4510787,2.3095703125
,5.4723632,2.2900390625
,5.4794231,2.2607421875
,5.4994011,2.216796875
,5.5204092,2.177734375
,5.5425701,2.1240234375
,5.5608616,2.0751953125
,5.5963402,2.021484375
,5.5967955,1.9775390625
,5.6368217,1.93359375
,5.657279,1.8896484375
,5.6598387,1.85546875
,5.6980907,1.826171875
,5.7010664,1.7919921875
,5.7191116,1.7578125
,5.7568732,1.71875
,5.7575546,1.689453125
,5.7777784,1.6650390625
,5.8159361,1.6357421875
,5.8163683,1.6064453125
,5.8543579,1.572265625
,5.875027,1.5380859375
,5.8799025,1.50390625
,5.9014434,1.474609375
,5.9212818,1.4453125
,5.9380902,1.4111328125
,5.9586042,1.3916015625
,5.9785934,1.3671875
,6.027046199999999,1.34765625
,6.0277248,1.328125
,6.0392498,1.3134765625
,6.076039400000001,1.298828125
,6.0804654,1.3037109375
,6.101254600000001,1.328125
,6.1213566,1.4208984375
,6.139139699999999,1.5673828125
,6.159954900000001,1.7724609375
,6.1796302999999995,1.9580078125
,6.2165698,2.109375
,6.221795200000001,2.2509765625
,6.2416538,2.373046875
,6.261758199999999,2.48046875
,6.2971132999999995,2.5732421875
,6.3017877,2.6513671875
,6.3183343999999995,2.705078125
,6.3523952999999995,2.7392578125
,6.373151699999999,2.7294921875
,6.3814969999999995,2.7099609375
,6.4326612999999995,2.6806640625
,6.433184499999999,2.646484375
,6.440730500000001,2.607421875
,6.4782829,2.5732421875
,6.4811966000000005,2.5390625
,6.498040400000001,2.4951171875
,6.5345786,2.4560546875
,6.538931699999999,2.4072265625
,6.5855038,2.353515625
,6.586059199999999,2.2900390625
,6.6002107,2.2265625
,6.6363749,2.16796875
,6.6417301,2.1142578125
,6.658235100000001,2.0703125
,6.694461799999999,2.0361328125
,6.6999130000000005,1.9970703125
,6.7188713,1.9580078125
,6.7407845,1.9091796875
,6.7609821,1.865234375
,6.781445700000001,1.8212890625
,6.8015136,1.787109375
,6.8227432,1.7529296875
,6.8426195,1.708984375
,6.8831381,1.6748046875
,6.883653600000001,1.6357421875
,6.9006893,1.611328125
,6.9199175,1.572265625
,6.940293499999999,1.5380859375
,6.976582799999999,1.4990234375
,7.0055952,1.46484375
,7.00624,1.435546875
,7.0239952,1.4013671875
,7.039764099999999,1.3720703125
,7.059206100000001,1.3525390625
,7.0957559,1.328125
,7.115701400000001,1.3037109375
,7.1211918999999995,1.2744140625
,7.1418718000000005,1.25
,7.177848300000001,1.25
,7.1818887,1.3134765625
,7.2173453,1.4599609375
,7.238327099999999,1.630859375
,7.2386529,1.8408203125
,7.285990999999999,2.0166015625
,7.2863291,2.1826171875
,7.301940500000001,2.314453125
,7.3236203,2.44140625
,7.3422961,2.5341796875
,7.363794499999999,2.6220703125
,7.3781444,2.6904296875
,7.4241355,2.7392578125
,7.424504799999999,2.7392578125
,7.444415899999999,2.724609375
,7.4614177999999995,2.6806640625
,7.501683,2.63671875
,7.502263900000001,2.5927734375
,7.5219193,2.548828125
,7.558008900000001,2.51953125
,7.5631234,2.4853515625
,7.6101189,2.451171875
,7.610638700000001,2.40234375
,7.6303392,2.3486328125
,7.639390000000001,2.2900390625
,7.6750594,2.2265625
,7.6950620999999995,2.1630859375
,7.7026252,2.1142578125
,7.7383845,2.0556640625
,7.7445281999999995,2.01171875
,7.779973099999999,1.9677734375
,7.7804746,1.923828125
,7.8289253,1.8896484375
,7.8294288000000005,1.845703125
,7.8493549,1.806640625
,7.8618352,1.7626953125
,7.9056976,1.7236328125
,7.9062427,1.6796875
,7.926233399999999,1.6455078125
,7.9393815,1.6064453125
,7.984461,1.572265625
,7.985127,1.533203125
,8.003122,1.4990234375
,8.0219787,1.46484375
,8.0599164,1.4208984375
,8.0641871,1.3818359375
,8.1082918,1.3623046875
,8.1090944,1.3427734375
,8.1186706,1.318359375
,8.1551909,1.2939453125
,8.1882155,1.2646484375
,8.1888344,1.2353515625
,8.2033797,1.220703125
,8.2228024,1.220703125
,8.265313,1.25
,8.2659364,1.3525390625
,8.2849359,1.50390625
,8.3205351,1.69921875
,8.3210543,1.8798828125
,8.3583167,2.0556640625
,8.3884174,2.1923828125
,8.3888398,2.3193359375
,8.4014053,2.421875
,8.4377566,2.5
,8.457814,2.5732421875
,8.4651439,2.6171875
,8.4844526,2.626953125
,8.502612,2.6025390625
,8.5386009,2.5830078125
,8.5404973,2.5390625
,8.577644,2.509765625
,8.582755,2.4755859375
,8.6170739,2.4462890625
,8.6385734,2.40234375
,8.6458762,2.3681640625
,8.6603215,2.3193359375
,8.700089,2.275390625
,8.7007731,2.2216796875
,8.7216544,2.1728515625
,8.7562762,2.1240234375
,8.7785427,2.0703125
,8.7835656,2.0068359375
,8.8205134,1.962890625
,8.8250002,1.923828125
,8.8426695,1.89453125
,8.8619022,1.85546875
,8.8838757,1.81640625
,8.9040437,1.7822265625
,8.9229382,1.748046875
,8.959667,1.71875
,8.9637359,1.6845703125
,8.9967646,1.650390625
,9.0180534,1.611328125
,9.0265157,1.5771484375
,9.0455645,1.5380859375
,9.0646467,1.4990234375
,9.083724,1.4697265625
,9.104234,1.4453125
,9.1248119,1.4208984375
,9.14255,1.4501953125
,9.1780603,1.4892578125
,9.1986725,1.4599609375
,9.2055542,1.4404296875
,9.2218902,1.396484375
,9.2730758,1.3818359375
,9.2739289,1.337890625
,9.2831933,1.337890625
,9.3183597,1.4013671875
,9.3487545,1.513671875
,9.3494804,1.6796875
,9.3657365,1.8701171875
,9.3864648,2.0361328125
,9.4018476,2.16796875
,9.4421651,2.2900390625
,9.4427885,2.3828125
,9.4768692,2.4560546875
,9.4980195,2.509765625
,9.504837,2.548828125
,9.525112,2.5537109375
,9.5619267,2.529296875
,9.5625256,2.5
,9.6126327,2.48046875
,9.6132946,2.4462890625
,9.6235219,2.4462890625
,9.6613557,2.431640625
,9.666765,2.421875
,9.7050929,2.40234375
,9.7059196,2.3779296875
,9.7273899,2.34375
,9.7479466,2.294921875
,9.7843857,2.2509765625
,9.7851892,2.1533203125
,9.8035249,2.0947265625
,9.8492312,2.041015625
,9.850098,2.0068359375
,9.8701305,1.9140625
,9.8845216,1.8505859375
,9.9264934,1.8115234375
,9.9270687,1.7919921875
,9.942922,1.7333984375
,9.9793443,1.6650390625
,9.9833893,1.640625
,10.0184006,1.5966796875
,10.0406998,1.5673828125
,10.0455298,1.5087890625
,10.0958272,1.484375
,10.0963894,1.4404296875
,10.1061845,1.42578125
,10.1233326,1.3916015625
,10.1602097,1.3720703125
,10.1702172,1.337890625
,10.1860823,1.3232421875
,10.2196448,1.2890625
,10.2237275,1.240234375
,10.2574875,1.2255859375
,10.2777116,1.2353515625
,10.2866666,1.259765625
,10.3072872,1.3671875
,10.3273398,1.5234375
,10.3439334,1.7236328125
,10.364342,1.953125
,10.3985401,2.1337890625
,10.4191569,2.3046875
,10.4253994,2.4267578125
,10.460909,2.5439453125
,10.4807388,2.6416015625
,10.4885686,2.7294921875
,10.5053751,2.7783203125
,10.523833,2.8076171875
,10.561903,2.7880859375
,10.5673144,2.75390625
,10.5866392,2.705078125
,10.6080145,2.666015625
,10.6265024,2.626953125
,10.6472542,2.59765625
,10.6894157,2.55859375
,10.6900193,2.509765625
,10.7202157,2.4658203125
,10.7266836,2.4169921875
,10.7647283,2.36328125
,10.7652664,2.3095703125
,10.7858075,2.255859375
,10.8211465,2.12890625
,10.8426319,2.03125
,10.8433439,1.97265625
,10.8637154,1.9384765625
,10.8990761,1.845703125
,10.9185793,1.7724609375
,10.9246715,1.7333984375
,10.9668018,1.7236328125
,10.9671774,1.6845703125
,10.9891757,1.630859375
,11.0082357,1.6162109375
,11.0287145,1.572265625
,11.065623,1.513671875
,11.0659894,1.50390625
,11.0864431,1.4599609375
,11.1235916,1.416015625
,11.1278288,1.38671875
,11.1710917,1.3720703125
,11.1720875,1.3427734375
,11.1881341,1.3037109375
,11.2104731,1.2890625
,11.2258219,1.259765625
,11.2636219,1.259765625
,11.2642129,1.23046875
,11.3015078,1.259765625
,11.3213237,1.3330078125
,11.3285733,1.484375
,11.3478087,1.708984375
,11.3830017,1.9140625
,11.4130247,2.099609375
,11.4135247,2.2705078125
,11.4255238,2.4267578125
,11.4621104,2.5634765625
,11.4650186,2.7001953125
,11.5003348,2.8076171875
,11.5219825,2.8955078125
,11.5275849,2.94921875
,11.5487901,2.96875
,11.5642374,2.9443359375
,11.5858012,2.91015625
,11.6056917,2.8662109375
,11.6257461,2.8271484375
,11.6640508,2.79296875
,11.6671795,2.7587890625
,11.7058604,2.71484375
,11.7064918,2.666015625
,11.7463643,2.6171875
,11.7471382,2.55859375
,11.7845891,2.431640625
,11.7851744,2.353515625
,11.8059216,2.3193359375
,11.8453031,2.236328125
,11.8460325,2.158203125
,11.8849177,2.0947265625
,11.8899141,2.0166015625
,11.9100065,1.9580078125
,11.9526948,1.8994140625
,11.9533584,1.85546875
,11.9645866,1.8017578125
,12.0006534,1.7333984375
,12.0215709,1.6748046875
,12.0285939,1.6162109375
,12.0652772,1.5625
,12.0679906,1.513671875
,12.1038977,1.4794921875
,12.1268452,1.4404296875
,12.1272679,1.4111328125
,12.1472928,1.38671875
,12.1679563,1.357421875
,12.1887325,1.3330078125
,12.2079799,1.3037109375
,12.228973,1.2744140625
,12.2503289,1.2353515625
,12.2699417,1.2109375
,12.2910628,1.1865234375
,12.3072231,1.1865234375
,12.3270657,1.25
,12.3480321,1.3671875
,12.3676762,1.5673828125
,12.4055304,1.767578125
,12.4104125,1.9873046875
,12.4505,2.1728515625
,12.4510142,2.34375
,12.470176,2.48046875
,12.4911878,2.626953125
,12.5074208,2.744140625
,12.5286721,2.8564453125
,12.5662924,2.9248046875
,12.5668791,2.958984375
,12.6055353,2.94921875
,12.6108404,2.9248046875
,12.6532646,2.890625
,12.6539021,2.8515625
,12.6729726,2.8173828125
,12.6892177,2.7783203125
,12.7090588,2.7099609375
,12.7293521,2.6513671875
,12.776523,2.568359375
,12.7771407,2.48046875
,12.7892633,2.40234375
,12.8262348,2.3095703125
,12.8292041,2.2412109375
,12.8747153,2.1533203125
,12.8754958,2.0947265625
,12.8871364,2.0361328125
,12.9369107,1.9873046875
,12.9374655,1.93359375
,12.9671639,1.8798828125
,12.9675413,1.81640625
,13.0087773,1.7529296875
,13.0092353,1.6943359375
,13.0268254,1.630859375
,13.0617806,1.5771484375
,13.0841704,1.5283203125
,13.0894628,1.474609375
,13.109909,1.4306640625
,13.1319805,1.38671875
,13.1498212,1.3427734375
,13.1871806,1.3037109375
,13.1912795,1.2744140625
,13.2107379,1.25
,13.2587041,1.2109375
,13.2590784,1.1669921875
,13.2689347,1.1474609375
,13.3074222,1.123046875
,13.3078428,1.0986328125
,13.3542082,1.07421875
,13.3545513,1.0693359375
,13.3726355,1.0595703125
,13.393705,1.07421875
,13.4091229,1.142578125
,13.4303328,1.298828125
,13.4491012,1.484375
,13.4715867,1.7041015625
,13.5059356,1.904296875
,13.5099849,2.0947265625
,13.5459884,2.255859375
,13.5498819,2.3974609375
,13.5856149,2.529296875
,13.6186347,2.6318359375
,13.6191653,2.7197265625
,13.6278499,2.7587890625
,13.6653397,2.7685546875
,13.6692735,2.744140625
,13.7109037,2.71484375
,13.711629,2.685546875
,13.7596066,2.65625
,13.760279,2.626953125
,13.7692331,2.6025390625
,13.7893118,2.5439453125
,13.8370075,2.4951171875
,13.8375826,2.412109375
,13.8575307,2.353515625
,13.8702012,2.28515625
,13.9058474,2.2119140625
,13.9303873,2.1484375
,13.9308379,2.0654296875
,13.9777444,2.021484375
,13.9782649,1.982421875
,13.9896659,1.9091796875
,14.041204700000002,1.85546875
,14.0420154,1.806640625
,14.050238199999999,1.748046875
,14.086983100000001,1.7041015625
,14.1189845,1.6552734375
,14.1195719,1.62109375
,14.128226600000001,1.58203125
,14.163122000000001,1.533203125
,14.183204,1.494140625
,14.189174000000001,1.46484375
,14.2230865,1.435546875
,14.255941700000001,1.3916015625
,14.256396599999999,1.3525390625
,14.271760400000002,1.3037109375
,14.319932999999999,1.2841796875
,14.3209315,1.2548828125
,14.329373100000002,1.240234375
,14.365420700000001,1.220703125
,14.369421500000001,1.201171875
,14.411691900000001,1.2060546875
,14.412330999999998,1.2158203125
,14.434368200000002,1.2890625
,14.452690100000002,1.4306640625
,14.469523899999999,1.591796875
,14.519027900000001,1.77734375
,14.519716299999999,1.9091796875
,14.530622399999999,2.01171875
,14.551630800000002,2.1044921875
,14.5732186,2.177734375
,14.5914571,2.24609375
,14.6134724,2.2998046875
,14.6321066,2.3291015625
,14.677081999999999,2.3193359375
,14.6777422,2.3046875
,14.6907162,2.28515625
,14.7291092,2.28515625
,14.729866999999999,2.2802734375
,14.767396900000001,2.275390625
,14.773513999999999,2.255859375
,14.794797800000001,2.2314453125
,14.812195899999999,2.2021484375
,14.850410499999999,2.1630859375
,14.8534978,2.1240234375
,14.871751,2.0849609375
,14.889995800000001,2.05078125
,14.9286104,1.9970703125
,14.929006000000001,1.943359375
,14.964939699999999,1.89453125
,14.9862143,1.845703125
,14.993809299999999,1.8017578125
,15.0305407,1.7626953125
,15.030890800000002,1.71875
,15.0675804,1.6845703125
,15.0693931,1.650390625
,15.105005299999998,1.6259765625
,15.126493499999999,1.591796875
,15.131312000000001,1.5625
,15.1649965,1.5283203125
,15.1871051,1.494140625
,15.194463500000001,1.455078125
,15.211353800000001,1.4208984375
,15.2461889,1.396484375
,15.254319899999999,1.3720703125
,15.2711717,1.3525390625
,15.3106921,1.318359375
,15.311082599999999,1.2841796875
,15.3463898,1.2646484375
,15.3744734,1.2548828125
,15.3749209,1.2451171875
,15.408773199999999,1.2353515625
,15.430875400000001,1.220703125
,15.431481300000002,1.23046875
,15.4511668,1.279296875
,15.5009448,1.3720703125
,15.501368,1.513671875
,15.514866399999999,1.6748046875
,15.5358992,1.8359375
,15.55509,1.9580078125
,15.5748651,2.0751953125
,15.5903532,2.158203125
,15.640276799999999,2.255859375
,15.640874100000001,2.3291015625
,15.6519321,2.40234375
,15.686926199999998,2.44140625
,15.7086063,2.451171875
,15.7150046,2.44140625
,15.7366512,2.421875
,15.752558100000002,2.3974609375
,15.7714334,2.3876953125
,15.792850900000001,2.36328125
,15.811923,2.3388671875
,15.8324338,2.3095703125
,15.8713799,2.275390625
,15.902129500000001,2.2412109375
,15.902815100000002,2.2021484375
,15.9152773,2.16796875
,15.9295412,2.12890625
,15.981359399999999,2.0947265625
,15.9819468,2.03125
,16.0019453,2.001953125
,16.0153145,1.9677734375
,16.0343054,1.93359375
,16.0535879,1.89453125
,16.0897557,1.8603515625
,16.0947527,1.8359375
,16.1357481,1.8017578125
,16.1361174,1.77734375
,16.1533277,1.748046875
,16.1891538,1.728515625
,16.1909687,1.69921875
,16.2280203,1.669921875
,16.2586052,1.640625
,16.2592858,1.6162109375
,16.2743461,1.591796875
,16.3086342,1.572265625
,16.3305014,1.5478515625
,16.3310128,1.5380859375
,16.3672435,1.5234375
,16.3990144,1.4990234375
,16.399465,1.4697265625
,16.4150378,1.4501953125
,16.4515262,1.4208984375
,16.4558226,1.3916015625
,16.4924573,1.3720703125
,16.4928273,1.3525390625
,16.5276739,1.3525390625
,16.5316805,1.4013671875
,16.567054,1.50390625
,16.6028061,1.630859375
,16.603436,1.77734375
,16.6144343,1.9140625
,16.6503554,2.041015625
,16.6811106,2.1484375
,16.6815297,2.2412109375
,16.6938586,2.32421875
,16.7299345,2.4267578125
,16.7352285,2.5146484375
,16.7541132,2.568359375
,16.7754713,2.59765625
,16.7962508,2.5830078125
,16.8169367,2.55859375
,16.8528613,2.529296875
,16.8577835,2.5048828125
,16.8736329,2.4755859375
,16.8933102,2.4609375
,16.9406226,2.431640625
,16.9412446,2.392578125
,16.9721024,2.34375
,16.977602,2.2998046875
,16.9965848,2.255859375
,17.032607,2.20703125
,17.0329806,2.158203125
,17.0807054,2.119140625
,17.0810934,2.0751953125
,17.0954887,2.0263671875
,17.1146488,1.982421875
,17.1598287,1.943359375
,17.1604203,1.904296875
,17.1747213,1.865234375
,17.2100049,1.8310546875
,17.23102,1.796875
,17.2315043,1.7626953125
,17.2655522,1.73828125
,17.2858528,1.708984375
,17.2950918,1.6796875
,17.3312773,1.640625
,17.3353561,1.6162109375
,17.3752927,1.6064453125
,17.3757973,1.5966796875
,17.4081527,1.58203125
,17.4181592,1.5576171875
,17.4342191,1.552734375
,17.4696988,1.5576171875
,17.4893107,1.552734375
,17.4944208,1.5576171875
,17.5302325,1.50390625
,17.5509358,1.4697265625
,17.5564865,1.435546875
,17.5790309,1.4208984375
,17.5935357,1.3916015625
,17.6307546,1.38671875
,17.6326346,1.376953125
,17.6692816,1.38671875
,17.6898554,1.4306640625
,17.6954179,1.5478515625
,17.7316252,1.689453125
,17.7598549,1.8212890625
,17.7603741,1.9580078125
,17.7750932,2.0751953125
,17.7947006,2.197265625
,17.8311536,2.2998046875
,17.8354974,2.40234375
,17.8565153,2.48046875
,17.878442,2.548828125
,17.8986133,2.5927734375
,17.9177244,2.607421875
,17.934761,2.6025390625
,17.970081,2.59765625
,17.9747852,2.578125
,17.9948649,2.55859375
,18.0406038,2.5341796875
,18.0412065,2.5
,18.0580966,2.4658203125
,18.0775177,2.4267578125
,18.1130151,2.3828125
,18.1177708,2.333984375
,18.1548211,2.2802734375
,18.1553659,2.2314453125
,18.1746869,2.1875
,18.1958552,2.1484375
,18.2179596,2.119140625
,18.2388653,2.0849609375
,18.258307,2.060546875
,18.278162,2.03125
,18.2972376,1.9970703125
,18.3149183,1.9580078125
,18.3358776,1.9287109375
,18.3560582,1.8896484375
,18.3778654,1.8505859375
,18.3966494,1.8115234375
,18.4341084,1.7822265625
,18.439413,1.7578125
,18.4886748,1.7333984375
,18.489033,1.71875
,18.4941712,1.669921875
,18.532844,1.6357421875
,18.5379862,1.6064453125
,18.5554555,1.58203125
,18.5922076,1.552734375
,18.6145723,1.533203125
,18.6154342,1.513671875
,18.6511877,1.4892578125
,18.6716041,1.4697265625
,18.6736746,1.4404296875
,18.708806,1.4208984375
,18.7283725,1.4013671875
,18.7363763,1.396484375
,18.7711838,1.4306640625
,18.7930578,1.5283203125
,18.7974022,1.650390625
,18.8322108,1.787109375
,18.8533592,1.89453125
,18.8600683,2.001953125
,18.8764641,2.0947265625
,18.9119216,2.197265625
,18.9168067,2.28515625
,18.9522758,2.353515625
,18.9717156,2.40234375
,18.9764496,2.44140625
,19.010762,2.4560546875
,19.0315839,2.4462890625
,19.0410921,2.4365234375
,19.0556089,2.421875
,19.0901551,2.4169921875
,19.1112798,2.40234375
,19.1161973,2.3779296875
,19.152528,2.353515625
,19.1738104,2.3193359375
,19.178392,2.28515625
,19.2148811,2.24609375
,19.2154578,2.2021484375
,19.2501967,2.1728515625
,19.2709651,2.1337890625
,19.2760012,2.0947265625
,19.3097523,2.0703125
,19.3476432,2.03125
,19.3482288,2.001953125
,19.3588234,1.962890625
,19.404281,1.93359375
,19.4048311,1.8994140625
,19.4178366,1.875
,19.465875,1.8359375
,19.4664696,1.8115234375
,19.4776129,1.7724609375
,19.5130796,1.748046875
,19.5177977,1.728515625
,19.5530375,1.7041015625
,19.5729547,1.6796875
,19.5800361,1.650390625
,19.5961262,1.630859375
,19.6342316,1.630859375
,19.637335,1.6162109375
,19.6720478,1.591796875
,19.6930415,1.5771484375
,19.699617,1.5576171875
,19.7336345,1.5234375
,19.7544454,1.494140625
,19.7588262,1.4794921875
,19.7767242,1.484375
,19.8138724,1.5673828125
,19.8178334,1.689453125
,19.8536129,1.826171875
,19.8587434,1.9482421875
,19.895408,2.0703125
,19.900046,2.1728515625
,19.9442691,2.2802734375
,19.9448493,2.3779296875
,19.9757075,2.451171875
,19.9762641,2.529296875
,20.0114687,2.587890625
,20.0360647,2.6171875
,20.0382357,2.6123046875
,20.0734098,2.587890625
,20.0946279,2.5537109375
,20.0999218,2.5341796875
,20.1161436,2.5048828125
,20.1621999,2.4951171875
,20.1629409,2.4658203125
,20.1813145,2.4267578125
,20.2002252,2.3779296875
,20.2185857,2.3291015625
,20.2540212,2.275390625
,20.2757093,2.2216796875
,20.2783637,2.16796875
,20.3138301,2.1240234375
,20.3489924,2.0849609375
,20.34961,2.0458984375
,20.357994,2.01171875
,20.3928164,1.9677734375
,20.4135899,1.9384765625
,20.4185415,1.9091796875
,20.4555312,1.875
,20.4759146,1.8310546875
,20.4808482,1.7919921875
,20.4966427,1.7578125
,20.5327998,1.748046875
,20.5657725,1.7236328125
,20.5662816,1.69921875
,20.5806497,1.6748046875
,20.614816,1.640625
,20.6196558,1.611328125
,20.6606258,1.5771484375
,20.6916321,1.5478515625
,20.6922583,1.5185546875
,20.697762,1.50390625
,20.7325969,1.4794921875
,20.7533275,1.455078125
,20.7609235,1.4208984375
,20.7976656,1.4013671875
,20.8022545,1.376953125
,20.8396999,1.3671875
,20.84023,1.3916015625
,20.857598,1.494140625
,20.901469,1.6455078125
,20.9018856,1.826171875
,20.9229053,1.9873046875
,20.9413508,2.12890625
,20.9765124,2.2607421875
,20.9803497,2.3779296875
,21.0152628,2.4951171875
,21.0367188,2.59765625
,21.0433097,2.6904296875
,21.059189,2.75390625
,21.0951121,2.7880859375
,21.0992333,2.783203125
,21.136041,2.75390625
,21.1410717,2.71484375
,21.1770891,2.6806640625
,21.1823041,2.6513671875
,21.2303811,2.6220703125
,21.2308211,2.587890625
,21.2397431,2.5439453125
,21.2747635,2.5048828125
,21.2787711,2.451171875
,21.313316,2.392578125
,21.3346141,2.3291015625
,21.339595,2.2705078125
,21.3867776,2.2021484375
,21.387258,2.1533203125
,21.404138,2.0947265625
,21.4192026,2.0458984375
,21.4631127,1.9970703125
,21.4637031,1.953125
,21.4853721,1.9140625
,21.5019293,1.875
,21.537488,1.826171875
,21.5439874,1.787109375
,21.5805634,1.748046875
,21.5811526,1.708984375
,21.5989593,1.6796875
,21.6357323,1.650390625
,21.6422791,1.62109375
,21.6811716,1.5869140625
,21.6814768,1.552734375
,21.7178571,1.5234375
,21.7228604,1.50390625
,21.7569473,1.4697265625
,21.7776409,1.4404296875
,21.7806078,1.40625
,21.8181511,1.38671875
,21.8187343,1.357421875
,21.857465,1.3232421875
,21.884942,1.298828125
,21.8853102,1.26953125
,21.9039866,1.26953125
,21.9234656,1.3134765625
,21.9593549,1.435546875
,21.959729,1.591796875
,21.9946164,1.796875
,21.999711,1.9677734375
,22.0346586,2.138671875
,22.0551884,2.275390625
,22.0639726,2.4072265625
,22.1006448,2.5
,22.1012318,2.6025390625
,22.1516963,2.6708984375
,22.1522826,2.7197265625
,22.1600148,2.724609375
,22.1981396,2.6953125
,22.2191746,2.65625
,22.2196641,2.607421875
,22.2557634,2.5634765625
,22.2760596,2.51953125
,22.284013,2.4755859375
,22.299372,2.4267578125
,22.3341395,2.3779296875
,22.3552295,2.294921875
,22.3599703,2.2412109375
,22.3998235,2.1826171875
,22.4208196,2.1240234375
,22.422926,2.0703125
,22.4571901,2.0166015625
,22.4773826,1.9580078125
,22.4848348,1.9091796875
,22.521477,1.8603515625
,22.5222265,1.8115234375
,22.5712828,1.7822265625
,22.5716548,1.748046875
,22.5830171,1.71875
,22.6184701,1.6796875
,22.6242971,1.640625
,22.6440287,1.5966796875
,22.6781244,1.5478515625
,22.698175,1.50390625
,22.7005253,1.46484375
,22.7348709,1.4208984375
,22.7549316,1.376953125
,22.7647387,1.3427734375
,22.8047683,1.3134765625
,22.8052881,1.2841796875
,22.8392007,1.2646484375
,22.8446369,1.2353515625
,22.8605643,1.201171875
,22.8962153,1.181640625
,22.9016515,1.15234375
,22.9376266,1.1279296875
,22.9422281,1.0986328125
,22.979127,1.103515625
,22.9852781,1.162109375
,23.0204388,1.2939453125
,23.0249111,1.474609375
,23.0437441,1.669921875
,23.0641607,1.8408203125
,23.0993353,2.021484375
,23.1040694,2.158203125
,23.1239644,2.2802734375
,23.1601018,2.3876953125
,23.1639455,2.4560546875
,23.2078048,2.509765625
,23.2083982,2.5341796875
,23.238365,2.5244140625
,23.2429355,2.4951171875
,23.2796191,2.470703125
,23.2843255,2.4462890625
,23.3303788,2.421875
,23.3310152,2.40234375
,23.3462971,2.3779296875
,23.3654953,2.3388671875
,23.3859101,2.294921875
,23.4011911,2.2412109375
,23.4369716,2.1923828125
,23.4424845,2.138671875
,23.4775685,2.0947265625
,23.4829504,2.041015625
,23.5197522,1.9873046875
,23.5247433,1.9384765625
,23.5596504,1.8896484375
,23.5788252,1.845703125
,23.58068,1.8115234375
,23.6146649,1.787109375
,23.6429079,1.7529296875
,23.6433748,1.71875
,23.6787458,1.6796875
,23.6849282,1.6455078125
,23.7227244,1.611328125
,23.7233138,1.5771484375
,23.7594608,1.54296875
,23.7662029,1.494140625
,23.8125405,1.455078125
,23.8129129,1.435546875
,23.8236897,1.416015625
,23.8619485,1.396484375
,23.8625298,1.376953125
,23.8992362,1.34765625
,23.919549,1.3232421875
,23.9245417,1.298828125
,23.9612575,1.2744140625
,23.9619018,1.26953125
,23.997196,1.3330078125
,24.0190848,1.4599609375
,24.0236661,1.6455078125
,24.0608711,1.8212890625
,24.0661246,1.9873046875
,24.1070407,2.1240234375
,24.1073945,2.2509765625
,24.1431821,2.3486328125
,24.1434913,2.421875
,24.1704548,2.5048828125
,24.1828244,2.548828125
,24.2195017,2.5732421875
,24.2490867,2.5537109375
,24.2495474,2.5244140625
,24.2671047,2.4853515625
,24.3121645,2.451171875
,24.3126575,2.4169921875
,24.3242356,2.3974609375
,24.3606889,2.36328125
,24.3625325,2.3291015625
,24.3974133,2.28515625
,24.4185375,2.2314453125
,24.4248794,2.1728515625
,24.4595175,2.1240234375
,24.4802166,2.0654296875
,24.4875124,2.01171875
,24.5288018,1.962890625
,24.5291659,1.9140625
,24.5455036,1.875
,24.5810664,1.8359375
,24.583454,1.7919921875
,24.6174071,1.7529296875
,24.6374757,1.7236328125
,24.6470748,1.689453125
,24.6851089,1.6552734375
,24.6856697,1.62109375
,24.7041829,1.5869140625
,24.7382342,1.5478515625
,24.7587027,1.5087890625
,24.7667223,1.4697265625
,24.801248,1.435546875
,24.8064447,1.40625
,24.8434684,1.376953125
,24.8480255,1.34765625
,24.8631004,1.328125
,24.8993969,1.3232421875
,24.9038373,1.298828125
,24.9380837,1.2744140625
,24.958547,1.2451171875
,24.9652781,1.220703125
,25.0063055,1.2060546875
,25.006851,1.2451171875
,25.0280097,1.3525390625
,25.0451479,1.5380859375
,25.0851417,1.7626953125
,25.0855089,1.962890625
,25.1310514,2.158203125
,25.1316344,2.3193359375
,25.1610103,2.470703125
,25.1669758,2.5927734375
,25.2075018,2.71484375
,25.2078671,2.802734375
,25.2422784,2.8759765625
,25.2628283,2.8955078125
,25.2644966,2.890625
,25.3018727,2.8466796875
,25.3215108,2.7978515625
,25.3262324,2.7490234375
,25.3603226,2.705078125
,25.3811326,2.6513671875
,25.3881302,2.6025390625
,25.4249379,2.5439453125
,25.425518,2.48046875
,25.4610958,2.4267578125
,25.4659,2.3583984375
,25.5014973,2.28515625
,25.5313536,2.2119140625
,25.5318998,2.1435546875
,25.5489928,2.08984375
,25.5947024,2.03125
,25.5950706,1.9775390625
,25.60704,1.9384765625
,25.6254964,1.89453125
,25.660825,1.8505859375
,25.6817419,1.8017578125
,25.6889159,1.7529296875
,25.7223034,1.7138671875
,25.7267373,1.669921875
,25.7616948,1.630859375
,25.7840529,1.5966796875
,25.784503,1.5576171875
,25.8222634,1.5185546875
,25.8254627,1.4794921875
,25.8642901,1.4404296875
,25.864709,1.4111328125
,25.9058599,1.376953125
,25.9385692,1.3525390625
,25.9389446,1.3232421875
,25.9496349,1.3037109375
,25.9655875,1.279296875
,26.0007163,1.2548828125
,26.0053344,1.2353515625
,26.0525983,1.2109375
,26.0530273,1.1962890625
,26.0829715,1.1865234375
,26.0872746,1.2060546875
,26.1216491,1.2890625
,26.1424844,1.455078125
,26.1469749,1.6552734375
,26.1824835,1.89453125
,26.1854527,2.08984375
,26.2252186,2.2705078125
,26.245579,2.421875
,26.2461613,2.55859375
,26.2865683,2.67578125
,26.3069861,2.7783203125
,26.3073518,2.8466796875
,26.3437738,2.8857421875
,26.3443936,2.8857421875
,26.383056,2.8466796875
,26.3861181,2.79296875
,26.4203023,2.7392578125
,26.4415125,2.6904296875
,26.4481627,2.63671875
,26.4888037,2.587890625
,26.4891667,2.5244140625
,26.5099137,2.470703125
,26.5278689,2.3974609375
,26.5622017,2.3291015625
,26.5675452,2.2509765625
,26.6132279,2.177734375
,26.6138822,2.109375
,26.629103,2.0458984375
,26.6632754,1.9873046875
,26.6848026,1.9384765625
,26.6920597,1.8896484375
,26.7073311,1.845703125
,26.742591,1.8115234375
,26.7512309,1.767578125
,26.7690646,1.7236328125
,26.8034747,1.669921875
,26.8083352,1.6259765625
,26.8436527,1.58203125
,26.8621176,1.5234375
,26.8663851,1.474609375
,26.9004999,1.4404296875
,26.9210055,1.4013671875
,26.9291154,1.3623046875
,26.9651755,1.3232421875
,26.9693431,1.2841796875
,27.0164258,1.25
,27.0168078,1.2158203125
,27.030352,1.1865234375
,27.0448334,1.15234375
,27.0810491,1.1376953125
,27.1018619,1.11328125
,27.1074666,1.09375
,27.1431887,1.0693359375
,27.1636418,1.044921875
,27.1696056,1.025390625
,27.20519,1.025390625
,27.2351767,1.0595703125
,27.2355321,1.201171875
,27.2485779,1.3916015625
,27.2837159,1.6357421875
,27.288646,1.85546875
,27.3100768,2.0654296875
,27.3436401,2.236328125
,27.3502409,2.3681640625
,27.3703542,2.48046875
,27.4047785,2.578125
,27.4255087,2.6513671875
,27.42719,2.6904296875
,27.4610745,2.7001953125
,27.4811287,2.6708984375
,27.4895961,2.6318359375
,27.5241368,2.5927734375
,27.5285999,2.5537109375
,27.5657157,2.51953125
,27.5852926,2.4755859375
,27.5858629,2.431640625
,27.6217322,2.3779296875
,27.6422341,2.3291015625
,27.6493558,2.2607421875
,27.6859143,2.1923828125
,27.6903636,2.1337890625
,27.7250728,2.080078125
,27.7302873,2.0166015625
,27.7651852,1.962890625
,27.7857031,1.9091796875
,27.7876905,1.875
,27.8292532,1.826171875
,27.8298391,1.77734375
,27.8590991,1.7333984375
,27.8710165,1.6943359375
,27.8915823,1.650390625
,27.912282,1.6064453125
,27.926981,1.5576171875
,27.9631602,1.5185546875
,27.9833587,1.4697265625
,27.9896476,1.4013671875
,28.0384614,1.3720703125
,28.038873,1.337890625
,28.0495033,1.3037109375
,28.0862223,1.26953125
,28.0892806,1.240234375
,28.1236398,1.2158203125
,28.1439723,1.1962890625
,28.1488062,1.181640625
,28.1952179,1.162109375
,28.1958112,1.142578125
,28.2092549,1.123046875
,28.2312114,1.11328125
,28.271642,1.1376953125
,28.2721711,1.240234375
,28.3098927,1.4111328125
,28.3123449,1.630859375
,28.3276558,1.8359375
,28.3799773,2.041015625
,28.3806017,2.1923828125
,28.3903644,2.3291015625
,28.4236636,2.431640625
,28.4439779,2.5244140625
,28.4514962,2.5927734375
,28.4879727,2.626953125
,28.488784,2.6220703125
,28.5232408,2.5927734375
,28.5436897,2.548828125
,28.5496243,2.5048828125
,28.5940085,2.4658203125
,28.5945969,2.4365234375
,28.6140502,2.3974609375
,28.6305619,2.353515625
,28.6682166,2.3046875
,28.6688077,2.255859375
,28.7030589,2.2021484375
,28.7220506,2.1337890625
,28.7314741,2.099609375
,28.7678506,2.0556640625
,28.7720395,2.0068359375
,28.7918262,1.9580078125
,28.825557,1.904296875
,28.8470108,1.8603515625
,28.8531171,1.81640625
,28.8676882,1.7724609375
,28.9037971,1.73828125
,28.9381986,1.7041015625
,28.9427737,1.6650390625
,28.9520723,1.6259765625
,28.9978401,1.5869140625
,28.9983189,1.5478515625
,29.01387,1.4990234375
,29.0594955,1.455078125
,29.0598842,1.40625
,29.0716653,1.3720703125
,29.1074268,1.337890625
,29.1104315,1.3037109375
,29.1521678,1.26953125
,29.1527356,1.240234375
,29.1738638,1.2158203125
,29.2133623,1.201171875
,29.2138551,1.1767578125
,29.2305611,1.171875
,29.2490726,1.1572265625
,29.2862074,1.1328125
,29.2903104,1.11328125
,29.3249165,1.1083984375
,29.3462087,1.1572265625
,29.3513929,1.2890625
,29.3858532,1.50390625
,29.406599,1.73828125
,29.412424,1.953125
,29.446387,2.138671875
,29.4512221,2.333984375
,29.4892689,2.4853515625
,29.4967399,2.6318359375
,29.5120936,2.7392578125
,29.5481933,2.841796875
,29.5533968,2.9052734375
,29.5889096,2.9248046875
,29.6095912,2.900390625
,29.6099736,2.8515625
,29.6447799,2.8076171875
,29.6648329,2.7587890625
,29.6715169,2.7099609375
,29.7091352,2.666015625
,29.728154,2.6171875
,29.7339248,2.55859375
,29.7703767,2.5048828125
,29.7707699,2.4365234375
,29.8052902,2.3681640625
,29.8264891,2.3046875
,29.8320499,2.2265625
,29.8797578,2.1533203125
,29.8802729,2.099609375
,29.8942629,2.0458984375
,29.9423284,1.9873046875
,29.9426837,1.93359375
,29.9512193,1.884765625
,29.987859,1.85546875
,29.9924818,1.8115234375
,30.0273618,1.7822265625
,30.0323808,1.7431640625
,30.067479499999997,1.7041015625
,30.0978705,1.66015625
,30.0984501,1.6259765625
,30.113624799999997,1.58203125
,30.147806600000003,1.5283203125
,30.150843199999997,1.4697265625
,30.186675899999997,1.4501953125
,30.192068499999998,1.42578125
,30.2283422,1.396484375
,30.2326439,1.3720703125
,30.2671012,1.3525390625
,30.286701800000003,1.337890625
,30.2957896,1.318359375
,30.3310855,1.298828125
,30.331624599999998,1.2744140625
,30.367207399999998,1.2548828125
,30.3720473,1.23046875
,30.4083288,1.2060546875
,30.4139615,1.1865234375
,30.448410000000003,1.201171875
,30.453448899999998,1.2744140625
,30.501840199999997,1.4404296875
,30.502930900000003,1.6552734375
,30.5214779,1.9091796875
,30.531903200000002,2.12890625
,30.566852500000003,2.3046875
,30.588305400000003,2.4560546875
,30.593660999999997,2.5732421875
,30.641726,2.6953125
,30.642034000000002,2.783203125
,30.6566349,2.8564453125
,30.672446100000002,2.880859375
,30.719478700000003,2.880859375
,30.7199564,2.841796875
,30.732880199999997,2.783203125
,30.767055900000003,2.7294921875
,30.797673500000002,2.6904296875
,30.798121799999997,2.6513671875
,30.816159,2.607421875
,30.850262,2.55859375
,30.855857999999998,2.4951171875
,30.8912818,2.431640625
,30.921456399999997,2.3583984375
,30.9218913,2.2998046875
,30.9328469,2.2265625
,30.967535400000003,2.158203125
,30.988652199999997,2.099609375
,30.995797500000002,2.041015625
,31.0327152,1.9873046875
,31.0374207,1.93359375
,31.051617399999998,1.884765625
,31.091403999999997,1.8408203125
,31.091765000000002,1.796875
,31.114692400000003,1.7529296875
,31.1498226,1.7041015625
,31.154383600000003,1.669921875
,31.190156,1.6259765625
,31.195872799999997,1.5771484375
,31.2318305,1.5283203125
,31.232188,1.4794921875
,31.268237300000003,1.4453125
,31.272209500000002,1.40625
,31.306620700000003,1.3720703125
,31.3261161,1.337890625
,31.334252300000003,1.298828125
,31.3699486,1.2646484375
,31.3903703,1.240234375
,31.392264599999997,1.2158203125
,31.428539100000002,1.1962890625
,31.4332279,1.171875
,31.468986899999997,1.1474609375
,31.473520200000003,1.123046875
,31.5080387,1.0888671875
,31.528363499999998,1.064453125
,31.536935300000003,1.0400390625
,31.572334599999998,1.03515625
,31.5773668,1.0595703125
,31.611471199999997,1.181640625
,31.6319709,1.357421875
,31.6323272,1.6015625
,31.667518899999997,1.8212890625
,31.6890146,2.0263671875
,31.6943039,2.177734375
,31.732310499999997,2.3193359375
,31.737078500000003,2.412109375
,31.7728689,2.4951171875
,31.773407400000004,2.5537109375
,31.809612299999998,2.6123046875
,31.8150476,2.6171875
,31.851643199999998,2.578125
,31.8562509,2.529296875
,31.898330199999997,2.470703125
,31.8986904,2.4072265625
,31.9148919,2.3583984375
,31.9500118,2.314453125
,31.9693873,2.2607421875
,31.9746291,2.20703125
,32.0123422,2.1484375
,32.0126983,2.08984375
,32.0554291,2.0263671875
,32.0560373,1.962890625
,32.0852004,1.89453125
,32.0968091,1.8115234375
,32.1337438,1.7578125
,32.1344479,1.7041015625
,32.1801884,1.6650390625
,32.1806386,1.6259765625
,32.1961772,1.5966796875
,32.2404094,1.5576171875
,32.240766,1.533203125
,32.2561404,1.50390625
,32.2905503,1.484375
,32.3109117,1.455078125
,32.3186183,1.4404296875
,32.33284,1.416015625
,32.3679048,1.4013671875
,32.3874102,1.376953125
,32.3940602,1.3623046875
,32.430514,1.337890625
,32.4523736,1.3232421875
,32.4578044,1.30859375
,32.5027375,1.2939453125
,32.5032325,1.2890625
,32.5132554,1.279296875
,32.5649342,1.2744140625
,32.5653059,1.2646484375
,32.5743888,1.2548828125
,32.611255,1.2451171875
,32.6407648,1.2353515625
,32.6413243,1.220703125
,32.6575372,1.2255859375
,32.6731761,1.279296875
,32.7079777,1.4306640625
,32.7296505,1.630859375
,32.7350679,1.865234375
,32.7693422,2.0703125
,32.7896319,2.2265625
,32.7973507,2.36328125
,32.8340915,2.4658203125
,32.8372034,2.5634765625
,32.8549353,2.63671875
,32.8758596,2.6953125
,32.9225943,2.705078125
,32.9229646,2.6953125
,32.9344577,2.6611328125
,32.9860442,2.6318359375
,32.9864496,2.6025390625
,32.9973671,2.5830078125
,33.0325549,2.55859375
,33.0527525,2.5341796875
,33.0551454,2.4951171875
,33.0932078,2.4658203125
,33.1136843,2.4169921875
,33.1168338,2.3681640625
,33.1361695,2.3095703125
,33.1725935,2.255859375
,33.2008209,2.197265625
,33.2013249,2.1533203125
,33.2342191,2.1142578125
,33.234573,2.080078125
,33.2689052,2.0458984375
,33.289444,2.0166015625
,33.2966877,1.9775390625
,33.3301885,1.9482421875
,33.3504969,1.9140625
,33.3578305,1.884765625
,33.393603,1.8505859375
,33.414734,1.81640625
,33.4151066,1.77734375
,33.4510539,1.73828125
,33.4815699,1.7041015625
,33.4821261,1.6796875
,33.4965067,1.650390625
,33.5311456,1.611328125
,33.560766,1.5625
,33.5613097,1.5283203125
,33.5753227,1.4892578125
,33.6124462,1.4697265625
,33.6165329,1.4404296875
,33.6528758,1.3916015625
,33.6731347,1.34765625
,33.6780879,1.337890625
,33.7137726,1.3330078125
,33.7191697,1.4013671875
,33.7537392,1.5576171875
,33.7609383,1.7578125
,33.806553,1.962890625
,33.806923,2.1240234375
,33.8156812,2.2802734375
,33.8520597,2.3974609375
,33.8719548,2.5048828125
,33.8777443,2.59765625
,33.9122311,2.67578125
,33.9318761,2.724609375
,33.9392587,2.744140625
,33.9573931,2.724609375
,33.992684,2.685546875
,33.9970888,2.63671875
,34.0318905,2.59765625
,34.0524032,2.568359375
,34.0583061,2.5341796875
,34.0911457,2.5
,34.1126671,2.4560546875
,34.1223277,2.4072265625
,34.1368165,2.353515625
,34.1723168,2.2998046875
,34.1927248,2.2412109375
,34.197324,2.1826171875
,34.2462375,2.1337890625
,34.2468321,2.08984375
,34.2585746,2.0458984375
,34.294815,2.001953125
,34.2953944,1.962890625
,34.3155732,1.93359375
,34.3529286,1.9091796875
,34.3575884,1.875
,34.3783465,1.8408203125
,34.4124091,1.8115234375
,34.432914,1.77734375
,34.4408872,1.7333984375
,34.4791194,1.6845703125
,34.4795156,1.6357421875
,34.5142842,1.5771484375
,34.5344364,1.5283203125
,34.5379048,1.474609375
,34.5715835,1.435546875
,34.5779788,1.4013671875
,34.6133555,1.3720703125
,34.647311,1.3427734375
,34.647623,1.30859375
,34.6602218,1.2890625
,34.7103487,1.2744140625
,34.7107845,1.2548828125
,34.7406475,1.2548828125
,34.741015,1.23046875
,34.7784749,1.201171875
,34.7791087,1.220703125
,34.81547,1.328125
,34.8202619,1.50390625
,34.8567852,1.73828125
,34.8573722,1.943359375
,34.8930735,2.1435546875
,34.9140734,2.294921875
,34.9192864,2.4267578125
,34.9396995,2.5390625
,34.9777578,2.6416015625
,34.9971966,2.71484375
,35.0024231,2.783203125
,35.022425,2.8076171875
,35.0432142,2.79296875
,35.063357,2.7392578125
,35.0793745,2.6806640625
,35.1170711,2.6513671875
,35.1174831,2.6220703125
,35.1552637,2.587890625
,35.1794884,2.5537109375
,35.1798611,2.509765625
,35.2164467,2.4560546875
,35.2223299,2.3974609375
,35.239153,2.333984375
,35.289125,2.2802734375
,35.2894802,2.2265625
,35.3002629,2.1630859375
,35.3357244,2.1142578125
,35.3663116,2.0703125
,35.3668027,2.021484375
,35.3834904,1.9775390625
,35.4296609,1.93359375
,35.4301753,1.89453125
,35.4382247,1.875
,35.4748029,1.85546875
,35.5063342,1.8115234375
,35.5068054,1.767578125
,35.5211678,1.728515625
,35.5563557,1.6845703125
,35.5615311,1.640625
,35.5804181,1.6064453125
,35.616126,1.552734375
,35.6192265,1.494140625
,35.6615412,1.4501953125
,35.6619026,1.4013671875
,35.6962089,1.357421875
,35.7023856,1.3232421875
,35.7397331,1.2939453125
,35.7401583,1.26953125
,35.7628334,1.23046875
,35.7842052,1.1865234375
,35.7992103,1.1474609375
,35.835466,1.1279296875
,35.855723,1.1083984375
,35.8607732,1.123046875
,35.8952028,1.1962890625
,35.9157421,1.3623046875
,35.9212135,1.5673828125
,35.958283,1.787109375
,35.9625658,1.982421875
,35.9807839,2.1337890625
,36.0223248,2.2900390625
,36.0229055,2.4072265625
,36.0418319,2.5146484375
,36.0777026,2.6025390625
,36.0804977,2.666015625
,36.1150806,2.6904296875
,36.1457029,2.6806640625
,36.1461573,2.6416015625
,36.1600062,2.6025390625
,36.209024,2.568359375
,36.2094714,2.5341796875
,36.2388928,2.5048828125
,36.2438033,2.4658203125
,36.2622369,2.4169921875
,36.296708,2.3681640625
,36.3185814,2.3095703125
,36.319168,2.24609375
,36.352136,2.1875
,36.373336,2.1337890625
,36.3815437,2.0751953125
,36.4183527,2.0166015625
,36.4230292,1.9677734375
,36.4719473,1.923828125
,36.4725177,1.8798828125
,36.4839893,1.8359375
,36.5178993,1.7822265625
,36.5226101,1.7431640625
,36.5410533,1.71875
,36.5815769,1.6845703125
,36.5823135,1.650390625
,36.6135552,1.6162109375
,36.622741,1.5771484375
,36.6591231,1.5380859375
,36.6635476,1.494140625
,36.7073566,1.455078125
,36.7077981,1.4208984375
,36.7231406,1.38671875
,36.7428323,1.3525390625
,36.7620694,1.3232421875
,36.7988384,1.2890625
,36.8016597,1.259765625
,36.8474131,1.2255859375
,36.8477828,1.19140625
,36.8675424,1.1572265625
,36.8818726,1.1328125
,36.9179568,1.103515625
,36.9209254,1.083984375
,36.9584496,1.064453125
,36.9630584,1.0693359375
,37.0028517,1.15234375
,37.0034964,1.298828125
,37.0397947,1.50390625
,37.0403331,1.7041015625
,37.0749456,1.904296875
,37.0808037,2.0654296875
,37.116453,2.2021484375
,37.1361807,2.314453125
,37.1443994,2.412109375
,37.1779723,2.4853515625
,37.1979279,2.5537109375
,37.202547,2.578125
,37.2360017,2.5732421875
,37.2575521,2.5439453125
,37.2624876,2.5
,37.3020302,2.4755859375
,37.3025525,2.451171875
,37.336474,2.4267578125
,37.3576749,2.392578125
,37.3631943,2.353515625
,37.3995849,2.2998046875
,37.4048949,2.2509765625
,37.4224351,2.197265625
,37.4727431,2.158203125
,37.4731713,2.109375
,37.4828204,2.060546875
,37.5191745,2.0166015625
,37.5227144,1.9677734375
,37.5610821,1.9189453125
,37.5661827,1.8798828125
,37.5857914,1.8359375
,37.6002707,1.796875
,37.6435512,1.7626953125
,37.6439143,1.7333984375
,37.6729834,1.69921875
,37.6845175,1.6650390625
,37.7205246,1.6259765625
,37.723381,1.5869140625
,37.7600987,1.54296875
,37.7608502,1.5087890625
,37.8110894,1.4794921875
,37.8114547,1.4404296875
,37.8218076,1.4111328125
,37.857115,1.376953125
,37.8773727,1.3427734375
,37.8844136,1.318359375
,37.9215864,1.2841796875
,37.9246403,1.259765625
,37.9608391,1.23046875
,37.9657529,1.2109375
,37.9829076,1.19140625
,38.0295203,1.181640625
,38.0299607,1.201171875
,38.0458764,1.2939453125
,38.0645089,1.435546875
,38.1068022,1.6259765625
,38.1072097,1.796875
,38.137146,1.953125
,38.1428612,2.0654296875
,38.1626925,2.1728515625
,38.1995818,2.24609375
,38.2051336,2.3193359375
,38.2245576,2.3681640625
,38.2632779,2.392578125
,38.2949501,2.3828125
,38.2954243,2.3486328125
,38.3073366,2.3193359375
,38.3221611,2.2998046875
,38.3575182,2.294921875
,38.3871707,2.28515625
,38.3876575,2.265625
,38.405146,2.2412109375
,38.4416549,2.20703125
,38.4441354,2.1728515625
,38.4816196,2.138671875
,38.4819966,2.0947265625
,38.5184465,2.0556640625
,38.523864,2.021484375
,38.5594858,1.982421875
,38.564028,1.943359375
,38.5986654,1.8994140625
,38.6196868,1.865234375
,38.6246836,1.8310546875
,38.6589677,1.796875
,38.6791071,1.7578125
,38.6865276,1.7236328125
,38.7039449,1.689453125
,38.7399831,1.669921875
,38.7436171,1.6455078125
,38.7787297,1.62109375
,38.7992079,1.591796875
,38.8049861,1.5625
,38.8397012,1.5234375
,38.8608638,1.494140625
,38.8664409,1.455078125
,38.8995038,1.4208984375
,38.9039345,1.3916015625
,38.9393071,1.3671875
,38.9596472,1.3427734375
,38.9652844,1.337890625
,39.0100886,1.357421875
,39.0104447,1.4404296875
,39.039955,1.5869140625
,39.0430313,1.7626953125
,39.0768872,1.943359375
,39.0970021,2.0947265625
,39.1030912,2.236328125
,39.1507211,2.34375
,39.15114,2.44140625
,39.1802172,2.529296875
,39.1857975,2.5927734375
,39.2216449,2.646484375
,39.2220089,2.6611328125
,39.2578556,2.65625
,39.289367,2.6220703125
,39.2897397,2.587890625
,39.3052442,2.55859375
,39.3404576,2.529296875
,39.3689711,2.5048828125
,39.3694648,2.4755859375
,39.3881369,2.431640625
,39.4315741,2.3828125
,39.431941,2.32421875
,39.4452786,2.275390625
,39.4789953,2.2216796875
,39.5005443,2.16796875
,39.5071455,2.1240234375
,39.5556491,2.080078125
,39.5561524,2.0361328125
,39.5654833,1.9921875
,39.6042251,1.943359375
,39.6334577,1.8896484375
,39.6339957,1.85546875
,39.6465399,1.81640625
,39.681242,1.77734375
,39.6868423,1.73828125
,39.7222714,1.6943359375
,39.7280732,1.6552734375
,39.762234,1.6259765625
,39.7628343,1.58203125
,39.7981353,1.5478515625
,39.8183301,1.5234375
,39.8255295,1.4892578125
,39.8594459,1.455078125
,39.8804425,1.416015625
,39.8877149,1.3720703125
,39.9284978,1.328125
,39.9290783,1.2890625
,39.9433428,1.2548828125
,39.9781453,1.2451171875
,39.9987483,1.259765625
,40.0060643,1.3525390625
,40.0528019,1.4990234375
,40.0531577,1.69921875
,40.0747057,1.8896484375
,40.0876706,2.0751953125
,40.1214447,2.236328125
,40.1429123,2.3974609375
,40.1498149,2.5341796875
,40.1663339,2.65625
,40.2094533,2.7783203125
,40.2102174,2.861328125
,40.2249181,2.91015625
,40.2697422,2.9150390625
,40.270128,2.890625
,40.2898485,2.8466796875
,40.3097713,2.802734375
,40.3249098,2.763671875
,40.3618136,2.734375
,40.3657525,2.685546875
,40.4013617,2.6416015625
,40.407199,2.5830078125
,40.4435266,2.5244140625
,40.4488562,2.4560546875
,40.4681919,2.3876953125
,40.5038358,2.32421875
,40.5228089,2.2607421875
,40.5256698,2.20703125
,40.5621744,2.1533203125
,40.5671716,2.109375
,40.6013098,2.0654296875
,40.6217452,2.021484375
,40.6273242,1.97265625
,40.660817,1.9287109375
,40.6822222,1.8798828125
,40.6876451,1.845703125
,40.7072031,1.806640625
,40.7413149,1.767578125
,40.7466327,1.728515625
,40.7825416,1.689453125
,40.788079,1.6552734375
,40.8240047,1.62109375
,40.8297603,1.5869140625
,40.866709,1.552734375
,40.8677517,1.5234375
,40.9013426,1.4990234375
,40.9054072,1.484375
,40.9409421,1.4501953125
,40.9620984,1.416015625
,40.9673573,1.3818359375
,41.0049195,1.3525390625
,41.0082211,1.3330078125
,41.0429873,1.337890625
,41.0637889,1.396484375
,41.066228,1.533203125
,41.1028554,1.7138671875
,41.1079033,1.8896484375
,41.1495734,2.0654296875
,41.1499845,2.216796875
,41.1863591,2.3681640625
,41.1886891,2.490234375
,41.227349,2.607421875
,41.2279176,2.7099609375
,41.24759,2.8076171875
,41.2883066,2.8515625
,41.2888989,2.8564453125
,41.33585,2.8271484375
,41.3362976,2.7880859375
,41.348902,2.744140625
,41.3832896,2.705078125
,41.4040598,2.65625
,41.4119359,2.6220703125
,41.4311413,2.548828125
,41.4483877,2.4755859375
,41.4878231,2.4267578125
,41.48828,2.373046875
,41.5348521,2.32421875
,41.5354388,2.265625
,41.5561722,2.20703125
,41.569969,2.1484375
,41.6047194,2.0947265625
,41.6249818,2.041015625
,41.6314949,1.9970703125
,41.6486316,1.953125
,41.6816639,1.9140625
,41.7033597,1.865234375
,41.7083939,1.8212890625
,41.742478,1.7822265625
,41.7625475,1.7333984375
,41.7705829,1.689453125
,41.7864158,1.650390625
,41.8268157,1.6162109375
,41.8592167,1.5771484375
,41.8597972,1.5478515625
,41.8706119,1.5087890625
,41.8900425,1.474609375
,41.9254946,1.4453125
,41.9298026,1.416015625
,41.9465222,1.38671875
,41.9982681,1.3671875
,41.9986553,1.34765625
,42.0281335,1.3232421875
,42.0286033,1.2939453125
,42.0654205,1.2744140625
,42.0901726,1.2548828125
,42.0905314,1.2353515625
,42.1275841,1.2255859375
,42.1294395,1.2353515625
,42.1685701,1.2841796875
,42.1689306,1.416015625
,42.190003,1.6015625
,42.2323317,1.77734375
,42.2327979,1.943359375
,42.2509926,2.0849609375
,42.2848511,2.216796875
,42.3060595,2.3291015625
,42.3113058,2.44140625
,42.3278054,2.5244140625
,42.3624997,2.607421875
,42.3829564,2.6513671875
,42.3877348,2.646484375
,42.4241592,2.6220703125
,42.4443907,2.587890625
,42.4501851,2.5634765625
,42.4864654,2.5341796875
,42.4909092,2.5048828125
,42.5092837,2.4609375
,42.5587929,2.421875
,42.5591723,2.373046875
,42.5698395,2.32421875
,42.6046524,2.265625
,42.6246354,2.2119140625
,42.6298672,2.1533203125
,42.6668534,2.1044921875
,42.6672154,2.0556640625
,42.705408,2.0166015625
,42.7242959,1.97265625
,42.7308354,1.9287109375
,42.7664066,1.884765625
,42.7705738,1.8359375
,42.8090333,1.796875
,42.8093895,1.7578125
,42.8550836,1.7236328125
,42.8554364,1.689453125
,42.8757464,1.640625
,42.8904182,1.6064453125
,42.9328792,1.58203125
,42.9333378,1.5478515625
,42.9516591,1.5185546875
,42.9877202,1.484375
,42.9904731,1.455078125
,43.0245242,1.4306640625
,43.0452964,1.40625
,43.0522997,1.38671875
,43.0705694,1.3623046875
,43.1042534,1.3525390625
,43.1250633,1.328125
,43.1326026,1.3037109375
,43.1520542,1.279296875
,43.1879795,1.259765625
,43.1913312,1.240234375
,43.2280772,1.2353515625
,43.2284295,1.2353515625
,43.2488202,1.298828125
,43.2862385,1.4111328125
,43.2906754,1.5673828125
,43.3358672,1.728515625
,43.3364394,1.8994140625
,43.3521509,2.0458984375
,43.3979031,2.1630859375
,43.398305,2.2802734375
,43.4111907,2.3779296875
,43.4460789,2.470703125
,43.4489619,2.5390625
,43.4851914,2.587890625
,43.5048742,2.5927734375
,43.5123436,2.5732421875
,43.5314248,2.548828125
,43.5823452,2.51953125
,43.5830302,2.5
,43.593788,2.4609375
,43.6094481,2.4365234375
,43.645773,2.412109375
,43.676385,2.373046875
,43.6768368,2.3193359375
,43.6929265,2.265625
,43.7136053,2.20703125
,43.7494299,2.158203125
,43.7552793,2.109375
,43.7903189,2.0654296875
,43.790871,2.01171875
,43.8103507,1.97265625
,43.8458053,1.9287109375
,43.8532349,1.8896484375
,43.8951372,1.845703125
,43.895706,1.806640625
,43.9130985,1.7626953125
,43.9465114,1.7236328125
,43.9678454,1.6845703125
,43.9683883,1.66015625
,44.0021741,1.630859375
,44.0240726,1.5966796875
,44.0323667,1.5625
,44.0673801,1.5234375
,44.0719593,1.4892578125
,44.10715,1.46484375
,44.1274117,1.4404296875
,44.1302606,1.416015625
,44.1679033,1.396484375
,44.1727684,1.376953125
,44.2078407,1.357421875
,44.2107479,1.337890625
,44.2516886,1.3232421875
,44.252099,1.30859375
,44.2724084,1.2841796875
,44.3135468,1.2646484375
,44.3441191,1.240234375
,44.3446646,1.2255859375
,44.3520626,1.2158203125
,44.3722465,1.2548828125
,44.4086436,1.3427734375
,44.4286916,1.4990234375
,44.4340168,1.669921875
,44.4710117,1.8603515625
,44.4758506,2.021484375
,44.5156557,2.1875
,44.5160091,2.32421875
,44.531929,2.470703125
,44.5775669,2.5927734375
,44.5781604,2.71484375
,44.5934056,2.7978515625
,44.6308149,2.861328125
,44.6349283,2.87109375
,44.6721882,2.8466796875
,44.677864,2.802734375
,44.6912287,2.7685546875
,44.7266853,2.734375
,44.7325049,2.705078125
,44.7678865,2.6611328125
,44.7728534,2.6123046875
,44.8073807,2.548828125
,44.8281588,2.48046875
,44.8357498,2.412109375
,44.8511593,2.34375
,44.8848974,2.2802734375
,44.9051508,2.216796875
,44.9123813,2.1533203125
,44.9481694,2.1044921875
,44.9672673,2.0458984375
,44.9739353,1.9873046875
,45.0098335,1.93359375
,45.0411882,1.884765625
,45.0418398,1.8359375
,45.0565891,1.787109375
,45.0722194,1.7333984375
,45.1075843,1.6943359375
,45.1371229,1.66015625
,45.1375337,1.630859375
,45.1553388,1.5966796875
,45.1997282,1.5576171875
,45.20009,1.5185546875
,45.2145179,1.4794921875
,45.2330449,1.435546875
,45.268711,1.40625
,45.2732168,1.3671875
,45.2934809,1.337890625
,45.3290443,1.318359375
,45.334464,1.2939453125
,45.3695753,1.26953125
,45.4018037,1.25
,45.4022355,1.2353515625
,45.4124999,1.2109375
,45.4337779,1.1962890625
,45.4794622,1.181640625
,45.4798191,1.162109375
,45.4950322,1.1572265625
,45.529795,1.19140625
,45.5504885,1.2890625
,45.555671,1.455078125
,45.5915369,1.6552734375
,45.5922488,1.8359375
,45.6282962,2.0263671875
,45.635117,2.1826171875
,45.6552982,2.3388671875
,45.6753423,2.4609375
,45.6962735,2.578125
,45.7312799,2.67578125
,45.7365191,2.7587890625
,45.7722042,2.79296875
,45.7770531,2.7880859375
,45.7929866,2.7490234375
,45.838008,2.7099609375
,45.8386433,2.666015625
,45.8562419,2.626953125
,45.8910002,2.5732421875
,45.8957568,2.5244140625
,45.9324789,2.4609375
,45.9373415,2.3974609375
,45.9777826,2.32421875
,45.9781413,2.255859375
,45.9942873,2.1875
,46.0284287,2.1337890625
,46.0485209,2.0703125
,46.0542642,2.0166015625
,46.0886057,1.9580078125
,46.1110213,1.8994140625
,46.1159279,1.845703125
,46.1327898,1.7919921875
,46.1687006,1.7529296875
,46.189422,1.7041015625
,46.194465,1.66015625
,46.2439618,1.62109375
,46.2445229,1.5771484375
,46.2733641,1.533203125
,46.2767846,1.4892578125
,46.3206933,1.4453125
,46.3210567,1.396484375
,46.3331396,1.3623046875
,46.3720277,1.3232421875
,46.3726174,1.2841796875
,46.4085673,1.25
,46.4290862,1.220703125
,46.4349057,1.19140625
,46.4712038,1.171875
,46.4764805,1.1474609375
,46.5135585,1.123046875
,46.514094,1.0986328125
,46.5505022,1.0888671875
,46.5537353,1.0693359375
,46.5898191,1.0498046875
,46.5951288,1.0400390625
,46.6309694,1.0546875
,46.6370546,1.1328125
,46.6773711,1.2744140625
,46.6779903,1.4697265625
,46.6952437,1.6650390625
,46.7142384,1.865234375
,46.7554496,2.03125
,46.7560368,2.177734375
,46.7938231,2.2900390625
,46.7941921,2.3974609375
,46.8341348,2.470703125
,46.8540459,2.529296875
,46.8593995,2.568359375
,46.8748975,2.55859375
,46.9107102,2.5390625
,46.9150566,2.5048828125
,46.9571765,2.48046875
,46.9577558,2.451171875
,46.9778158,2.421875
,47.0131398,2.3876953125
,47.0176519,2.34375
,47.033002,2.2900390625
,47.0674236,2.2412109375
,47.0877937,2.1826171875
,47.0952929,2.1337890625
,47.1301166,2.080078125
,47.1510186,2.021484375
,47.156708,1.9677734375
,47.1899875,1.923828125
,47.2118297,1.875
,47.2202418,1.8212890625
,47.2396547,1.77734375
,47.2552083,1.7333984375
,47.2922858,1.69921875
,47.2983622,1.6650390625
,47.3178451,1.630859375
,47.3613842,1.5869140625
,47.361867,1.552734375
,47.3782004,1.513671875
,47.4235483,1.4697265625
,47.4239802,1.4306640625
,47.4343533,1.4111328125
,47.469961,1.3818359375
,47.4902876,1.3525390625
,47.4976221,1.328125
,47.5180526,1.2939453125
,47.5526715,1.2548828125
,47.5577758,1.220703125
,47.5932021,1.1865234375
,47.5936481,1.162109375
,47.6298957,1.15234375
,47.6501435,1.181640625
,47.6543457,1.279296875
,47.7027106,1.435546875
,47.7033269,1.6357421875
,47.7223685,1.826171875
,47.7393383,2.0068359375
,47.7545156,2.1533203125
,47.7901034,2.294921875
,47.7950761,2.3779296875
,47.8318642,2.490234375
,47.8598859,2.578125
,47.8604829,2.63671875
,47.8766547,2.6611328125
,47.9126467,2.6416015625
,47.9379217,2.607421875
,47.9382918,2.55859375
,47.9736639,2.5244140625
,47.9942748,2.490234375
,47.9969365,2.4609375
,48.0345271,2.421875
,48.0398012,2.373046875
,48.0576627,2.32421875
,48.0933497,2.265625
,48.0991676,2.2021484375
,48.1372582,2.1435546875
,48.1381434,2.08984375
,48.1563748,2.0263671875
,48.1923578,1.9775390625
,48.2187942,1.9287109375
,48.2193361,1.8798828125
,48.2384175,1.8310546875
,48.274427,1.787109375
,48.2792624,1.7431640625
,48.3134804,1.7041015625
,48.3342249,1.66015625
,48.3373807,1.6259765625
,48.3746598,1.5869140625
,48.3765132,1.5478515625
,48.412089,1.5087890625
,48.437172,1.46484375
,48.437761,1.4208984375
,48.4727855,1.3916015625
,48.4935689,1.3525390625
,48.5008668,1.318359375
,48.5204838,1.2744140625
,48.5378121,1.2353515625
,48.5721239,1.23046875
,48.5938925,1.220703125
,48.5985045,1.201171875
,48.6331959,1.181640625
,48.6535465,1.1669921875
,48.6590451,1.1669921875
,48.6957603,1.23046875
,48.6962909,1.3623046875
,48.7310659,1.5625
,48.7532235,1.7578125
,48.7592732,1.953125
,48.7974342,2.12890625
,48.8286735,2.2705078125
,48.8291407,2.4072265625
,48.8411305,2.5146484375
,48.8899419,2.626953125
,48.890379,2.705078125
,48.9104164,2.7685546875
,48.9196899,2.7880859375
,48.9402048,2.7734375
,48.9597305,2.7294921875
,48.9990928,2.685546875
,48.9994545,2.6416015625
,49.0347825,2.6025390625
,49.0351563,2.5537109375
,49.0722562,2.509765625
,49.0922955,2.4609375
,49.0980666,2.4072265625
,49.137571,2.34375
,49.137928,2.28515625
,49.1590124,2.216796875
,49.1950053,2.1533203125
,49.215684,2.099609375
,49.2198983,2.0458984375
,49.2569439,1.982421875
,49.2574087,1.9384765625
,49.2774355,1.904296875
,49.3138557,1.8603515625
,49.3197333,1.81640625
,49.3386741,1.77734375
,49.3872572,1.7333984375
,49.3876109,1.6943359375
,49.407833,1.650390625
,49.4223056,1.611328125
,49.4393376,1.5673828125
,49.476243,1.5380859375
,49.480934,1.50390625
,49.5162715,1.4794921875
,49.5185972,1.4453125
,49.5567,1.416015625
,49.5901562,1.38671875
,49.590523,1.357421875
,49.5971911,1.3232421875
,49.6341726,1.3037109375
,49.6391432,1.279296875
,49.6758175,1.259765625
,49.6802767,1.26953125
,49.7145774,1.3427734375
,49.7352249,1.46484375
,49.7401892,1.6455078125
,49.7734939,1.8212890625
,49.793476,1.9677734375
,49.8003503,2.1142578125
,49.8356378,2.236328125
,49.8410112,2.34375
,49.8890297,2.431640625
,49.8895656,2.5048828125
,49.8996524,2.55859375
,49.9347512,2.578125
,49.9549263,2.5634765625
,49.9618988,2.529296875
,49.9782872,2.48046875
,50.0130156,2.451171875
,50.0324227,2.412109375
,50.0418544,2.3779296875
,50.0614873,2.34375
,50.0964622,2.294921875
,50.1010931,2.2412109375
,50.1348023,2.1875
,50.1551413,2.1435546875
,50.1578063,2.0947265625
,50.1957919,2.05078125
,50.1992321,2.001953125
,50.2355938,1.9580078125
,50.24027,1.9091796875
,50.2608572,1.875
,50.296139,1.826171875
,50.316847,1.7919921875
,50.3200395,1.7529296875
,50.3568423,1.7236328125
,50.3602065,1.6845703125
,50.3966948,1.6552734375
,50.4009418,1.6162109375
,50.4210963,1.5771484375
,50.457602,1.54296875
,50.462026,1.513671875
,50.4958567,1.484375
,50.5169317,1.455078125
,50.5197827,1.435546875
,50.5397745,1.416015625
,50.5765471,1.3916015625
,50.58057,1.3671875
,50.6012371,1.3427734375
,50.6365687,1.318359375
,50.6576144,1.298828125
,50.6627373,1.2890625
,50.6998465,1.318359375
,50.7201087,1.4111328125
,50.7206872,1.54296875
,50.75348,1.71875
,50.7746045,1.865234375
,50.7818296,2.001953125
,50.8223056,2.109375
,50.8228839,2.2119140625
,50.8437154,2.2900390625
,50.885607,2.36328125
,50.8863199,2.412109375
,50.9023701,2.4462890625
,50.9382991,2.4365234375
,50.9411924,2.4169921875
,50.9760936,2.392578125
,50.9976994,2.373046875
,51.0039156,2.353515625
,51.039841,2.333984375
,51.0428094,2.3046875
,51.0594769,2.275390625
,51.0945922,2.24609375
,51.1156343,2.2119140625
,51.1220376,2.16796875
,51.1577526,2.1240234375
,51.1605437,2.080078125
,51.1952396,2.0361328125
,51.215156,1.9970703125
,51.2197977,1.9580078125
,51.256876,1.923828125
,51.2595084,1.89453125
,51.297648,1.8701171875
,51.3008638,1.8408203125
,51.3366855,1.806640625
,51.3565158,1.77734375
,51.3633463,1.7431640625
,51.3984801,1.7138671875
,51.4044445,1.6796875
,51.4470575,1.650390625
,51.4475606,1.6162109375
,51.4662942,1.591796875
,51.4802955,1.5673828125
,51.5159008,1.5380859375
,51.536777,1.50390625
,51.5439233,1.474609375
,51.5817926,1.435546875
,51.5821512,1.4111328125
,51.6318256,1.3916015625
,51.6321768,1.416015625
,51.641384,1.4990234375
,51.692725,1.6455078125
,51.6932706,1.81640625
,51.7039483,1.962890625
,51.7242589,2.1044921875
,51.7620652,2.216796875
,51.7663482,2.3193359375
,51.7793357,2.412109375
,51.8134847,2.5048828125
,51.8353933,2.578125
,51.8422169,2.626953125
,51.8789487,2.6416015625
,51.9073282,2.6220703125
,51.9077239,2.587890625
,51.9242239,2.5537109375
,51.9411119,2.51953125
,51.9867366,2.4951171875
,51.987316,2.470703125
,52.0182838,2.4267578125
,52.0227535,2.3828125
,52.0643443,2.333984375
,52.0648573,2.2802734375
,52.0843466,2.2265625
,52.104127,2.16796875
,52.1389318,2.119140625
,52.1595281,2.0751953125
,52.1625012,2.0263671875
,52.1992152,1.9873046875
,52.2023874,1.943359375
,52.2368788,1.8994140625
,52.258006,1.8603515625
,52.2656746,1.8212890625
,52.3014458,1.7822265625
,52.3039073,1.7529296875
,52.3382012,1.71875
,52.358943,1.6796875
,52.361849,1.6552734375
,52.4080887,1.6259765625
,52.4084518,1.591796875
,52.4243149,1.5576171875
,52.4711255,1.5283203125
,52.4717228,1.4990234375
,52.4857795,1.474609375
,52.5015934,1.4453125
,52.5489816,1.42578125
,52.5495509,1.4013671875
,52.5626762,1.3818359375
,52.6127307,1.357421875
,52.6130839,1.337890625
,52.6241248,1.328125
,52.6616306,1.3330078125
,52.691587,1.40625
,52.6921902,1.5380859375
,52.701799,1.7236328125
,52.7366499,1.89453125
,52.7566759,2.0556640625
,52.7621949,2.1923828125
,52.8007549,2.32421875
,52.8294836,2.431640625
,52.8300566,2.5390625
,52.8469435,2.63671875
,52.8670042,2.71484375
,52.8830039,2.7587890625
,52.922502,2.7685546875
,52.9228039,2.7490234375
,52.9572344,2.71484375
,52.9782164,2.67578125
,52.9858713,2.63671875
,53.0231604,2.6025390625
,53.0236201,2.55859375
,53.0601319,2.5048828125
,53.0806303,2.451171875
,53.0834858,2.40234375
,53.1237871,2.3388671875
,53.1243701,2.2802734375
,53.1588238,2.2216796875
,53.1786523,2.1630859375
,53.1869328,2.119140625
,53.2065914,2.080078125
,53.2230324,2.0361328125
,53.2598006,2.001953125
,53.2643856,1.962890625
,53.2988999,1.923828125
,53.3042413,1.884765625
,53.3394341,1.8505859375
,53.3594418,1.8212890625
,53.367149,1.787109375
,53.4034462,1.748046875
,53.4040951,1.708984375
,53.4400185,1.6796875
,53.4433354,1.62109375
,53.478209,1.6015625
,53.4997383,1.572265625
,53.5040542,1.54296875
,53.5408431,1.5087890625
,53.5606232,1.484375
,53.5656992,1.455078125
,53.6013188,1.435546875
,53.6216811,1.4208984375
,53.6234872,1.396484375
,53.6601881,1.3818359375
,53.6647767,1.357421875
,53.7047074,1.3330078125
,53.7050872,1.3134765625
,53.744373,1.30859375
,53.7449113,1.3427734375
,53.7835686,1.4501953125
,53.7848522,1.5966796875
,53.8184704,1.796875
,53.8401003,1.962890625
,53.8448586,2.1337890625
,53.8840294,2.265625
,53.8844163,2.3974609375
,53.9222206,2.51953125
,53.9512511,2.6220703125
,53.951621,2.7197265625
,53.9636392,2.783203125
,53.9997687,2.8271484375
,54.0052335,2.822265625
,54.041346,2.79296875
,54.0464081,2.7587890625
,54.0821377,2.734375
,54.0871691,2.7001953125
,54.1250363,2.666015625
,54.1254035,2.6220703125
,54.1748639,2.55859375
,54.1754416,2.4853515625
,54.186922,2.4462890625
,54.237131,2.3876953125
,54.2377766,2.333984375
,54.2487547,2.275390625
,54.2674373,2.2119140625
,54.3153258,2.1533203125
,54.3159208,2.1044921875
,54.3458243,2.0556640625
,54.346255,2.0068359375
,54.3659394,1.97265625
,54.4080072,1.9287109375
,54.4085479,1.8896484375
,54.4265444,1.8505859375
,54.4707126,1.8115234375
,54.4712817,1.7724609375
,54.4882262,1.7333984375
,54.5223453,1.6943359375
,54.5251927,1.66015625
,54.546199,1.630859375
,54.5817295,1.5966796875
,54.6112955,1.5673828125
,54.6117298,1.533203125
,54.6280523,1.50390625
,54.662927,1.4794921875
,54.6678987,1.455078125
,54.6845729,1.4306640625
,54.7209105,1.4208984375
,54.7254615,1.396484375
,54.7684767,1.376953125
,54.7690493,1.3525390625
,54.7985663,1.3330078125
,54.8083286,1.3232421875
,54.845996,1.3623046875
,54.8463496,1.46484375
,54.8830225,1.6259765625
,54.8890049,1.806640625
,54.9053116,1.9873046875
,54.9421146,2.16796875
,54.9482025,2.32421875
,54.967089,2.470703125
,55.002343,2.5927734375
,55.0228497,2.71484375
,55.0282071,2.8076171875
,55.06559,2.87109375
,55.0659456,2.8955078125
,55.1016054,2.8857421875
,55.1053993,2.8515625
,55.1403887,2.8173828125
,55.1601767,2.7783203125
,55.1674088,2.744140625
,55.2013299,2.7099609375
,55.2213002,2.6611328125
,55.2294234,2.6025390625
,55.246419,2.5390625
,55.2811604,2.4853515625
,55.3026504,2.4169921875
,55.3077625,2.353515625
,55.354629,2.28515625
,55.3550914,2.216796875
,55.3692413,2.1533203125
,55.4037959,2.099609375
,55.4253512,2.0458984375
,55.4259975,2.0068359375
,55.4649126,1.962890625
,55.4677917,1.923828125
,55.5116054,1.8798828125
,55.5119604,1.8408203125
,55.5313527,1.8017578125
,55.5754529,1.7578125
,55.5760202,1.71875
,55.5906529,1.6796875
,55.6385751,1.62109375
,55.639176,1.591796875
,55.6479479,1.5673828125
,55.6848881,1.533203125
,55.687758,1.4990234375
,55.7085498,1.46484375
,55.7474357,1.4306640625
,55.7687426,1.4013671875
,55.7693485,1.376953125
,55.7858521,1.3525390625
,55.8211478,1.337890625
,55.8416036,1.328125
,55.847523,1.3037109375
,55.8852619,1.2841796875
,55.8886254,1.2646484375
,55.9343594,1.259765625
,55.9349628,1.2939453125
,55.964976,1.40625
,55.9653781,1.5625
,56.0001109,1.767578125
,56.0205617,1.943359375
,56.0281518,2.1240234375
,56.0734678,2.265625
,56.074047,2.4072265625
,56.1030945,2.51953125
,56.1105012,2.63671875
,56.1259216,2.7197265625
,56.1604869,2.802734375
,56.180894,2.8271484375
,56.1881964,2.8125
,56.2239708,2.7783203125
,56.2297722,2.7392578125
,56.2506823,2.7001953125
,56.285227,2.666015625
,56.2895463,2.6220703125
,56.3234609,2.578125
,56.3451683,2.5244140625
,56.34576,2.4658203125
,56.3809071,2.4072265625
,56.4016149,2.3486328125
,56.4088652,2.28515625
,56.4432608,2.2216796875
,56.4650378,2.1630859375
,56.4718704,2.1142578125
,56.5224595,2.0556640625
,56.5230327,2.0068359375
,56.5282253,1.9482421875
,56.5627922,1.9091796875
,56.5684757,1.8701171875
,56.6026782,1.826171875
,56.6251156,1.7822265625
,56.6318321,1.7431640625
,56.6783524,1.69921875
,56.6787378,1.66015625
,56.6875883,1.62109375
,56.7267142,1.5966796875
,56.7272518,1.5576171875
,56.7640641,1.5234375
,56.7689843,1.484375
,56.8049912,1.455078125
,56.8100068,1.4208984375
,56.8446991,1.3916015625
,56.8661456,1.3623046875
,56.866624,1.337890625
,56.911119,1.318359375
,56.911611,1.298828125
,56.9314934,1.2890625
,56.9510649,1.279296875
,56.9897859,1.298828125
,56.9902877,1.38671875
,57.0261169,1.54296875
,57.0464047,1.7138671875
,57.0532454,1.8994140625
,57.0699431,2.05078125
,57.1151782,2.2021484375
,57.115535,2.333984375
,57.1317769,2.431640625
,57.1764491,2.51953125
,57.1768133,2.5927734375
,57.1912408,2.646484375
,57.2256935,2.646484375
,57.2460977,2.626953125
,57.2467674,2.587890625
,57.2861044,2.568359375
,57.3068859,2.5390625
,57.3119889,2.51953125
,57.3471518,2.490234375
,57.3494986,2.4560546875
,57.3955985,2.412109375
,57.3960318,2.36328125
,57.415846,2.314453125
,57.4296377,2.275390625
,57.449183,2.2265625
,57.485129,2.1728515625
,57.49057,2.12890625
,57.5267547,2.080078125
,57.5323418,2.03125
,57.5696441,1.9775390625
,57.572368,1.9287109375
,57.5880812,1.875
,57.6297452,1.8359375
,57.6303146,1.796875
,57.6663025,1.7578125
,57.6719685,1.7236328125
,57.7106846,1.6845703125
,57.7112771,1.6455078125
,57.7476386,1.6162109375
,57.7524683,1.58203125
,57.8015957,1.5380859375
,57.8021752,1.4990234375
,57.8120675,1.4697265625
,57.8303308,1.4453125
,57.8658563,1.416015625
,57.8943725,1.3916015625
,57.8947416,1.357421875
,57.9113396,1.328125
,57.9450107,1.3037109375
,57.9661382,1.30859375
,57.9696101,1.3427734375
,58.0202096,1.46484375
,58.0205927,1.6357421875
,58.0314087,1.8359375
,58.0664906,2.01171875
,58.0891935,2.1826171875
,58.0938772,2.3291015625
,58.1430903,2.44140625
,58.143509,2.5634765625
,58.1496558,2.666015625
,58.1857619,2.7685546875
,58.1914582,2.8271484375
,58.2108591,2.8515625
,58.2455969,2.8369140625
,58.2664596,2.8076171875
,58.2744641,2.7685546875
,58.2932695,2.734375
,58.310695,2.7001953125
,58.3595087,2.6708984375
,58.3601128,2.6318359375
,58.3709064,2.5830078125
,58.4059831,2.5244140625
,58.4269313,2.4560546875
,58.4324876,2.3876953125
,58.4678373,2.3193359375
,58.4736081,2.255859375
,58.5173438,2.1875
,58.5179199,2.138671875
,58.5479311,2.08984375
,58.5483587,2.0556640625
,58.5934588,2.0166015625
,58.5938179,1.97265625
,58.6152601,1.923828125
,58.6345013,1.8798828125
,58.6694582,1.8408203125
,58.6750083,1.8017578125
,58.6894822,1.7578125
,58.7257719,1.7236328125
,58.7306784,1.689453125
,58.7687714,1.6455078125
,58.7717642,1.6015625
,58.8083723,1.552734375
,58.813225,1.513671875
,58.8490358,1.4794921875
,58.8553493,1.455078125
,58.8723084,1.4208984375
,58.8907011,1.4013671875
,58.9257853,1.38671875
,58.9466164,1.3671875
,58.9525372,1.34765625
,58.9957807,1.3330078125
,58.9961365,1.328125
,59.0141078,1.3671875
,59.0340298,1.4892578125
,59.0514305,1.6552734375
,59.0882158,1.8603515625
,59.0929338,2.041015625
,59.1282523,2.2119140625
,59.1325808,2.3583984375
,59.169148,2.4951171875
,59.1733017,2.6171875
,59.2087116,2.734375
,59.2293117,2.8125
,59.235301,2.8662109375
,59.2513081,2.8662109375
,59.2862181,2.8369140625
,59.3066367,2.79296875
,59.3144466,2.7392578125
,59.3547612,2.6904296875
,59.3553461,2.646484375
,59.3917203,2.59765625
,59.3964445,2.5439453125
,59.4160106,2.48046875
,59.4332484,2.421875
,59.4515677,2.36328125
,59.4932054,2.294921875
,59.493622,2.236328125
,59.5147883,2.1728515625
,59.5340034,2.119140625
,59.5735022,2.0654296875
,59.5948375,2.01171875
,59.5952738,1.953125
,59.6119467,1.904296875
,59.6483156,1.845703125
,59.6685438,1.796875
,59.6738675,1.748046875
,59.7089383,1.69921875
,59.7313076,1.66015625
,59.7360657,1.6259765625
,59.772032,1.5869140625
,59.77252,1.54296875
,59.8083643,1.50390625
,59.8137016,1.4404296875
,59.8319744,1.416015625
,59.8665355,1.38671875
,59.8890032,1.3623046875
,59.8963882,1.3330078125
,59.9160592,1.30859375
,59.9495312,1.2841796875
,59.971112,1.259765625
,59.9718089,1.2255859375
,60.0080741,1.2158203125
,60.0285797,1.2060546875
,60.0334438,1.2060546875
,60.0686695,1.2646484375
,60.0739292,1.3916015625
,60.1100812,1.5771484375
,60.1352396,1.7626953125
,60.1355984,1.943359375
,60.1529883,2.080078125
,60.1879259,2.216796875
,60.1941553,2.3193359375
,60.230986,2.4169921875
,60.2356001,2.490234375
,60.2745155,2.55859375
,60.2750944,2.587890625
,60.3111406,2.578125
,60.3163565,2.548828125
,60.3335189,2.5146484375
,60.3673559,2.490234375
,60.386846,2.4658203125
,60.3950223,2.44140625
,60.4326136,2.40234375
,60.4331923,2.36328125
,60.4698097,2.314453125
,60.493761,2.2607421875
,60.4984474,2.2021484375
,60.5164743,2.138671875
,60.5331894,2.0751953125
,60.5692889,2.041015625
,60.5901545,1.9970703125
,60.5954395,1.9482421875
,60.63175,1.89453125
,60.6511531,1.85546875
,60.6554898,1.806640625
,60.6955756,1.7626953125
,60.7252595,1.71875
,60.7259497,1.669921875
,60.7345642,1.6259765625
,60.7715077,1.58203125
,60.7760251,1.54296875
,60.8189687,1.494140625
,60.8194901,1.455078125
,60.8544515,1.416015625
,60.8550369,1.3818359375
,60.8900091,1.3525390625
,60.8956067,1.337890625
,60.9283928,1.3134765625
,60.9491293,1.2939453125
,60.9542136,1.26953125
,60.9908236,1.240234375
,61.011486,1.2158203125
,61.0168635,1.1962890625
,61.0678593,1.1962890625
,61.0684528,1.23046875
,61.0737177,1.3525390625
,61.1087766,1.5234375
,61.129678,1.7333984375
,61.1367181,1.9140625
,61.1736311,2.099609375
,61.178387,2.24609375
,61.2245689,2.3876953125
,61.2252144,2.5048828125
,61.2382446,2.6025390625
,61.2559352,2.67578125
,61.275384,2.763671875
,61.3092651,2.79296875
,61.3300453,2.7734375
,61.3375176,2.7392578125
,61.3801988,2.6904296875
,61.3806505,2.6513671875
,61.3992817,2.6025390625
,61.4420002,2.5537109375
,61.4425927,2.4951171875
,61.4564646,2.44140625
,61.4773184,2.3828125
,61.5188313,2.314453125
,61.5191846,2.24609375
,61.5370473,2.1875
,61.5732606,2.12890625
,61.5782778,2.0703125
,61.6154087,2.01171875
,61.6159944,1.9482421875
,61.6523436,1.89453125
,61.6547208,1.845703125
,61.6900333,1.796875
,61.7097962,1.748046875
,61.7164411,1.7041015625
,61.753073,1.66015625
,61.7570109,1.62109375
,61.7745756,1.572265625
,61.80992,1.5478515625
,61.8153137,1.50390625
,61.8498952,1.46484375
,61.8710885,1.4208984375
,61.876337,1.38671875
,61.9126148,1.3525390625
,61.9182371,1.328125
,61.9554795,1.30859375
,61.9602545,1.2841796875
,61.9940335,1.2548828125
,61.9946161,1.2353515625
,62.0350809,1.2158203125
,62.055103,1.19140625
,62.058516100000006,1.171875
,62.0773494,1.1572265625
,62.1137969,1.142578125
,62.133922999999996,1.1572265625
,62.1390318,1.2353515625
,62.155705,1.3916015625
,62.1918285,1.6162109375
,62.2224226,1.8359375
,62.22300370000001,2.05078125
,62.23867009999999,2.24609375
,62.2731153,2.3974609375
,62.279960900000006,2.548828125
,62.314775499999996,2.6806640625
,62.319728999999995,2.8076171875
,62.334857,2.8857421875
,62.3709793,2.9443359375
,62.376519900000005,2.9443359375
,62.412807,2.91015625
,62.417268899999996,2.8564453125
,62.4533838,2.802734375
,62.458704299999994,2.744140625
,62.505355800000004,2.6953125
,62.5058245,2.6416015625
,62.515772299999995,2.587890625
,62.537358600000005,2.51953125
,62.5832216,2.4560546875
,62.5835757,2.3828125
,62.5995946,2.3046875
,62.644120099999995,2.2265625
,62.644475299999996,2.1484375
,62.66039000000001,2.0751953125
,62.7081012,2.0068359375
,62.708662200000006,1.9482421875
,62.717264799999995,1.884765625
,62.7522831,1.8359375
,62.757136200000005,1.787109375
,62.80141450000001,1.73828125
,62.8020044,1.6943359375
,62.8180981,1.6552734375
,62.8571498,1.6064453125
,62.861690800000005,1.5576171875
,62.897321500000004,1.513671875
,62.897695999999996,1.46484375
,62.91779,1.42578125
,62.9372029,1.38671875
,62.972414099999995,1.3525390625
,62.993301200000005,1.3134765625
,62.9992843,1.2841796875
,63.037732399999996,1.25
,63.038091800000004,1.23046875
,63.08464480000001,1.2060546875
,63.085033300000006,1.1962890625
,63.096857299999996,1.1767578125
,63.132442999999995,1.1669921875
,63.1536385,1.1474609375
,63.158724899999996,1.123046875
,63.1796147,1.0986328125
,63.213890500000005,1.083984375
,63.2343822,1.0693359375
,63.237562,1.0888671875
,63.2719043,1.1865234375
,63.279065200000005,1.357421875
,63.298301300000006,1.58203125
,63.334433000000004,1.8017578125
,63.363646900000006,2.0166015625
,63.364378599999995,2.1875
,63.381273300000004,2.3486328125
,63.41556249999999,2.48046875
,63.421324999999996,2.6123046875
,63.438912900000005,2.71484375
,63.474091599999994,2.802734375
,63.4808556,2.8369140625
,63.5013148,2.822265625
,63.518820000000005,2.7734375
,63.553926399999995,2.7099609375
,63.5745067,2.646484375
,63.5802716,2.59765625
,63.614547200000004,2.548828125
,63.63602040000001,2.4951171875
,63.636370799999995,2.4462890625
,63.673993100000004,2.3828125
,63.694164,2.314453125
,63.699107299999994,2.2412109375
,63.73813869999999,2.1630859375
,63.7411348,2.0947265625
,63.7783489,2.0263671875
,63.77904169999999,1.9580078125
,63.7989843,1.904296875
,63.8178422,1.845703125
,63.85166769999999,1.796875
,63.872208,1.748046875
,63.879570799999996,1.69921875
,63.900667299999995,1.650390625
,63.9347544,1.6015625
,63.9558224,1.552734375
,63.957938,1.50390625
,63.9939768,1.4697265625
,63.996760300000005,1.42578125
,64.0343246,1.3818359375
,64.0549651,1.337890625
,64.0599362,1.3037109375
,64.0814838,1.2646484375
,64.1167234,1.25
,64.1216423,1.2255859375
,64.1586519,1.1962890625
,64.1634602,1.1767578125
,64.1785275,1.15234375
,64.2001009,1.142578125
,64.2358073,1.123046875
,64.2409143,1.103515625
,64.2780287,1.083984375
,64.2801098,1.0693359375
,64.3164679,1.0546875
,64.3215672,1.07421875
,64.3394,1.1572265625
,64.3749696,1.337890625
,64.3806633,1.5478515625
,64.4001675,1.7822265625
,64.440417,1.97265625
,64.4703349,2.1435546875
,64.4707194,2.275390625
,64.4821328,2.3974609375
,64.5177257,2.5
,64.5183556,2.5732421875
,64.5640053,2.6318359375
,64.5645818,2.646484375
,64.5795104,2.6171875
,64.6161151,2.578125
,64.6210538,2.5390625
,64.6591915,2.4951171875
,64.6640306,2.4560546875
,64.6794433,2.4169921875
,64.7169288,2.3779296875
,64.7201117,2.32421875
,64.7563787,2.265625
,64.7592147,2.2021484375
,64.7942088,2.1435546875
,64.8143338,2.08984375
,64.8225986,2.0263671875
,64.857875,1.9677734375
,64.8638489,1.9140625
,64.8990993,1.865234375
,64.8996836,1.8115234375
,64.9343997,1.7724609375
,64.9664838,1.7333984375
,64.9673956,1.7041015625
,64.981896,1.6748046875
,65.0292053,1.640625
,65.0299451,1.6015625
,65.058483,1.5625
,65.0591659,1.5185546875
,65.0915924,1.484375
,65.1195842,1.4453125
,65.120401,1.4111328125
,65.1425139,1.3818359375
,65.1844233,1.34765625
,65.1851842,1.328125
,65.20292,1.298828125
,65.2457902,1.279296875
,65.2466125,1.25
,65.2753451,1.2353515625
,65.2808013,1.2109375
,65.3184939,1.19140625
,65.3226181,1.1767578125
,65.3678201,1.1865234375
,65.3684452,1.2744140625
,65.3823636,1.455078125
,65.4006421,1.669921875
,65.4453155,1.9091796875
,65.4459289,2.12890625
,65.4609029,2.275390625
,65.5089347,2.4462890625
,65.5095912,2.568359375
,65.5210446,2.6904296875
,65.5560814,2.7734375
,65.585226,2.8271484375
,65.5856054,2.841796875
,65.6326117,2.8125
,65.6330899,2.7587890625
,65.639222,2.7099609375
,65.6738908,2.6611328125
,65.6952933,2.6123046875
,65.7038693,2.55859375
,65.7234742,2.5048828125
,65.7704661,2.44140625
,65.770954,2.3779296875
,65.7858901,2.3095703125
,65.802098,2.236328125
,65.8215033,2.1630859375
,65.8594011,2.1044921875
,65.8597489,2.041015625
,65.8951398,1.9775390625
,65.9152829,1.9189453125
,65.9230926,1.85546875
,65.9574108,1.796875
,65.9776068,1.7431640625
,65.9824338,1.7041015625
,66.0154298,1.6650390625
,66.0373314,1.6259765625
,66.042296,1.5869140625
,66.0816521,1.5478515625
,66.0822966,1.5087890625
,66.1031201,1.46484375
,66.1433019,1.4208984375
,66.143761,1.3818359375
,66.1651839,1.3232421875
,66.1813448,1.26953125
,66.2216874,1.259765625
,66.2220466,1.240234375
,66.259915,1.220703125
,66.2646294,1.2060546875
,66.3020272,1.1962890625
,66.3024065,1.1767578125
,66.3476476,1.162109375
,66.3481133,1.142578125
,66.3629133,1.1279296875
,66.4100122,1.11328125
,66.4104089,1.123046875
,66.4239978,1.1865234375
,66.4602279,1.328125
,66.4657191,1.552734375
,66.4860566,1.7919921875
,66.5225711,2.03125
,66.5229731,2.2412109375
,66.565384,2.4462890625
,66.566326,2.6025390625
,66.5845101,2.7587890625
,66.6278213,2.880859375
,66.6282541,2.9736328125
,66.6463647,3.02734375
,66.6899732,3.0419921875
,66.6904549,3.0029296875
,66.701535,2.939453125
,66.7366732,2.87109375
,66.7577402,2.802734375
,66.7624849,2.744140625
,66.8149089,2.685546875
,66.8154771,2.6220703125
,66.8246424,2.548828125
,66.8578925,2.4755859375
,66.8798439,2.40234375
,66.8866105,2.2998046875
,66.9024596,2.20703125
,66.9524316,2.1484375
,66.9528371,2.0849609375
,66.9731094,2.021484375
,66.9866333,1.9580078125
,67.0034032,1.8994140625
,67.0417893,1.8359375
,67.0462608,1.7919921875
,67.0672608,1.7431640625
,67.0850861,1.689453125
,67.1036552,1.650390625
,67.1539018,1.6162109375
,67.1544543,1.572265625
,67.1646897,1.533203125
,67.2021392,1.484375
,67.2052748,1.4404296875
,67.24909,1.3916015625
,67.2496021,1.3525390625
,67.2786448,1.3232421875
,67.284677,1.2939453125
,67.3209653,1.2744140625
,67.3235635,1.2451171875
,67.3581384,1.2158203125
,67.3794157,1.201171875
,67.3846136,1.181640625
,67.4311321,1.1572265625
,67.4316175,1.1328125
,67.4516874,1.11328125
,67.4619685,1.0888671875
,67.4964966,1.0986328125
,67.5165585,1.171875
,67.5247748,1.34765625
,67.5605781,1.572265625
,67.5666712,1.8310546875
,67.5882158,2.0556640625
,67.6080994,2.2509765625
,67.6230631,2.40234375
,67.6615441,2.5732421875
,67.6619886,2.7099609375
,67.6990026,2.841796875
,67.7291273,2.9345703125
,67.7296865,2.96875
,67.7466678,2.94921875
,67.7927295,2.8955078125
,67.7931424,2.822265625
,67.8053441,2.7490234375
,67.8258648,2.6904296875
,67.8446241,2.63671875
,67.8817816,2.5830078125
,67.8858737,2.51953125
,67.9209672,2.44140625
,67.9411809,2.36328125
,67.9456155,2.2900390625
,67.9624056,2.20703125
,68.0066541,2.138671875
,68.0077619,2.0751953125
,68.037383,2.0068359375
,68.0449594,1.9482421875
,68.083279,1.884765625
,68.0876451,1.8359375
,68.1303076,1.77734375
,68.1307591,1.728515625
,68.1422399,1.669921875
,68.1774912,1.6357421875
,68.1978329,1.591796875
,68.2064772,1.552734375
,68.2412364,1.5087890625
,68.245564,1.4697265625
,68.2881296,1.4306640625
,68.2887544,1.38671875
,68.3088257,1.337890625
,68.3511976,1.279296875
,68.3516193,1.25
,68.3647657,1.220703125
,68.4127261,1.19140625
,68.413202,1.1669921875
,68.4248493,1.142578125
,68.4606605,1.1181640625
,68.480577,1.0986328125
,68.4876468,1.07421875
,68.5211734,1.0498046875
,68.5420352,1.0400390625
,68.5423661,1.07421875
,68.5820794,1.1865234375
,68.6033692,1.396484375
,68.6057019,1.6357421875
,68.6401395,1.8896484375
,68.6606384,2.1142578125
,68.6673119,2.28515625
,68.7025432,2.4365234375
,68.7232312,2.5634765625
,68.7236769,2.685546875
,68.7563246,2.7685546875
,68.778305,2.822265625
,68.7869811,2.8173828125
,68.834546,2.7783203125
,68.8351647,2.7197265625
,68.8480334,2.6611328125
,68.8656105,2.6025390625
,68.9028693,2.55859375
,68.9034259,2.5048828125
,68.9411868,2.4462890625
,68.9450597,2.3828125
,68.9907074,2.32421875
,68.991214,2.2509765625
,69.0215846,2.1826171875
,69.0282024,2.1142578125
,69.0608519,2.05078125
,69.0828886,1.982421875
,69.0833945,1.9189453125
,69.1183152,1.8701171875
,69.1437941,1.8115234375
,69.1475244,1.7578125
,69.185306,1.708984375
,69.1875604,1.6650390625
,69.2208402,1.6259765625
,69.2426708,1.591796875
,69.2430585,1.552734375
,69.2853234,1.513671875
,69.3149188,1.474609375
,69.3152506,1.4306640625
,69.3271134,1.3916015625
,69.3758169,1.3525390625
,69.3761452,1.318359375
,69.3891878,1.2841796875
,69.4247714,1.2548828125
,69.4250906,1.220703125
,69.4701678,1.2060546875
,69.470505,1.181640625
,69.489893,1.162109375
,69.5071191,1.1376953125
,69.5470973,1.1181640625
,69.5474619,1.1083984375
,69.5680423,1.1474609375
,69.586926,1.25
,69.6217652,1.4599609375
,69.6249245,1.7041015625
,69.6607628,1.9189453125
,69.6815073,2.1142578125
,69.687174,2.265625
,69.7225985,2.392578125
,69.7431428,2.4951171875
,69.7471006,2.5927734375
,69.7805839,2.65625
,69.8014384,2.6806640625
,69.8064159,2.6611328125
,69.8416769,2.6220703125
,69.8463186,2.568359375
,69.8817865,2.5244140625
,69.9046586,2.48046875
,69.9072137,2.44140625
,69.9507293,2.40234375
,69.9511048,2.3486328125
,69.9710776,2.2900390625
,69.9861052,2.2265625
,70.0213041,2.16796875
,70.0413549,2.1142578125
,70.0483465,2.0556640625
,70.0917472,1.9970703125
,70.0924184,1.943359375
,70.1098296,1.8896484375
,70.1460791,1.8359375
,70.1464526,1.787109375
,70.1815474,1.748046875
,70.2146483,1.7041015625
,70.2150124,1.6650390625
,70.2296605,1.62109375
,70.265484,1.5869140625
,70.2711527,1.5478515625
,70.2905541,1.50390625
,70.3252338,1.46484375
,70.325594,1.42578125
,70.3451866,1.396484375
,70.3812262,1.357421875
,70.4038085,1.3330078125
,70.4081755,1.3037109375
,70.4456421,1.2744140625
,70.4479806,1.2451171875
,70.4930644,1.220703125
,70.4935996,1.1962890625
,70.514639,1.1865234375
,70.5290633,1.171875
,70.5715242,1.23046875
,70.5718799,1.376953125
,70.5890971,1.5771484375
,70.6339347,1.8310546875
,70.6342882,2.05078125
,70.6561686,2.2607421875
,70.6712669,2.4267578125
,70.7060535,2.5732421875
,70.7064165,2.7001953125
,70.7450949,2.8173828125
,70.7497333,2.900390625
,70.7896222,2.94921875
,70.7902121,2.939453125
,70.8256171,2.890625
,70.8528215,2.822265625
,70.8534195,2.75390625
,70.8666929,2.6904296875
,70.9003894,2.6513671875
,70.9205449,2.59765625
,70.929591,2.5390625
,70.9647416,2.470703125
,70.9924438,2.392578125
,70.9929853,2.3095703125
,71.0114447,2.2265625
,71.0540829,2.1435546875
,71.0550544,2.0751953125
,71.0672508,2.0166015625
,71.1013498,1.953125
,71.1207194,1.8994140625
,71.129324,1.8505859375
,71.165937,1.8017578125
,71.1710833,1.7529296875
,71.2096945,1.708984375
,71.2101777,1.6650390625
,71.2566196,1.6259765625
,71.2572123,1.58203125
,71.285615,1.533203125
,71.2901173,1.4990234375
,71.3258637,1.455078125
,71.3286589,1.4111328125
,71.3785462,1.3671875
,71.3789779,1.3330078125
,71.4005797,1.2939453125
,71.4129709,1.26953125
,71.4283761,1.2451171875
,71.4741967,1.23046875
,71.474613,1.2109375
,71.490375,1.1865234375
,71.5349649,1.162109375
,71.5353807,1.1376953125
,71.5508601,1.1279296875
,71.5862805,1.1474609375
,71.6071516,1.2548828125
,71.6074521,1.4453125
,71.6450358,1.708984375
,71.6722331,1.962890625
,71.672757,2.20703125
,71.6921881,2.40234375
,71.710766,2.5830078125
,71.7483257,2.734375
,71.7670009,2.8759765625
,71.7673011,2.9833984375
,71.800355,3.0712890625
,71.821472,3.10546875
,71.8297189,3.0810546875
,71.8764403,3.017578125
,71.8767841,2.9345703125
,71.8964001,2.861328125
,71.9118591,2.7880859375
,71.9465881,2.724609375
,71.9514378,2.65625
,71.9981315,2.5830078125
,71.9986427,2.5048828125
,72.0184431,2.4267578125
,72.0311013,2.34375
,72.0659248,2.265625
,72.071047,2.1826171875
,72.1055188,2.119140625
,72.1275646,2.0458984375
,72.1337365,1.9775390625
,72.1493981,1.9140625
,72.1845273,1.865234375
,72.2043542,1.8115234375
,72.2102807,1.7626953125
,72.2437292,1.7138671875
,72.2774304,1.6650390625
,72.2779601,1.62109375
,72.2934037,1.572265625
,72.3277875,1.5234375
,72.328306,1.474609375
,72.3711006,1.435546875
,72.3715419,1.396484375
,72.4018202,1.3525390625
,72.4125099,1.3134765625
,72.4488093,1.279296875
,72.453487,1.2451171875
,72.4900726,1.220703125
,72.4952598,1.1962890625
,72.5138029,1.1767578125
,72.5352184,1.142578125
,72.5521427,1.11328125
,72.5872051,1.1181640625
,72.5914538,1.103515625
,72.6304356,1.09375
,72.6309623,1.07421875
,72.651099,1.07421875
,72.6834626,1.0986328125
,72.7080617,1.2158203125
,72.7084415,1.4111328125
,72.7456369,1.6796875
,72.7654069,1.93359375
,72.7715193,2.177734375
,72.805706,2.373046875
,72.8282662,2.5732421875
,72.8335576,2.7490234375
,72.8535336,2.8857421875
,72.8884561,3.0029296875
,72.9104929,3.076171875
,72.9110161,3.115234375
,72.9456949,3.0859375
,72.9657245,3.02734375
,72.9716335,2.9541015625
,73.0068321,2.880859375
,73.0267912,2.8125
,73.0347166,2.7490234375
,73.0492939,2.6806640625
,73.0974416,2.6171875
,73.098109,2.5439453125
,73.1283793,2.4658203125
,73.1325972,2.3779296875
,73.171818,2.28515625
,73.1722089,2.197265625
,73.2017597,2.119140625
,73.2139,2.0458984375
,73.2348136,1.9677734375
,73.2561384,1.8798828125
,73.2710994,1.806640625
,73.3065791,1.767578125
,73.3265332,1.7138671875
,73.3316077,1.669921875
,73.3741954,1.62109375
,73.3745706,1.572265625
,73.3930047,1.5234375
,73.4263618,1.4697265625
,73.4488797,1.4111328125
,73.4494112,1.376953125
,73.4817021,1.328125
,73.5105487,1.2890625
,73.512556,1.2451171875
,73.5564886,1.2109375
,73.5568041,1.1767578125
,73.5771898,1.142578125
,73.5947497,1.1181640625
,73.6110574,1.09375
,73.6483408,1.07421875
,73.6504488,1.0546875
,73.6883505,1.03515625
,73.6936268,1.015625
,73.7150556,0.99609375
,73.7359501,0.9814453125
,73.7544432,0.9765625
,73.7903864,1.03515625
,73.7907327,1.1669921875
,73.8286145,1.40625
,73.8336435,1.66015625
,73.8690451,1.93359375
,73.8750573,2.1435546875
,73.9110906,2.34375
,73.9153286,2.4951171875
,73.949191,2.63671875
,73.9708849,2.744140625
,73.97508,2.8173828125
,73.9918298,2.87109375
,74.0418071,2.8857421875
,74.0424267,2.8515625
,74.0603789,2.7978515625
,74.0745509,2.7392578125
,74.1182013,2.6953125
,74.119024,2.6513671875
,74.1479132,2.59765625
,74.1554665,2.5390625
,74.171737,2.4755859375
,74.2072438,2.4072265625
,74.2287563,2.333984375
,74.2338087,2.255859375
,74.2741704,2.177734375
,74.2746975,2.1044921875
,74.3119039,2.0361328125
,74.3172898,1.97265625
,74.3334014,1.9140625
,74.3798708,1.8701171875
,74.3802329,1.8212890625
,74.3930764,1.7724609375
,74.4283854,1.728515625
,74.4500478,1.6796875
,74.456398,1.640625
,74.5045522,1.5966796875
,74.5049432,1.5576171875
,74.5132419,1.5087890625
,74.547352,1.474609375
,74.5513993,1.4306640625
,74.5848372,1.3916015625
,74.6136809,1.357421875
,74.6141512,1.3330078125
,74.6499258,1.3037109375
,74.6547093,1.2841796875
,74.6755399,1.2548828125
,74.7122761,1.2158203125
,74.7322997,1.1962890625
,74.7328429,1.19140625
,74.7695157,1.181640625
,74.7748942,1.1669921875
,74.8118209,1.1572265625
,74.8152908,1.162109375
,74.8520396,1.2451171875
,74.8574549,1.416015625
,74.8950833,1.6552734375
,74.8954228,1.884765625
,74.9131379,2.109375
,74.9506708,2.2802734375
,74.9549613,2.4267578125
,75.0055143,2.5341796875
,75.0058757,2.6416015625
,75.0169283,2.71484375
,75.0517002,2.7587890625
,75.0579429,2.75390625
,75.0730973,2.7099609375
,75.1142983,2.666015625
,75.1146125,2.6123046875
,75.1589768,2.5732421875
,75.1596909,2.529296875
,75.1766173,2.4853515625
,75.2191265,2.4365234375
,75.2196487,2.3779296875
,75.2396416,2.3193359375
,75.2541478,2.2607421875
,75.2966945,2.1875
,75.297139,2.1240234375
,75.3172467,2.060546875
,75.3566127,2.001953125
,75.3570477,1.943359375
,75.3901813,1.89453125
,75.4108996,1.8505859375
,75.4183069,1.796875
,75.4558362,1.7529296875
,75.4564156,1.7041015625
,75.4755529,1.669921875
,75.5126316,1.630859375
,75.5177721,1.591796875
,75.5381532,1.5478515625
,75.5569275,1.50390625
,75.5967925,1.4599609375
,75.5973209,1.416015625
,75.6138175,1.376953125
,75.6514314,1.3525390625
,75.6569974,1.3232421875
,75.6778241,1.298828125
,75.7139777,1.2744140625
,75.7142898,1.2451171875
,75.7520747,1.220703125
,75.7720309,1.19140625
,75.7786519,1.162109375
,75.795457,1.1328125
,75.8297828,1.123046875
,75.8349422,1.123046875
,75.8755751,1.201171875
,75.8760969,1.3720703125
,75.896182,1.6259765625
,75.9311374,1.8701171875
,75.952601,2.1044921875
,75.9530233,2.2900390625
,75.997656,2.4658203125
,75.997978,2.59765625
,76.0201077,2.7294921875
,76.0361543,2.83203125
,76.0758361,2.8955078125
,76.0763596,2.9248046875
,76.0963965,2.8955078125
,76.1389906,2.83203125
,76.1395017,2.75390625
,76.15946,2.6806640625
,76.1752569,2.6220703125
,76.2113758,2.5732421875
,76.2312159,2.5146484375
,76.2363022,2.4560546875
,76.2800073,2.392578125
,76.280572,2.32421875
,76.3113303,2.24609375
,76.3197319,2.1630859375
,76.3535242,2.0947265625
,76.3552828,2.0263671875
,76.3896833,1.962890625
,76.4191001,1.8994140625
,76.4196899,1.845703125
,76.4378537,1.7822265625
,76.4818655,1.728515625
,76.4823793,1.6748046875
,76.5141519,1.6259765625
,76.5145378,1.572265625
,76.5504718,1.533203125
,76.5781318,1.4892578125
,76.5785796,1.4453125
,76.6108981,1.40625
,76.6311253,1.3623046875
,76.6374232,1.3232421875
,76.6860563,1.2939453125
,76.6865796,1.2646484375
,76.7172586,1.23046875
,76.7176586,1.2109375
,76.7519012,1.19140625
,76.7784237,1.171875
,76.7789503,1.142578125
,76.8268475,1.123046875
,76.8271967,1.09375
,76.8578474,1.0693359375
,76.8582246,1.0498046875
,76.8922333,1.0546875
,76.9206331,1.123046875
,76.9210485,1.30859375
,76.9379179,1.5478515625
,76.9730582,1.8310546875
,76.9928678,2.08984375
,76.9976767,2.294921875
,77.0354744,2.48046875
,77.0407896,2.63671875
,77.0621175,2.7880859375
,77.0781055,2.8955078125
,77.0988007,2.9931640625
,77.117674,3.0322265625
,77.1558034,3.0322265625
,77.1561249,2.978515625
,77.1995431,2.9052734375
,77.2001558,2.8271484375
,77.220124,2.7587890625
,77.2360164,2.6904296875
,77.2732176,2.6318359375
,77.2762012,2.5634765625
,77.3110564,2.5
,77.3396099,2.4169921875
,77.3399273,2.3388671875
,77.3584037,2.2509765625
,77.3923954,2.1630859375
,77.4124852,2.08984375
,77.4143224,2.021484375
,77.4501655,1.9580078125
,77.47027,1.89453125
,77.4783697,1.8359375
,77.5126484,1.77734375
,77.5340184,1.7236328125
,77.5380517,1.6748046875
,77.572328,1.630859375
,77.6036972,1.5869140625
,77.604233,1.5380859375
,77.6374689,1.4892578125
,77.6379565,1.435546875
,77.6730332,1.396484375
,77.69815,1.357421875
,77.6986624,1.3232421875
,77.7325905,1.2939453125
,77.7615657,1.2646484375
,77.7619907,1.2353515625
,77.7819761,1.2158203125
,77.7970691,1.19140625
,77.8402234,1.1865234375
,77.8407561,1.162109375
,77.8751641,1.1474609375
,77.8797739,1.1181640625
,77.9196259,1.09375
,77.9201052,1.07421875
,77.9651946,1.0888671875
,77.9655298,1.1669921875
,77.9781544,1.3330078125
,78.0260958,1.58203125
,78.0264077,1.8408203125
,78.039034,2.08984375
,78.0887044,2.2998046875
,78.0892333,2.4853515625
,78.1005476,2.63671875
,78.1366028,2.7783203125
,78.1369354,2.880859375
,78.1655505,2.96875
,78.1765525,2.9833984375
,78.209753,2.9833984375
,78.2297289,2.939453125
,78.2407238,2.87109375
,78.2593812,2.8076171875
,78.3070193,2.7490234375
,78.3075326,2.6953125
,78.3277744,2.6318359375
,78.3429826,2.5634765625
,78.3586028,2.4853515625
,78.4017251,2.412109375
,78.4021282,2.3291015625
,78.4329268,2.2509765625
,78.4393275,2.16796875
,78.4783258,2.099609375
,78.4983681,2.021484375
,78.5001776,1.9580078125
,78.5176541,1.89453125
,78.5531768,1.8408203125
,78.5746323,1.7919921875
,78.5788528,1.7431640625
,78.6003061,1.689453125
,78.6365488,1.6357421875
,78.6425243,1.5869140625
,78.661192,1.533203125
,78.6972105,1.484375
,78.6975136,1.4404296875
,78.7177943,1.4013671875
,78.7509568,1.3623046875
,78.7704637,1.3232421875
,78.7814969,1.2890625
,78.8156939,1.25
,78.8218347,1.220703125
,78.8653824,1.1962890625
,78.8658973,1.171875
,78.8835208,1.1474609375
,78.9041933,1.103515625
,78.9199901,1.0546875
,78.9417421,1.044921875
,78.9791104,1.0400390625
,78.9794279,1.0498046875
,79.0215489,1.11328125
,79.0219428,1.279296875
,79.0505025,1.50390625
,79.0609302,1.77734375
,79.0795882,2.01171875
,79.1164575,2.2412109375
,79.1183823,2.412109375
,79.1532847,2.568359375
,79.1739227,2.6904296875
,79.1809392,2.802734375
,79.2187959,2.87109375
,79.2237574,2.9052734375
,79.2580026,2.890625
,79.258459,2.83203125
,79.29247,2.7685546875
,79.3138388,2.7099609375
,79.3216962,2.6513671875
,79.3583974,2.59765625
,79.3633313,2.5439453125
,79.3841006,2.4853515625
,79.4026937,2.4169921875
,79.4199018,2.34375
,79.4668676,2.2705078125
,79.4673826,2.1923828125
,79.4791402,2.1240234375
,79.5150114,2.0556640625
,79.5350758,1.9921875
,79.5419013,1.93359375
,79.5761194,1.8798828125
,79.59612,1.826171875
,79.6037617,1.7724609375
,79.639417,1.708984375
,79.6397362,1.6650390625
,79.6746642,1.6357421875
,79.6966538,1.591796875
,79.7028869,1.5576171875
,79.7450431,1.5185546875
,79.7455305,1.484375
,79.7630911,1.4453125
,79.805655,1.4111328125
,79.8060476,1.376953125
,79.8362536,1.357421875
,79.8435114,1.328125
,79.8610583,1.3037109375
,79.8977087,1.2744140625
,79.901809,1.2451171875
,79.9392005,1.2158203125
,79.9433168,1.1962890625
,79.9800279,1.181640625
,79.9805906,1.19140625
,80.0161969,1.279296875
,80.0216381,1.4453125
,80.0424458,1.6796875
,80.0816159,1.9140625
,80.0820363,2.12890625
,80.1157369,2.294921875
,80.1368257,2.4462890625
,80.1420342,2.5634765625
,80.1765266,2.6806640625
,80.1815935,2.7734375
,80.2197606,2.8076171875
,80.220425,2.802734375
,80.245045,2.7587890625
,80.2634998,2.7001953125
,80.2837829,2.6416015625
,80.3222823,2.5927734375
,80.3227389,2.548828125
,80.3599155,2.490234375
,80.3941363,2.44140625
,80.394533,2.3974609375
,80.4019886,2.3388671875
,80.4399644,2.275390625
,80.4423546,2.20703125
,80.4782584,2.138671875
,80.5021224,2.0751953125
,80.5049035,2.021484375
,80.5231304,1.9580078125
,80.5579185,1.8994140625
,80.5632762,1.85546875
,80.6117906,1.8115234375
,80.6122176,1.767578125
,80.6254906,1.7236328125
,80.646116,1.689453125
,80.6662004,1.6455078125
,80.684695,1.6064453125
,80.7020296,1.5625
,80.7232415,1.5283203125
,80.7437639,1.4892578125
,80.7632548,1.4501953125
,80.8099228,1.416015625
,80.8103985,1.376953125
,80.8244602,1.3525390625
,80.8719909,1.318359375
,80.8723257,1.2890625
,80.8800716,1.259765625
,80.9153915,1.2353515625
,80.9374595,1.2158203125
,80.9425734,1.1962890625
,80.9797087,1.1962890625
,80.9827398,1.2548828125
,81.0270361,1.396484375
,81.0273647,1.6259765625
,81.0459115,1.865234375
,81.0828987,2.109375
,81.0834208,2.3193359375
,81.1190736,2.5146484375
,81.1231423,2.685546875
,81.1598993,2.8466796875
,81.1625542,2.9736328125
,81.1994073,3.0615234375
,81.2047171,3.115234375
,81.2406358,3.115234375
,81.2602796,3.0712890625
,81.2624376,3.0029296875
,81.2983788,2.939453125
,81.3034923,2.8759765625
,81.3393074,2.8173828125
,81.369159,2.75390625
,81.3694739,2.685546875
,81.384049,2.6123046875
,81.4205445,2.5341796875
,81.4209508,2.451171875
,81.4560315,2.373046875
,81.4779293,2.294921875
,81.4829997,2.2119140625
,81.5245627,2.1337890625
,81.5249072,2.0703125
,81.5474142,2.0068359375
,81.5661544,1.9482421875
,81.5863287,1.8896484375
,81.6021879,1.8359375
,81.6428093,1.7919921875
,81.6432191,1.748046875
,81.6640914,1.708984375
,81.6854327,1.6650390625
,81.7055725,1.6259765625
,81.7515148,1.5771484375
,81.7520354,1.5380859375
,81.7655946,1.4892578125
,81.8049461,1.4501953125
,81.8054661,1.416015625
,81.8218725,1.3818359375
,81.8578687,1.357421875
,81.8783348,1.328125
,81.8856713,1.3037109375
,81.9065967,1.2744140625
,81.9247953,1.25
,81.968101,1.2158203125
,81.9684674,1.19140625
,81.9844133,1.1767578125
,82.019445,1.1962890625
,82.0247432,1.2841796875
,82.0615709,1.474609375
,82.0667498,1.708984375
,82.0864574,1.97265625
,82.1072872,2.2216796875
,82.1538354,2.4267578125
,82.1543635,2.626953125
,82.1655488,2.7978515625
,82.1850679,2.9638671875
,82.2211666,3.0810546875
,82.2240034,3.1787109375
,82.2631183,3.2177734375
,82.2677522,3.203125
,82.3052295,3.1494140625
,82.3058926,3.076171875
,82.3217934,2.998046875
,82.3580057,2.9296875
,82.3621598,2.8662109375
,82.3963761,2.79296875
,82.4180587,2.71484375
,82.425776,2.6318359375
,82.4644344,2.5390625
,82.4649661,2.4462890625
,82.5015442,2.353515625
,82.5225755,2.265625
,82.5286362,2.177734375
,82.5445279,2.099609375
,82.5895144,2.041015625
,82.5900378,1.9775390625
,82.6054765,1.9140625
,82.6431926,1.85546875
,82.6473247,1.8017578125
,82.6831461,1.748046875
,82.6877886,1.69921875
,82.7053253,1.650390625
,82.7256121,1.6064453125
,82.7466866,1.5625
,82.7825015,1.5087890625
,82.7871844,1.4599609375
,82.8059934,1.4111328125
,82.8406353,1.376953125
,82.8608734,1.337890625
,82.8678982,1.298828125
,82.8825496,1.2646484375
,82.9166054,1.240234375
,82.9365933,1.2158203125
,82.9448054,1.1962890625
,82.9774863,1.1669921875
,82.9995527,1.15234375
,83.0083997,1.1279296875
,83.0560673,1.103515625
,83.056592,1.07421875
,83.064143,1.0693359375
,83.1017975,1.07421875
,83.1044564,1.1181640625
,83.1380659,1.2646484375
,83.1592368,1.4794921875
,83.1668437,1.7431640625
,83.2028273,1.9873046875
,83.2080244,2.2265625
,83.2436608,2.4169921875
,83.2489884,2.59765625
,83.2648963,2.75390625
,83.2867155,2.900390625
,83.3058907,2.998046875
,83.3503814,3.0615234375
,83.350694,3.0615234375
,83.36777,3.017578125
,83.4117025,2.9443359375
,83.4122435,2.861328125
,83.4469961,2.79296875
,83.4475012,2.7294921875
,83.465237,2.6708984375
,83.5024623,2.6025390625
,83.5351063,2.51953125
,83.5355129,2.4365234375
,83.5468001,2.3486328125
,83.5963068,2.265625
,83.5966039,2.177734375
,83.6042318,2.099609375
,83.6419301,2.03125
,83.6732487,1.962890625
,83.6736372,1.89453125
,83.6877614,1.8408203125
,83.7238378,1.7822265625
,83.7294278,1.728515625
,83.7659738,1.6748046875
,83.7662824,1.62109375
,83.7855685,1.572265625
,83.8065727,1.5283203125
,83.8272701,1.484375
,83.8770854,1.4404296875
,83.8776011,1.396484375
,83.8861655,1.357421875
,83.922991,1.318359375
,83.9282483,1.279296875
,83.9656883,1.2451171875
,83.9863952,1.2158203125
,83.9868985,1.19140625
,84.0233209,1.162109375
,84.0258585,1.1376953125
,84.0646187,1.1083984375
,84.0704038,1.083984375
,84.0882134,1.064453125
,84.1261208,1.07421875
,84.1313742,1.11328125
,84.1489277,1.2548828125
,84.1666951,1.455078125
,84.186688,1.708984375
,84.2223863,1.93359375
,84.2411752,2.1435546875
,84.2472164,2.2998046875
,84.2857648,2.4365234375
,84.2910453,2.5439453125
,84.3403662,2.6416015625
,84.3406798,2.7001953125
,84.3453772,2.734375
,84.3787133,2.7099609375
,84.4001469,2.65625
,84.4094312,2.59765625
,84.4304003,2.548828125
,84.4505583,2.5048828125
,84.4691791,2.4560546875
,84.5062966,2.412109375
,84.5067947,2.353515625
,84.542704,2.2998046875
,84.5467544,2.20703125
,84.5687299,2.1533203125
,84.5894204,2.0947265625
,84.6266971,2.03125
,84.6271329,1.97265625
,84.661712,1.904296875
,84.6881866,1.8505859375
,84.6885085,1.7919921875
,84.7346368,1.7333984375
,84.7350717,1.6845703125
,84.7557342,1.6455078125
,84.7680365,1.5966796875
,84.8148817,1.5576171875
,84.8153108,1.5087890625
,84.8456369,1.4697265625
,84.8508097,1.4208984375
,84.871195,1.38671875
,84.8865118,1.34765625
,84.9392246,1.3232421875
,84.9396503,1.2939453125
,84.9494068,1.26953125
,85.0013896,1.2353515625
,85.0019316,1.2109375
,85.0088822,1.1767578125
,85.0459167,1.1474609375
,85.067264,1.123046875
,85.0676984,1.103515625
,85.1041751,1.1083984375
,85.1080725,1.171875
,85.143391,1.3330078125
,85.1480383,1.552734375
,85.1857731,1.8017578125
,85.1911172,2.03125
,85.2280475,2.236328125
,85.2298912,2.3974609375
,85.2533313,2.5244140625
,85.2682452,2.6416015625
,85.2893277,2.763671875
,85.3091986,2.8515625
,85.3298838,2.880859375
,85.3682242,2.8662109375
,85.3687432,2.8076171875
,85.4053662,2.744140625
,85.436732,2.67578125
,85.4371513,2.626953125
,85.4481465,2.568359375
,85.4833697,2.51953125
,85.5044307,2.4609375
,85.509442,2.3974609375
,85.5443368,2.3193359375
,85.5649339,2.24609375
,85.5711094,2.16796875
,85.6223437,2.099609375
,85.6227873,2.03125
,85.6301671,1.982421875
,85.6507437,1.923828125
,85.6712479,1.865234375
,85.6921012,1.81640625
,85.7103234,1.7724609375
,85.7483439,1.71875
,85.7507144,1.6748046875
,85.787531,1.6357421875
,85.7880628,1.591796875
,85.8251054,1.5576171875
,85.8303079,1.513671875
,85.8516632,1.4697265625
,85.8703375,1.4306640625
,85.9148171,1.396484375
,85.9152429,1.357421875
,85.9356576,1.3232421875
,85.9507373,1.298828125
,85.9738242,1.26953125
,85.9943732,1.2255859375
,86.0093476,1.2060546875
,86.046366,1.1962890625
,86.0657407,1.1767578125
,86.0706346,1.162109375
,86.1072074,1.1572265625
,86.1098978,1.1865234375
,86.1478874,1.2841796875
,86.180376,1.4697265625
,86.1806821,1.6796875
,86.1906419,1.9091796875
,86.2276348,2.099609375
,86.2281302,2.2802734375
,86.2742395,2.4267578125
,86.274759,2.5634765625
,86.3033359,2.6904296875
,86.3118267,2.783203125
,86.3500312,2.861328125
,86.3504449,2.880859375
,86.3866125,2.87109375
,86.3910491,2.83203125
,86.4106493,2.7783203125
,86.4459363,2.724609375
,86.466633,2.6708984375
,86.4717768,2.6220703125
,86.5099075,2.5634765625
,86.5104335,2.5048828125
,86.5456936,2.44140625
,86.5504255,2.373046875
,86.6008826,2.2998046875
,86.6011962,2.2314453125
,86.6118253,2.158203125
,86.6495935,2.0947265625
,86.6501043,2.0361328125
,86.6868535,1.982421875
,86.7080324,1.923828125
,86.7140582,1.875
,86.7313597,1.8212890625
,86.7713638,1.7919921875
,86.7718887,1.748046875
,86.8190012,1.708984375
,86.8194885,1.669921875
,86.8347786,1.6259765625
,86.8527842,1.58203125
,86.8889984,1.5380859375
,86.8893158,1.494140625
,86.9097539,1.4697265625
,86.9460739,1.4404296875
,86.9666687,1.4111328125
,86.9720298,1.38671875
,87.009195,1.357421875
,87.011832,1.3330078125
,87.0490556,1.3037109375
,87.082201,1.26953125
,87.0825055,1.240234375
,87.09254,1.2255859375
,87.1128272,1.2109375
,87.1337175,1.2255859375
,87.1519265,1.2939453125
,87.1903047,1.4453125
,87.1906183,1.62109375
,87.2283238,1.8212890625
,87.2516208,2.0068359375
,87.2520448,2.1630859375
,87.2894394,2.314453125
,87.2900024,2.4365234375
,87.3263225,2.55859375
,87.3620479,2.65625
,87.3623907,2.7392578125
,87.3751658,2.7734375
,87.3939752,2.7685546875
,87.4300755,2.734375
,87.435157,2.685546875
,87.4509108,2.63671875
,87.4897637,2.6025390625
,87.4901458,2.55859375
,87.526731,2.5146484375
,87.5489439,2.4609375
,87.5537649,2.4072265625
,87.5898346,2.3388671875
,87.5946121,2.2705078125
,87.6300926,2.20703125
,87.6304078,2.1435546875
,87.6661569,2.0947265625
,87.6874878,2.041015625
,87.6927391,1.9873046875
,87.734621,1.9384765625
,87.7350096,1.89453125
,87.7704968,1.845703125
,87.7727801,1.796875
,87.7900897,1.7529296875
,87.8267013,1.71875
,87.8456743,1.6796875
,87.8508706,1.640625
,87.8863233,1.6015625
,87.9072833,1.5576171875
,87.9149643,1.513671875
,87.935054,1.474609375
,87.9843956,1.4306640625
,87.9848004,1.396484375
,87.992494,1.3671875
,88.0132819,1.3427734375
,88.0619434,1.318359375
,88.062478,1.2939453125
,88.072637,1.2646484375
,88.1094658,1.2353515625
,88.1157163,1.2060546875
,88.155779,1.1865234375
,88.1560925,1.162109375
,88.1735114,1.1376953125
,88.1931351,1.142578125
,88.2123308,1.181640625
,88.24902,1.2744140625
,88.2530494,1.4453125
,88.2904372,1.62109375
,88.2928936,1.8212890625
,88.3265633,1.982421875
,88.3470632,2.138671875
,88.3523372,2.265625
,88.387728,2.392578125
,88.3949703,2.4951171875
,88.415672,2.5927734375
,88.4334629,2.6513671875
,88.4701149,2.6904296875
,88.4742275,2.666015625
,88.5109717,2.6318359375
,88.5459988,2.587890625
,88.5463414,2.5390625
,88.5519515,2.509765625
,88.5891398,2.4755859375
,88.5941593,2.431640625
,88.6147673,2.3779296875
,88.6347431,2.32421875
,88.6718608,2.2607421875
,88.6738592,2.197265625
,88.6920213,2.138671875
,88.7293265,2.08984375
,88.7343144,2.0458984375
,88.7780504,2.0068359375
,88.778545,1.962890625
,88.8104282,1.9189453125
,88.8155972,1.865234375
,88.8530218,1.826171875
,88.8536309,1.77734375
,88.8900049,1.728515625
,88.912647,1.6845703125
,88.9131723,1.640625
,88.9491678,1.6064453125
,88.9542534,1.572265625
,88.9902432,1.533203125
,89.0094487,1.494140625
,89.0166945,1.455078125
,89.0366168,1.4208984375
,89.0734385,1.3916015625
,89.0740303,1.3671875
,89.1123367,1.34765625
,89.1127113,1.328125
,89.1505575,1.30859375
,89.1851732,1.2939453125
,89.1857202,1.279296875
,89.1932206,1.259765625
,89.2298153,1.2451171875
,89.2618989,1.2353515625
,89.2623214,1.2353515625
,89.2741833,1.2939453125
,89.311464,1.4111328125
,89.3166496,1.591796875
,89.3354745,1.7724609375
,89.3561526,1.9580078125
,89.3928804,2.099609375
,89.3976989,2.2314453125
,89.4137528,2.333984375
,89.4338587,2.4462890625
,89.4801141,2.51953125
,89.4805558,2.5927734375
,89.4961554,2.6220703125
,89.542235,2.6123046875
,89.54304,2.587890625
,89.5571145,2.5537109375
,89.5933769,2.5244140625
,89.5978423,2.4951171875
,89.6322211,2.4658203125
,89.6329255,2.4267578125
,89.686864,2.40234375
,89.6872737,2.3681640625
,89.6961133,2.3095703125
,89.7163807,2.255859375
,89.7654111,2.1923828125
,89.7657735,2.138671875
,89.7951121,2.080078125
,89.7983611,2.03125
,89.8149657,1.982421875
,89.8341678,1.9482421875
,89.8737906,1.904296875
,89.8741537,1.865234375
,89.9193773,1.81640625
,89.9197975,1.77734375
,89.938913,1.73828125
,89.959349,1.7041015625
,89.9748622,1.6650390625
,89.9963061,1.6357421875
,90.0170362,1.6015625
,90.0358925,1.5673828125
,90.0724925,1.533203125
,90.0746717,1.4990234375
,90.1103071,1.46484375
,90.1165909,1.435546875
,90.1544304,1.40625
,90.1553052,1.3818359375
,90.1916956,1.357421875
,90.1957105,1.337890625
,90.245464,1.3134765625
,90.2457739,1.2939453125
,90.2560942,1.2841796875
,90.2924724,1.2890625
,90.3144503,1.357421875
,90.3191503,1.4892578125
,90.3391153,1.6845703125
,90.3538016,1.8701171875
,90.3898646,2.060546875
,90.4107156,2.216796875
,90.4165005,2.3583984375
,90.4531307,2.4853515625
,90.4556933,2.5830078125
,90.4903295,2.67578125
,90.5108063,2.744140625
,90.5200205,2.7783203125
,90.5355185,2.763671875
,90.5818984,2.7392578125
,90.5824186,2.6904296875
,90.5959923,2.646484375
,90.6329236,2.6025390625
,90.6383179,2.5634765625
,90.6737592,2.51953125
,90.6790496,2.4609375
,90.6932426,2.40234375
,90.7291132,2.3486328125
,90.750982,2.2802734375
,90.7581467,2.2216796875
,90.7765097,2.1533203125
,90.8265269,2.08984375
,90.8269486,2.021484375
,90.8384531,1.9677734375
,90.8755796,1.9091796875
,90.8758806,1.8505859375
,90.9115341,1.806640625
,90.9169401,1.7333984375
,90.9539653,1.6943359375
,90.9580947,1.6552734375
,90.9964046,1.611328125
,90.9967078,1.5673828125
,91.0430018,1.5185546875
,91.0433281,1.474609375
,91.0643526,1.42578125
,91.0812998,1.3916015625
,91.0967898,1.3427734375
,91.1177873,1.3037109375
,91.1394328,1.2646484375
,91.1742185,1.240234375
,91.1764259,1.201171875
,91.2128899,1.1767578125
,91.234396,1.15234375
,91.2398625,1.1376953125
,91.2553686,1.11328125
,91.2906605,1.0986328125
,91.3133304,1.083984375
,91.317067,1.07421875
,91.3539426,1.0986328125
,91.3585076,1.201171875
,91.3943827,1.376953125
,91.3999176,1.611328125
,91.4213169,1.845703125
,91.4365434,2.0458984375
,91.4736921,2.2412109375
,91.4785372,2.3974609375
,91.4977543,2.5439453125
,91.5351212,2.666015625
,91.5399892,2.7783203125
,91.5887781,2.8515625
,91.5893174,2.890625
,91.5983615,2.880859375
,91.6334351,2.822265625
,91.635911,2.7587890625
,91.6757467,2.7197265625
,91.6762689,2.6806640625
,91.7126148,2.63671875
,91.7336352,2.5927734375
,91.7388966,2.5341796875
,91.7763656,2.4755859375
,91.7817182,2.40234375
,91.8022461,2.3291015625
,91.8169102,2.255859375
,91.8546519,2.1875
,91.8588606,2.12890625
,91.8989051,2.0703125
,91.8994327,2.01171875
,91.9380143,1.953125
,91.9385564,1.89453125
,91.9794021,1.8408203125
,91.9797678,1.787109375
,91.9979413,1.7431640625
,92.0194624,1.7041015625
,92.039878,1.6650390625
,92.0597632,1.6259765625
,92.0815684,1.572265625
,92.101563,1.5234375
,92.1221883,1.474609375
,92.1406069,1.4208984375
,92.1580168,1.3671875
,92.1784432,1.3330078125
,92.1992245,1.2890625
,92.2202246,1.259765625
,92.2560098,1.2255859375
,92.2610773,1.19140625
,92.2812743,1.1669921875
,92.3008514,1.142578125
,92.322037,1.11328125
,92.3427764,1.0595703125
,92.3788878,1.0400390625
,92.3798765,1.0205078125
,92.3986479,1.0205078125
,92.4375444,1.0546875
,92.4379823,1.171875
,92.4772126,1.3623046875
,92.4825241,1.6015625
,92.500923,1.8359375
,92.5367193,2.0654296875
,92.5370349,2.24609375
,92.5733277,2.4267578125
,92.5785688,2.55859375
,92.6145228,2.6904296875
,92.6195759,2.7978515625
,92.6576312,2.8759765625
,92.6628682,2.900390625
,92.6810714,2.8857421875
,92.7191454,2.83203125
,92.7195431,2.7685546875
,92.7556241,2.7197265625
,92.7581695,2.6708984375
,92.7936849,2.626953125
,92.8137741,2.578125
,92.8211411,2.5244140625
,92.8577768,2.4658203125
,92.8599518,2.3974609375
,92.8787121,2.3291015625
,92.914822,2.2705078125
,92.9169828,2.2021484375
,92.9575306,2.1435546875
,92.958052,2.0849609375
,92.9940008,2.021484375
,93.0148801,1.9677734375
,93.0200716,1.9091796875
,93.0563282,1.85546875
,93.0751352,1.806640625
,93.0816903,1.7578125
,93.0991136,1.7138671875
,93.1369701,1.6748046875
,93.1420837,1.630859375
,93.1600893,1.5869140625
,93.1990119,1.533203125
,93.1994488,1.484375
,93.2363097,1.4306640625
,93.2555231,1.38671875
,93.2584146,1.3427734375
,93.2952531,1.30859375
,93.3005061,1.2744140625
,93.3372038,1.25
,93.3396902,1.220703125
,93.3757232,1.19140625
,93.3961411,1.162109375
,93.4008683,1.1328125
,93.4357252,1.103515625
,93.4562387,1.0693359375
,93.4585754,1.0595703125
,93.4950288,1.0693359375
,93.5003099,1.15234375
,93.5365196,1.3134765625
,93.5398662,1.5478515625
,93.5772848,1.7822265625
,93.6086699,2.0166015625
,93.6091106,2.2021484375
,93.6192202,2.373046875
,93.6413385,2.509765625
,93.6769847,2.626953125
,93.6818533,2.7197265625
,93.7337032,2.7783203125
,93.734181,2.802734375
,93.742527,2.783203125
,93.7610257,2.734375
,93.7976568,2.6806640625
,93.8191474,2.6318359375
,93.8196408,2.587890625
,93.8557257,2.5537109375
,93.8607884,2.5048828125
,93.8965229,2.451171875
,93.9013271,2.392578125
,93.9373064,2.32421875
,93.9424543,2.24609375
,93.9793935,2.1630859375
,93.9845031,2.099609375
,93.9992838,2.03125
,94.0360835,1.97265625
,94.0412965,1.9189453125
,94.0766259,1.8701171875
,94.1062101,1.826171875
,94.1066029,1.7822265625
,94.1217857,1.73828125
,94.158979,1.6943359375
,94.1593602,1.6455078125
,94.1965357,1.6064453125
,94.2017539,1.5576171875
,94.2230228,1.5087890625
,94.2435213,1.4599609375
,94.263439,1.4111328125
,94.2841707,1.3720703125
,94.3031311,1.3330078125
,94.3257409,1.298828125
,94.3395737,1.26953125
,94.3733847,1.2548828125
,94.3946855,1.23046875
,94.4012277,1.2109375
,94.4222188,1.181640625
,94.4576,1.1572265625
,94.4629304,1.1328125
,94.4992029,1.1279296875
,94.503403,1.162109375
,94.5426131,1.2939453125
,94.5430385,1.4892578125
,94.5722657,1.748046875
,94.5822354,1.9677734375
,94.6201086,2.1826171875
,94.6206399,2.3486328125
,94.6575278,2.470703125
,94.6782807,2.578125
,94.683512,2.666015625
,94.726952,2.734375
,94.7273989,2.7587890625
,94.7470147,2.744140625
,94.7599155,2.6953125
,94.7962396,2.63671875
,94.8181402,2.578125
,94.8230074,2.5244140625
,94.8684701,2.4755859375
,94.8690276,2.4365234375
,94.8808478,2.3828125
,94.9298597,2.3291015625
,94.9302862,2.2705078125
,94.9404298,2.197265625
,94.9773812,2.1337890625
,94.9971461,2.0654296875
,95.0024591,1.9970703125
,95.040631,1.9287109375
,95.043083,1.875
,95.0623803,1.81640625
,95.0992543,1.77734375
,95.099686,1.728515625
,95.1369112,1.6943359375
,95.1583527,1.6552734375
,95.1635477,1.6162109375
,95.1836623,1.5673828125
,95.2035856,1.5283203125
,95.2438236,1.484375
,95.2443043,1.4453125
,95.2642749,1.40625
,95.2820629,1.3671875
,95.319054,1.337890625
,95.3215756,1.30859375
,95.3432503,1.279296875
,95.3793317,1.2548828125
,95.3845694,1.240234375
,95.4201568,1.220703125
,95.4252119,1.1962890625
,95.4437011,1.171875
,95.4636703,1.1572265625
,95.4849881,1.1572265625
,95.5056258,1.2060546875
,95.523902,1.3427734375
,95.5443486,1.5673828125
,95.5799055,1.8310546875
,95.5849683,2.0703125
,95.6210575,2.2900390625
,95.6213716,2.4658203125
,95.657982,2.6416015625
,95.6626573,2.7734375
,95.6837992,2.900390625
,95.7195832,2.9833984375
,95.7250337,3.0419921875
,95.7606011,3.046875
,95.7659382,3.0078125
,95.7814086,2.9345703125
,95.8191643,2.8662109375
,95.8210404,2.802734375
,95.8577379,2.7490234375
,95.8822539,2.6904296875
,95.8826384,2.63671875
,95.9273164,2.578125
,95.9277836,2.5048828125
,95.9450024,2.421875
,95.9820645,2.34375
,96.0007197,2.265625
,96.0033292,2.1875
,96.0238025,2.1240234375
,96.0591736,2.060546875
,96.082778,2.001953125
,96.085419,1.9482421875
,96.1220445,1.89453125
,96.1276255,1.845703125
,96.1460858,1.8017578125
,96.1643946,1.7578125
,96.1842743,1.7236328125
,96.2049051,1.689453125
,96.2258843,1.650390625
,96.2456969,1.611328125
,96.2658597,1.5673828125
,96.2861987,1.5283203125
,96.3322287,1.4794921875
,96.3325955,1.4404296875
,96.3438158,1.4013671875
,96.3647144,1.376953125
,96.3861037,1.34765625
,96.4043303,1.337890625
,96.4566913,1.3134765625
,96.4573353,1.298828125
,96.468066,1.2744140625
,96.486558,1.25
,96.5038787,1.220703125
,96.5250834,1.220703125
,96.5490667,1.259765625
,96.5645946,1.3525390625
,96.5864377,1.58203125
,96.6074015,1.8408203125
,96.6279942,2.099609375
,96.6458197,2.3193359375
,96.6823506,2.5146484375
,96.6876881,2.67578125
,96.7237622,2.8173828125
,96.724249,2.9248046875
,96.7447761,3.0126953125
,96.7821933,3.056640625
,96.7849651,3.056640625
,96.8219733,3.0078125
,96.8264935,2.9248046875
,96.8481717,2.841796875
,96.8680929,2.7587890625
,96.9155592,2.6904296875
,96.9158709,2.6220703125
,96.9228874,2.5732421875
,96.9591513,2.5048828125
,96.9813128,2.4365234375
,96.9863016,2.3583984375
,97.0228892,2.275390625
,97.0254219,2.1875
,97.0621013,2.119140625
,97.0890117,2.041015625
,97.0895429,1.982421875
,97.1056086,1.923828125
,97.1265307,1.8603515625
,97.1650644,1.806640625
,97.165376,1.7578125
,97.2005287,1.708984375
,97.2222518,1.6552734375
,97.2295339,1.611328125
,97.2461566,1.5576171875
,97.2689952,1.513671875
,97.2866866,1.4404296875
,97.305059,1.4111328125
,97.3437344,1.3720703125
,97.3440787,1.3330078125
,97.3814355,1.3037109375
,97.4021583,1.26953125
,97.4083843,1.2353515625
,97.429445,1.220703125
,97.4454373,1.1962890625
,97.4659049,1.181640625
,97.4850256,1.162109375
,97.5271396,1.1376953125
,97.5276505,1.11328125
,97.5477104,1.09375
,97.5844085,1.083984375
,97.5869745,1.0986328125
,97.6254009,1.2109375
,97.6258952,1.4013671875
,97.6459846,1.669921875
,97.6663499,1.9189453125
,97.6865725,2.1484375
,97.7255491,2.3193359375
,97.726048,2.4658203125
,97.7624412,2.5830078125
,97.7826111,2.6806640625
,97.7849716,2.744140625
,97.8230867,2.7880859375
,97.8236225,2.7734375
,97.8603734,2.71484375
,97.8810758,2.6513671875
,97.8877847,2.578125
,97.9076899,2.5244140625
,97.9421222,2.470703125
,97.9642251,2.4267578125
,97.9693114,2.373046875
,97.9903004,2.2900390625
,98.0069211,2.20703125
,98.04428,2.158203125
,98.044798,2.0947265625
,98.0816333,2.0361328125
,98.0869562,1.97265625
,98.1237103,1.9091796875
,98.1289945,1.85546875
,98.1659231,1.796875
,98.1684762,1.748046875
,98.1846883,1.69921875
,98.2208598,1.66015625
,98.2424548,1.6162109375
,98.2474884,1.5771484375
,98.2866681,1.533203125
,98.2871594,1.4892578125
,98.3245585,1.4453125
,98.3300566,1.4111328125
,98.3453798,1.3671875
,98.3811097,1.3330078125
,98.3863397,1.3037109375
,98.422016,1.2744140625
,98.4423647,1.2451171875
,98.4475108,1.2255859375
,98.4836767,1.2060546875
,98.4883069,1.1767578125
,98.5248604,1.15234375
,98.5251757,1.123046875
,98.5622687,1.1181640625
,98.5838686,1.1328125
,98.5893476,1.2353515625
,98.6087532,1.42578125
,98.6598235,1.6796875
,98.6603541,1.923828125
,98.6676476,2.1484375
,98.688376,2.32421875
,98.7103915,2.4609375
,98.7250432,2.568359375
,98.7628037,2.6953125
,98.7988257,2.79296875
,98.7991963,2.83203125
,98.8085675,2.83203125
,98.8591922,2.783203125
,98.8595814,2.71484375
,98.8707447,2.6416015625
,98.9193351,2.5830078125
,98.9196449,2.5244140625
,98.9266361,2.48046875
,98.9493585,2.431640625
,98.9703822,2.373046875
,98.9894333,2.3046875
,99.0266541,2.2314453125
,99.0271496,2.158203125
,99.0635969,2.08984375
,99.0823267,2.0166015625
,99.0871196,1.9580078125
,99.1246302,1.89453125
,99.1297929,1.8359375
,99.1483099,1.77734375
,99.1870039,1.7236328125
,99.1875217,1.6650390625
,99.2228431,1.6162109375
,99.2446274,1.5625
,99.2451413,1.5185546875
,99.2813531,1.474609375
,99.3030334,1.4306640625
,99.3079025,1.38671875
,99.3280314,1.3427734375
,99.3627123,1.30859375
,99.3846827,1.259765625
,99.3899654,1.220703125
,99.4280366,1.1865234375
,99.4329759,1.15234375
,99.4511809,1.1181640625
,99.4694442,1.0888671875
,99.5071091,1.07421875
,99.5078939,1.0498046875
,99.5304239,1.025390625
,99.5511432,0.99609375
,99.5727509,0.9765625
,99.5917511,0.9765625
,99.612369,1.044921875
,99.6284744,1.201171875
,99.6488215,1.4453125
,99.6698114,1.708984375
,99.6904546,1.97265625
,99.7102655,2.1923828125
,99.7313282,2.3974609375
,99.7513878,2.568359375
,99.7724423,2.7099609375
,99.7928175,2.8369140625
