Time,PPG_Signal
0.1897751,1.03515625
0.2312305,1.083984375
0.231554,1.1572265625
0.2504585,1.259765625
0.284576,1.3525390625
0.3059319,1.455078125
0.3139095,1.533203125
0.3524963,1.611328125
0.3529079,1.6650390625
0.3699429,1.7236328125
0.4067874,1.7578125
0.4107958,1.7919921875
0.4473753,1.8017578125
0.4770546,1.7822265625
0.4773943,1.7529296875
0.491621,1.708984375
0.5253766,1.6650390625
0.5554216,1.62109375
0.555801,1.5966796875
0.570143,1.5576171875
0.5914125,1.5283203125
0.6382274,1.4892578125
0.6385555,1.455078125
0.6567301,1.416015625
0.6718193,1.3916015625
0.7064714,1.3525390625
0.7113182,1.328125
0.7357137,1.3037109375
0.7514673,1.2353515625
0.7755465,1.220703125
0.7922401,1.201171875
0.8278972,1.1865234375
0.8336514,1.162109375
0.8687917,1.142578125
0.8732612,1.1181640625
0.9114146,1.0986328125
0.9116733,1.0791015625
0.9419219,1.0791015625
0.972,1.0693359375
0.9722933,1.0595703125
1.0181207,1.044921875
1.0186147,1.0302734375
1.0496702,1.015625
1.0548111,1.0107421875
1.0971028,1.0205078125
1.0973703,1.0498046875
1.1118819,1.142578125
1.1570932,1.240234375
1.157502,1.3525390625
1.1716878,1.4501953125
1.2068161,1.552734375
1.2387617,1.630859375
1.2435197,1.7041015625
1.2502665,1.7578125
1.2858785,1.806640625
1.2899221,1.8359375
1.3237866,1.8505859375
1.3428098,1.8408203125
1.3524939,1.8115234375
1.3885477,1.77734375
1.411954,1.7236328125
1.4144408,1.6796875
1.4301278,1.640625
1.4723179,1.62109375
1.4727871,1.58203125
1.5030163,1.5576171875
1.5127458,1.513671875
1.5510491,1.484375
1.553133,1.4404296875
1.5889605,1.40625
1.6130728,1.3623046875
1.6150307,1.3037109375
1.6383712,1.25
1.6515431,1.2451171875
1.6909699,1.2158203125
1.6912161,1.2060546875
1.7280093,1.1865234375
1.7492585,1.162109375
1.7537571,1.142578125
1.7916915,1.123046875
1.796552,1.103515625
1.8118376,1.083984375
1.8322235,1.083984375
1.8669962,1.064453125
1.8765712,1.0498046875
1.8939106,1.0400390625
1.9398526,1.025390625
1.9402649,1.015625
1.9687352,1.0107421875
1.970417,1.025390625
2.0044272,1.0888671875
2.0249896,1.1865234375
2.0334764,1.2841796875
2.0789352,1.3916015625
2.0792788,1.4794921875
2.093778,1.5771484375
2.1287486,1.640625
2.1563208,1.708984375
2.1565783,1.748046875
2.1770638,1.7919921875
2.1926951,1.806640625
2.2283609,1.81640625
2.2539203,1.7919921875
2.2543271,1.7529296875
2.2909092,1.7041015625
2.2948061,1.6552734375
2.3276505,1.6064453125
2.3326336,1.5771484375
2.3687689,1.5478515625
2.3737377,1.5087890625
2.4095905,1.4794921875
2.4150916,1.4404296875
2.4523406,1.4111328125
2.4542626,1.376953125
2.4872448,1.34765625
2.5090847,1.3134765625
2.5172197,1.259765625
2.5328314,1.23046875
2.5706463,1.220703125
2.5753878,1.1962890625
2.5940227,1.181640625
2.6150299,1.1572265625
2.6619547,1.1376953125
2.6622218,1.123046875
2.6830452,1.0986328125
2.6948804,1.083984375
2.7270564,1.0693359375
2.7339764,1.0693359375
2.7719246,1.0595703125
2.7744003,1.044921875
2.8079105,1.0302734375
2.8289674,1.015625
2.8357598,1.0009765625
2.8803666,1.005859375
2.8806619,1.0302734375
2.8940413,1.1181640625
2.9282239,1.2158203125
2.9331622,1.328125
2.9701147,1.4208984375
2.9896638,1.5283203125
2.9958524,1.611328125
3.0407492,1.669921875
3.0413775,1.728515625
3.0605596,1.7626953125
3.0725016,1.796875
3.1060689,1.8017578125
3.1274124,1.8017578125
3.1343348,1.767578125
3.1767517,1.728515625
3.1770682,1.6845703125
3.1979458,1.650390625
3.2246429,1.6064453125
3.2336449,1.5869140625
3.2689483,1.5478515625
3.2730248,1.513671875
3.3068511,1.4794921875
3.3259272,1.4404296875
3.3354751,1.40625
3.3771358,1.3671875
3.3775294,1.3427734375
3.4125552,1.30859375
3.4407915,1.2744140625
3.4410349,1.2451171875
3.4572558,1.23046875
3.4741183,1.2109375
3.5211409,1.201171875
3.5213973,1.181640625
3.5382709,1.171875
3.571928,1.1474609375
3.5770641,1.1328125
3.5916014,1.11328125
3.6275144,1.11328125
3.6487074,1.103515625
3.6529348,1.083984375
3.6891252,1.0693359375
3.720472,1.0546875
3.7249283,1.0400390625
3.7348418,1.025390625
3.7710333,1.0302734375
3.792244,1.0693359375
3.792563,1.1572265625
3.8381381,1.259765625
3.8384544,1.3671875
3.8583333,1.4599609375
3.8925904,1.552734375
3.8974606,1.6259765625
3.9166087,1.689453125
3.951797,1.748046875
3.9778132,1.7724609375
3.9780597,1.806640625
4.0251362,1.81640625
4.0254072,1.8115234375
4.0355958,1.77734375
4.0694724,1.7333984375
4.0896831,1.6845703125
4.0958288,1.650390625
4.1302778,1.6015625
4.1343825,1.5771484375
4.1705964,1.5380859375
4.1746353,1.50390625
4.2082485,1.46484375
4.2290918,1.42578125
4.2374578,1.38671875
4.2756714,1.357421875
4.2759188,1.3232421875
4.313204,1.2841796875
4.3173521,1.25
4.3526615,1.220703125
4.3530679,1.201171875
4.387938,1.181640625
4.4096165,1.1572265625
4.4168443,1.1376953125
4.4586537,1.11328125
4.4590142,1.09375
4.478845,1.0693359375
4.4933465,1.0546875
4.5364317,1.0546875
4.5529443,1.0400390625
4.5570236,1.0302734375
4.5977103,1.025390625
4.5979555,1.005859375
4.634725,0.99609375
4.6389875,0.99609375
4.6894581,1.044921875
4.6897037,1.1181640625
4.6935318,1.2353515625
4.743036,1.337890625
4.7432769,1.4453125
4.764814,1.5234375
4.7780401,1.611328125
4.812699,1.6650390625
4.8168535,1.7138671875
4.8494144,1.73828125
4.8544546,1.767578125
4.8962209,1.7626953125
4.8964672,1.748046875
4.9422011,1.7138671875
4.9424546,1.669921875
4.9631331,1.630859375
4.9758451,1.591796875
5.010788,1.5576171875
5.0360446,1.5185546875
5.0417782,1.4599609375
5.0561702,1.4111328125
5.0918974,1.40625
5.0981581,1.38671875
5.1325232,1.3671875
5.1379783,1.337890625
5.1896849,1.318359375
5.1900443,1.279296875
5.1993149,1.259765625
5.219147,1.2353515625
5.2366958,1.2060546875
5.2831386,1.19140625
5.2835015,1.1767578125
5.2993306,1.162109375
5.3178877,1.142578125
5.3595015,1.1279296875
5.3597453,1.11328125
5.3797598,1.09375
5.3978234,1.0791015625
5.4163579,1.07421875
5.4523038,1.064453125
5.4562842,1.0546875
5.4912915,1.044921875
5.5156415,1.0546875
5.5173479,1.0986328125
5.55171,1.201171875
5.5792179,1.318359375
5.5794701,1.4111328125
5.5983486,1.5234375
5.6178728,1.6064453125
5.6671757,1.6845703125
5.6674335,1.7431640625
5.6793477,1.796875
5.6997358,1.826171875
5.7391417,1.8505859375
5.7394079,1.8408203125
5.7561229,1.8310546875
5.7763322,1.796875
5.8139874,1.7578125
5.8160049,1.71875
5.8519633,1.6796875
5.8750687,1.6455078125
5.8768751,1.6015625
5.9122599,1.5625
5.9326117,1.5185546875
5.9380185,1.4599609375
5.9744556,1.4306640625
5.9748878,1.416015625
6.0112344,1.38671875
6.0306039,1.3623046875
6.0385285,1.3330078125
6.0739955,1.30859375
6.0956594,1.279296875
6.1038114,1.2548828125
6.1161804,1.2255859375
6.138498,1.2158203125
6.1569118,1.19140625
6.1935638,1.181640625
6.226568,1.162109375
6.2269694,1.1376953125
6.2409865,1.123046875
6.2748863,1.103515625
6.2799552,1.083984375
6.2946793,1.064453125
6.329124,1.0595703125
6.3505764,1.0498046875
6.3575141,1.0498046875
6.3964282,1.07421875
6.4169007,1.142578125
6.4193636,1.23046875
6.4532341,1.337890625
6.4737813,1.4306640625
6.4762641,1.5380859375
6.5107902,1.630859375
6.5363522,1.69921875
6.5367468,1.7626953125
6.569521,1.806640625
6.5898113,1.845703125
6.5992596,1.8505859375
6.6539635,1.85546875
6.6543897,1.8212890625
6.658299,1.796875
6.6949974,1.748046875
6.6996205,1.7041015625
6.7179381,1.6650390625
6.7560716,1.6259765625
6.7607036,1.58203125
6.797001,1.5478515625
6.801259,1.4990234375
6.8475092,1.4697265625
6.8477566,1.4306640625
6.8561981,1.3916015625
6.8932764,1.3623046875
6.9146069,1.328125
6.9189201,1.3037109375
6.9629429,1.26953125
6.9799792,1.2451171875
6.9803154,1.2109375
7.0140859,1.181640625
7.0405673,1.1572265625
7.0409439,1.142578125
7.0759438,1.123046875
7.0763226,1.11328125
7.1212488,1.0888671875
7.1221959,1.0791015625
7.1423267,1.064453125
7.1763588,1.0400390625
7.1808052,1.0205078125
7.1988469,0.99609375
7.245633,0.986328125
7.2460292,0.99609375
7.2604196,1.044921875
7.3077627,1.123046875
7.3081731,1.2255859375
7.3198547,1.3134765625
7.3688328,1.416015625
7.3692572,1.4892578125
7.3772811,1.572265625
7.4170895,1.630859375
7.4469912,1.6796875
7.4473115,1.7138671875
7.4591744,1.7333984375
7.493975,1.73828125
7.5146835,1.7138671875
7.5213168,1.6748046875
7.5365937,1.6259765625
7.5716575,1.5966796875
7.6017112,1.5625
7.6021247,1.5380859375
7.6200549,1.5087890625
7.6648888,1.4794921875
7.6652429,1.4404296875
7.6820135,1.4111328125
7.7276874,1.376953125
7.7279381,1.34765625
7.7365112,1.30859375
7.7842692,1.2841796875
7.8017381,1.2646484375
7.8021392,1.240234375
7.8360599,1.2158203125
7.8410325,1.19140625
7.8875676,1.171875
7.8880198,1.1474609375
7.9031157,1.1376953125
7.9178755,1.11328125
7.961361,1.1083984375
7.9617503,1.09375
7.9840482,1.083984375
8.0007773,1.064453125
8.0381066,1.0498046875
8.0404856,1.0302734375
8.0748839,1.0205078125
8.096112,1.015625
8.0980695,1.0693359375
8.1322872,1.1474609375
8.1539029,1.240234375
8.160452,1.3525390625
8.2097723,1.4453125
8.2100229,1.5380859375
8.2211629,1.6064453125
8.2714477,1.6748046875
8.271795,1.71875
8.2790002,1.767578125
8.3180509,1.787109375
8.3184917,1.7919921875
8.3544655,1.7724609375
8.3789306,1.7431640625
8.3836835,1.7041015625
8.4027114,1.66015625
8.4229121,1.6259765625
8.4382851,1.58203125
8.4891863,1.5576171875
8.4896847,1.4892578125
8.4992841,1.474609375
8.5326501,1.4453125
8.5541924,1.4208984375
8.5617096,1.38671875
8.5825745,1.357421875
8.6242156,1.3232421875
8.6244619,1.3037109375
8.6394007,1.26953125
8.6723275,1.259765625
8.6931429,1.240234375
8.7010971,1.220703125
8.7367898,1.19140625
8.7413494,1.1767578125
8.7894867,1.162109375
8.7948125,1.142578125
8.8031844,1.123046875
8.820265,1.103515625
8.867314,1.0986328125
8.8675885,1.0888671875
8.8812725,1.0791015625
8.9291434,1.0693359375
8.9295653,1.0546875
8.9582804,1.0595703125
8.9633571,1.0986328125
8.9785671,1.171875
9.0113203,1.2841796875
9.0329157,1.3818359375
9.0416798,1.484375
9.0774014,1.58203125
9.0992927,1.650390625
9.0997111,1.71875
9.145028,1.7626953125
9.1456172,1.8115234375
9.1649793,1.8310546875
9.1782032,1.8505859375
9.2135126,1.8408203125
9.2454284,1.81640625
9.2456838,1.7724609375
9.2614245,1.728515625
9.3057312,1.6845703125
9.3060947,1.640625
9.3265227,1.5966796875
9.3441392,1.5283203125
9.3600198,1.4697265625
9.3986805,1.46484375
9.417854,1.4453125
9.4199488,1.4111328125
9.4552849,1.3818359375
9.4759214,1.34765625
9.4822159,1.318359375
9.522893,1.2841796875
9.5231313,1.2548828125
9.5441032,1.2255859375
9.5612286,1.2109375
9.5998403,1.1865234375
9.6045473,1.1669921875
9.6229232,1.142578125
9.6427443,1.1328125
9.6783132,1.1181640625
9.6844326,1.1083984375
9.7052044,1.0986328125
9.7214062,1.07421875
9.7578227,1.064453125
9.7634467,1.044921875
9.7827428,1.03515625
9.8030324,1.015625
9.8232315,1.025390625
9.8617728,1.0693359375
9.8620952,1.1572265625
9.8800011,1.25
9.9168589,1.3671875
9.940233,1.46484375
9.940502,1.552734375
9.9785075,1.62109375
9.9831969,1.689453125
10.0309635,1.728515625
10.0313536,1.767578125
10.0434745,1.7919921875
10.0782066,1.7822265625
10.0787822,1.77734375
10.1122372,1.73828125
10.1334315,1.69921875
10.1425694,1.6552734375
10.1794536,1.62109375
10.1865975,1.58203125
10.2051009,1.5478515625
10.2430856,1.50390625
10.2433673,1.46484375
10.2613502,1.42578125
10.3054486,1.396484375
10.3095103,1.3671875
10.3238327,1.3330078125
10.3677514,1.298828125
10.3682619,1.2646484375
10.3826367,1.2353515625
10.4169233,1.201171875
10.4407113,1.181640625
10.4412922,1.1474609375
10.4847951,1.1376953125
10.4850386,1.11328125
10.5199737,1.0986328125
10.5223372,1.07421875
10.5565389,1.0546875
10.5777032,1.03515625
10.5858508,1.0205078125
10.6016756,1.0009765625
10.6401956,1.0009765625
10.640456,0.9814453125
10.677776,0.986328125
10.7045084,0.986328125
10.7089992,1.005859375
10.7241413,1.064453125
10.7681748,1.142578125
10.768571,1.2548828125
10.7824423,1.3525390625
10.8014031,1.4599609375
10.8375346,1.54296875
10.8625761,1.6162109375
10.8628196,1.669921875
10.8964774,1.7236328125
10.9171058,1.748046875
10.9256903,1.7626953125
10.9425478,1.7333984375
10.9615588,1.7138671875
11.0042086,1.6943359375
11.004572,1.66015625
11.0401488,1.6357421875
11.0443629,1.5966796875
11.0800674,1.5771484375
11.0839998,1.5478515625
11.1174963,1.5283203125
11.1374624,1.4892578125
11.1464581,1.46484375
11.1637981,1.42578125
11.2068748,1.4111328125
11.2130879,1.3818359375
11.2235879,1.357421875
11.2454759,1.318359375
11.2644732,1.2939453125
11.307033,1.259765625
11.3247976,1.2451171875
11.3251261,1.220703125
11.3429671,1.1962890625
11.3850467,1.1865234375
11.3855368,1.171875
11.4158479,1.1572265625
11.4356084,1.142578125
11.4435125,1.1328125
11.4778539,1.123046875
11.5100441,1.103515625
11.510439,1.0888671875
11.5222605,1.0888671875
11.5605861,1.09375
11.5649264,1.1376953125
11.6067941,1.2060546875
11.6071773,1.3037109375
11.624334,1.40625
11.6598903,1.494140625
11.6850521,1.58203125
11.685394,1.66015625
11.7183164,1.7431640625
11.7237101,1.7822265625
11.762659,1.8408203125
11.7629922,1.875
11.8075182,1.875
11.8255761,1.8115234375
11.8259749,1.748046875
11.843418,1.7041015625
11.8787962,1.689453125
11.8834267,1.669921875
11.921796,1.6650390625
11.9221982,1.640625
11.9634247,1.6162109375
11.9636685,1.5869140625
11.9839791,1.552734375
12.0182396,1.5185546875
12.0401921,1.4794921875
12.0452837,1.4453125
12.063368,1.40625
12.1065755,1.38671875
12.1109189,1.3525390625
12.1260688,1.318359375
12.1693859,1.2890625
12.1697175,1.259765625
12.2149573,1.2353515625
12.2155413,1.220703125
12.222808,1.1962890625
12.2585735,1.181640625
12.2930028,1.171875
12.2933012,1.1474609375
12.3144469,1.1328125
12.3255695,1.11328125
12.3623659,1.0986328125
12.3950351,1.07421875
12.3953871,1.0595703125
12.4024624,1.044921875
12.4404501,1.07421875
12.4460672,1.1279296875
12.4806664,1.2255859375
12.4845523,1.3232421875
12.5169021,1.42578125
12.5375823,1.5185546875
12.5457065,1.611328125
12.5800436,1.6748046875
12.5842215,1.7578125
12.6272913,1.81640625
12.6277332,1.8505859375
12.6592053,1.875
12.6815726,1.875
12.6859051,1.85546875
12.7236747,1.8212890625
12.7261237,1.7822265625
12.7599764,1.7333984375
12.7682466,1.69921875
12.7851731,1.62109375
12.8300465,1.5966796875
12.8303239,1.5673828125
12.845401,1.5380859375
12.8913623,1.4990234375
12.8917303,1.46484375
12.9124672,1.4306640625
12.9283601,1.3916015625
12.9703514,1.3525390625
12.9707589,1.318359375
12.9857153,1.298828125
13.0321139,1.26953125
13.0327064,1.2451171875
13.0462216,1.2109375
13.0945806,1.19140625
13.0949263,1.162109375
13.1078367,1.142578125
13.123868,1.11328125
13.1703959,1.103515625
13.1707144,1.0791015625
13.1928465,1.064453125
13.2067271,1.0400390625
13.2444074,1.0302734375
13.253107,1.015625
13.2668464,0.99609375
13.3111762,0.9814453125
13.3234857,0.986328125
13.3238985,1.0498046875
13.3694141,1.1376953125
13.3697491,1.25
13.3893606,1.3525390625
13.4053673,1.455078125
13.4422465,1.54296875
13.4748351,1.62109375
13.4751515,1.6845703125
13.4846184,1.748046875
13.5198109,1.787109375
13.5249196,1.806640625
13.5587146,1.8212890625
13.5799625,1.796875
13.5858252,1.7578125
13.6200367,1.7041015625
13.6411833,1.6650390625
13.6472419,1.6162109375
13.6810763,1.552734375
13.6853128,1.4990234375
13.7215057,1.4892578125
13.7420438,1.46484375
13.7451496,1.4501953125
13.7797246,1.42578125
13.8012631,1.4013671875
13.8078195,1.3671875
13.8297034,1.337890625
13.8461516,1.298828125
13.8821759,1.2890625
13.8845897,1.2646484375
13.9215659,1.2353515625
13.926365,1.2109375
13.9730015,1.1865234375
13.9732758,1.1669921875
14.0067472,1.142578125
14.0118341,1.123046875
14.0253922,1.103515625
14.0603579,1.09375
14.0665878,1.0791015625
14.1157055,1.064453125
14.1161374,1.0400390625
14.1280057,1.0302734375
14.1604792,1.015625
14.1826288,1.0205078125
14.1889071,1.07421875
14.2058975,1.1474609375
14.2565019,1.2646484375
14.2571179,1.3720703125
14.2657211,1.4794921875
14.2988995,1.5576171875
14.3200127,1.6357421875
14.3289633,1.6943359375
14.3639935,1.748046875
14.3644081,1.7724609375
14.4107471,1.8115234375
14.410999,1.8115234375
14.4317041,1.7919921875
14.4482579,1.7578125
14.488463,1.71875
14.488715,1.6748046875
14.5260133,1.640625
14.5304518,1.6015625
14.5510351,1.5478515625
14.5704571,1.513671875
14.5869054,1.474609375
14.6364795,1.455078125
14.636725,1.4208984375
14.646861,1.3916015625
14.6812919,1.3525390625
14.7131792,1.3232421875
14.7135133,1.2890625
14.7305636,1.259765625
14.7477524,1.23046875
14.7660363,1.2255859375
14.8069416,1.2109375
14.8114929,1.19140625
14.827906,1.1767578125
14.8722153,1.15234375
14.8725333,1.1376953125
14.9061507,1.1181640625
14.9102693,1.103515625
14.9261879,1.0791015625
14.9468498,1.0693359375
14.9663283,1.0546875
15.0061443,1.0400390625
15.0274031,1.025390625
15.0278324,1.03515625
15.068818,1.0693359375
15.0691278,1.1572265625
15.0897175,1.25
15.1071698,1.3720703125
15.1458796,1.46484375
15.1463028,1.5625
15.1817354,1.650390625
15.2091631,1.7138671875
15.2095799,1.7724609375
15.2540779,1.806640625
15.2544065,1.8359375
15.2663816,1.8408203125
15.2858005,1.845703125
15.3202718,1.81640625
15.3418084,1.7822265625
15.3474979,1.73828125
15.3827619,1.6943359375
15.4027923,1.650390625
15.4095071,1.611328125
15.4457163,1.5625
15.472869,1.5185546875
15.4731952,1.484375
15.4869559,1.4404296875
15.5350307,1.4111328125
15.5353206,1.3720703125
15.5655613,1.337890625
15.5673533,1.298828125
15.599417,1.26953125
15.6283989,1.2353515625
15.6286504,1.2109375
15.6478564,1.1767578125
15.6819809,1.1669921875
15.7036374,1.1328125
15.708032,1.0986328125
15.7437008,1.064453125
15.7483292,1.03515625
15.7840436,1.005859375
15.8042417,0.9912109375
15.8117581,0.95703125
15.8257053,0.927734375
15.8606168,0.9228515625
15.8882422,0.91796875
15.8885903,0.9130859375
15.9322015,0.9130859375
15.9326057,0.95703125
15.9521782,1.0302734375
15.9700849,1.142578125
15.988012,1.25
16.0364323,1.3671875
16.0368455,1.46484375
16.0488281,1.5625
16.0841078,1.630859375
16.0889572,1.6943359375
16.1112873,1.7529296875
16.1465981,1.7724609375
16.1510199,1.787109375
16.1659022,1.7724609375
16.2001436,1.7578125
16.2335837,1.6845703125
16.2338337,1.6552734375
16.2511303,1.62109375
16.2873662,1.5869140625
16.2879514,1.552734375
16.3415454,1.5234375
16.3418915,1.484375
16.3524339,1.4501953125
16.3678921,1.4111328125
16.4049215,1.38671875
16.4105729,1.3525390625
16.4497896,1.328125
16.4501231,1.298828125
16.4842589,1.2646484375
16.5040847,1.2353515625
16.5100916,1.2109375
16.5451039,1.1865234375
16.5666177,1.162109375
16.5684742,1.1572265625
16.6045965,1.1376953125
16.6088712,1.123046875
16.6455174,1.1083984375
16.6497639,1.0888671875
16.6841418,1.07421875
16.7079594,1.0595703125
16.7120407,1.03515625
16.7298801,1.0205078125
16.7645504,1.015625
16.7684661,1.0107421875
16.8013457,1.03515625
16.8213603,1.0986328125
16.8307962,1.2060546875
16.865556,1.3037109375
16.8938341,1.40625
16.8940755,1.4892578125
16.9088376,1.58203125
16.9562572,1.6455078125
16.9564953,1.708984375
16.9712327,1.7431640625
17.0083555,1.7724609375
17.0124734,1.77734375
17.0327161,1.7626953125
17.0519683,1.728515625
17.0724391,1.669921875
17.0951483,1.6162109375
17.1211148,1.5673828125
17.1316801,1.5576171875
17.1804199,1.533203125
17.1806755,1.5087890625
17.1894952,1.4794921875
17.2241012,1.4501953125
17.2451433,1.416015625
17.2535713,1.38671875
17.2698949,1.3525390625
17.3046685,1.3330078125
17.3087226,1.3037109375
17.3423569,1.2890625
17.363086,1.259765625
17.3714386,1.2353515625
17.4202404,1.220703125
17.4206384,1.1962890625
17.4336983,1.1767578125
17.4491006,1.1474609375
17.4968831,1.1474609375
17.4975759,1.1328125
17.5277693,1.123046875
17.5325075,1.103515625
17.5670611,1.09375
17.5713287,1.07421875
17.6212621,1.064453125
17.6216462,1.0546875
17.6497313,1.083984375
17.6499787,1.1328125
17.68346,1.220703125
17.705193,1.30859375
17.7115326,1.416015625
17.7594742,1.5087890625
17.7599468,1.5869140625
17.7726761,1.66015625
17.7902487,1.7138671875
17.8378259,1.7626953125
17.8382225,1.8017578125
17.8499606,1.8310546875
17.8718751,1.826171875
17.9075213,1.806640625
17.9131952,1.7724609375
17.9639317,1.728515625
17.964356,1.6796875
17.9734272,1.611328125
17.9910484,1.58203125
18.0111149,1.552734375
18.0336647,1.5283203125
18.0517821,1.4892578125
18.072388,1.4501953125
18.1151878,1.416015625
18.1154912,1.38671875
18.1349003,1.34765625
18.1719106,1.318359375
18.1722992,1.279296875
18.2171888,1.2646484375
18.2175312,1.2353515625
18.2320451,1.2158203125
18.2789006,1.1865234375
18.2791955,1.1669921875
18.2939452,1.142578125
18.3295906,1.123046875
18.3305531,1.0986328125
18.3631699,1.103515625
18.3850896,1.09375
18.3930425,1.07421875
18.4123129,1.064453125
18.4482902,1.0498046875
18.4506775,1.0302734375
18.4839766,1.0205078125
18.5048589,1.025390625
18.5104985,1.0498046875
18.544568,1.1279296875
18.5768248,1.2255859375
18.5770777,1.3330078125
18.5902362,1.42578125
18.6247482,1.5283203125
18.6454499,1.6015625
18.652535,1.669921875
18.6870509,1.7333984375
18.7066581,1.767578125
18.7086124,1.806640625
18.7413984,1.81640625
18.76188,1.8212890625
18.7715643,1.7919921875
18.807843,1.7529296875
18.8419596,1.7041015625
18.8423853,1.66015625
18.8524691,1.611328125
18.8865614,1.5771484375
18.9194921,1.5380859375
18.9198883,1.5087890625
18.9320656,1.474609375
18.968631,1.4404296875
18.9727735,1.4013671875
19.0203541,1.3720703125
19.0206061,1.337890625
19.0391019,1.298828125
19.0544701,1.26953125
19.0725408,1.2353515625
19.1158022,1.2158203125
19.1161107,1.1865234375
19.133467,1.171875
19.1690134,1.142578125
19.1733215,1.123046875
19.2203063,1.103515625
19.2371441,1.083984375
19.2377542,1.064453125
19.2511643,1.0595703125
19.2996092,1.0400390625
19.2998506,1.0302734375
19.3203685,1.0205078125
19.3341731,1.0009765625
19.3627259,0.986328125
19.3748973,0.9814453125
19.4095527,1.0205078125
19.4097967,1.083984375
19.4458898,1.1962890625
19.4773085,1.298828125
19.4776227,1.4013671875
19.4950735,1.4892578125
19.512988,1.5771484375
19.5349245,1.6357421875
19.5776125,1.689453125
19.5779194,1.7236328125
19.592373,1.7626953125
19.628196,1.7724609375
19.6327146,1.7724609375
19.6693882,1.7431640625
19.6715428,1.69921875
19.7048761,1.6552734375
19.7244405,1.611328125
19.7360871,1.5673828125
19.7544253,1.5283203125
19.7767136,1.494140625
19.7915061,1.4501953125
19.8280783,1.42578125
19.862079,1.3916015625
19.8623393,1.3623046875
19.8739672,1.3232421875
19.9303222,1.3037109375
19.9307509,1.2744140625
19.9346564,1.25
19.9736368,1.2255859375
19.9740895,1.1962890625
20.0093578,1.1865234375
20.0114191,1.162109375
20.0490798,1.142578125
20.0530032,1.1181640625
20.087708,1.103515625
20.1099246,1.0791015625
20.117021,1.0693359375
20.1320884,1.044921875
20.1827306,1.044921875
20.1829719,1.025390625
20.1934825,1.0205078125
20.2337137,1.0009765625
20.2339614,1.005859375
20.2723931,1.03515625
20.272696,1.103515625
20.3168945,1.1962890625
20.317141,1.2890625
20.3341487,1.396484375
20.3529045,1.484375
20.3739998,1.5625
20.3936474,1.62109375
20.4154135,1.669921875
20.4347892,1.7041015625
20.4718507,1.728515625
20.4721228,1.7236328125
20.5128665,1.71875
20.5131431,1.650390625
20.5505425,1.630859375
20.5523151,1.6015625
20.5859829,1.5673828125
20.6059456,1.5380859375
20.6139372,1.4990234375
20.6509777,1.4697265625
20.6838175,1.4306640625
20.6841281,1.40625
20.6922104,1.3720703125
20.7318439,1.34765625
20.7364805,1.318359375
20.7552945,1.2939453125
20.7747256,1.259765625
20.8136511,1.2353515625
20.8140038,1.2060546875
20.8371841,1.1865234375
20.852492,1.162109375
20.8884113,1.15234375
20.915571,1.1328125
20.9158552,1.1279296875
20.9419588,1.123046875
20.9562497,1.103515625
20.9934654,1.0888671875
20.9952989,1.07421875
21.0304909,1.0595703125
21.0626207,1.0400390625
21.0628979,1.03515625
21.0737587,1.03515625
21.1090224,1.064453125
21.1364416,1.1279296875
21.1404617,1.2255859375
21.1572301,1.3232421875
21.192316,1.42578125
21.1927147,1.50390625
21.230508,1.5966796875
21.2503255,1.6748046875
21.2522339,1.728515625
21.28908,1.7724609375
21.3087581,1.796875
21.3176158,1.8115234375
21.3524274,1.8017578125
21.3577357,1.77734375
21.3770933,1.7333984375
21.3982473,1.66015625
21.4138329,1.5966796875
21.449319,1.5869140625
21.453502,1.5673828125
21.4884025,1.54296875
21.5101512,1.5087890625
21.5144066,1.474609375
21.5485808,1.4404296875
21.5729489,1.4111328125
21.5779175,1.376953125
21.5939447,1.3427734375
21.6340868,1.3232421875
21.634428,1.2939453125
21.6644579,1.26953125
21.6763698,1.2353515625
21.7115804,1.2109375
21.731041,1.1865234375
21.7372265,1.162109375
21.7555974,1.1328125
21.77459,1.1181640625
21.8094174,1.103515625
21.8145198,1.09375
21.8516796,1.0693359375
21.8717206,1.0498046875
21.8776479,1.03515625
21.9110872,1.015625
21.9320278,1.0009765625
21.9323479,0.9912109375
21.9674885,1.0302734375
21.9879209,1.0888671875
21.9939902,1.1865234375
22.0261807,1.2841796875
22.0478617,1.396484375
22.0553999,1.484375
22.0991472,1.5771484375
22.0997047,1.6455078125
22.1312137,1.7236328125
22.1358542,1.7724609375
22.1852807,1.8115234375
22.1855959,1.826171875
22.1953545,1.8359375
22.2301753,1.8212890625
22.2632929,1.7822265625
22.2635399,1.73828125
22.2788935,1.689453125
22.3242084,1.6455078125
22.324457,1.6064453125
22.3366869,1.5771484375
22.3555968,1.5380859375
22.4011565,1.494140625
22.4016625,1.455078125
22.4219629,1.4111328125
22.437043,1.3720703125
22.4710095,1.3427734375
22.4920663,1.30859375
22.4951815,1.2841796875
22.5159655,1.259765625
22.536843,1.2255859375
22.5867979,1.201171875
22.5871083,1.171875
22.5980975,1.15234375
22.6464221,1.123046875
22.6467896,1.1083984375
22.654835,1.0791015625
22.6939487,1.07421875
22.7140672,1.0498046875
22.7163155,1.0400390625
22.753008,1.0205078125
22.7579439,1.0107421875
22.8024938,0.9912109375
22.8029007,0.9814453125
22.8146364,0.9765625
22.8472326,1.025390625
22.8699734,1.103515625
22.876432,1.1962890625
22.9134596,1.30859375
22.9155954,1.4013671875
22.9592495,1.4990234375
22.9595591,1.572265625
22.9797778,1.640625
22.9953449,1.689453125
23.0405574,1.73828125
23.0407982,1.767578125
23.0578119,1.77734375
23.0929326,1.7578125
23.0968365,1.728515625
23.1291416,1.6845703125
23.1491071,1.6455078125
23.1578392,1.611328125
23.2064599,1.572265625
23.2067022,1.5380859375
23.2277314,1.4990234375
23.2364508,1.474609375
23.2827375,1.4404296875
23.2831212,1.40625
23.2969936,1.3671875
23.3313954,1.337890625
23.3541001,1.298828125
23.3583448,1.26953125
23.3819493,1.2353515625
23.3960075,1.2158203125
23.4454944,1.19140625
23.4460778,1.171875
23.4628082,1.1474609375
23.4793528,1.1328125
23.5257861,1.11328125
23.5260801,1.0888671875
23.5394489,1.07421875
23.5571983,1.0546875
23.5932653,1.0498046875
23.597449,1.03515625
23.6407374,1.0302734375
23.6591655,1.015625
23.6594172,1.0107421875
23.6949682,1.0205078125
23.6991537,1.0791015625
23.7161811,1.162109375
23.752205,1.279296875
23.7550042,1.376953125
23.7924839,1.484375
23.8118931,1.572265625
23.8185918,1.640625
23.852751,1.69921875
23.8738853,1.73828125
23.8781245,1.767578125
23.8945672,1.77734375
23.9296795,1.7822265625
23.9511034,1.7236328125
23.9578666,1.7041015625
23.99172,1.6748046875
24.0119215,1.6455078125
24.0184836,1.6162109375
24.0506227,1.5869140625
24.0713993,1.552734375
24.0796508,1.5185546875
24.1136751,1.4794921875
24.1186847,1.455078125
24.1541224,1.42578125
24.156363,1.38671875
24.1917011,1.3525390625
24.2120946,1.318359375
24.2200592,1.2841796875
24.2397833,1.2548828125
24.2759264,1.2255859375
24.2761773,1.201171875
24.3089491,1.181640625
24.3296825,1.1669921875
24.3364074,1.142578125
24.3722814,1.123046875
24.3934945,1.1083984375
24.397835,1.09375
24.4339733,1.07421875
24.4545866,1.064453125
24.4599736,1.0400390625
24.4955869,1.03515625
24.4959906,1.025390625
24.5340653,1.0302734375
24.5667864,1.0400390625
24.5671885,1.103515625
24.5795536,1.181640625
24.6162703,1.2890625
24.6347111,1.3818359375
24.6369116,1.4990234375
24.6734867,1.5771484375
24.6975033,1.66015625
24.6979214,1.7138671875
24.7436229,1.767578125
24.7438681,1.796875
24.765552,1.8212890625
24.7819548,1.826171875
24.8019058,1.8017578125
24.8349079,1.7431640625
24.8392272,1.6796875
24.8770304,1.6552734375
24.8773691,1.6259765625
24.911002,1.591796875
24.9310988,1.5576171875
24.940019,1.5185546875
24.9855014,1.484375
24.9858204,1.4453125
24.9958357,1.40625
25.0311897,1.38671875
25.0532647,1.357421875
25.0597787,1.328125
25.095146,1.3037109375
25.098321,1.26953125
25.1387053,1.2451171875
25.165466,1.2109375
25.1658464,1.19140625
25.1785958,1.162109375
25.2140666,1.15234375
25.219283,1.1328125
25.2397705,1.1181640625
25.2746772,1.0986328125
25.2787824,1.083984375
25.3120566,1.064453125
25.3334976,1.0498046875
25.3380472,1.0302734375
25.3855256,1.0302734375
25.385926,1.015625
25.4280303,1.0205078125
25.4322341,1.0498046875
25.4415244,1.1083984375
25.4916487,1.201171875
25.4921795,1.2939453125
25.5015943,1.4013671875
25.5187214,1.484375
25.5687897,1.58203125
25.5691421,1.650390625
25.580347,1.708984375
25.6153573,1.748046875
25.62049,1.77734375
25.6601809,1.787109375
25.6605073,1.7822265625
25.6815863,1.7529296875
25.7160721,1.689453125
25.7365652,1.66015625
25.7386907,1.6162109375
25.7754094,1.5869140625
25.7985663,1.5576171875
25.800298,1.5234375
25.8333002,1.4892578125
25.853563,1.4501953125
25.8615044,1.4111328125
25.8827236,1.3720703125
25.9009037,1.3330078125
25.9339158,1.30859375
25.9407314,1.2744140625
25.9781514,1.2451171875
25.9784365,1.2109375
26.0186743,1.1865234375
26.0205196,1.1572265625
26.0536595,1.142578125
26.0738918,1.123046875
26.0779822,1.09375
26.1114759,1.083984375
26.131289,1.0693359375
26.1411121,1.0546875
26.1761161,1.03515625
26.2007302,1.0205078125
26.2009721,1.0009765625
26.2465264,0.986328125
26.2470535,0.966796875
26.2599395,0.966796875
26.2809944,0.9716796875
26.3005321,1.0302734375
26.3366087,1.1083984375
26.3411694,1.220703125
26.3762739,1.328125
26.403829,1.416015625
26.4042255,1.50390625
26.4199245,1.572265625
26.4545698,1.6455078125
26.4585673,1.6845703125
26.4932773,1.7236328125
26.5268479,1.728515625
26.5271938,1.728515625
26.541673,1.7041015625
26.5762234,1.6748046875
26.5975965,1.630859375
26.6039273,1.5966796875
26.6186603,1.552734375
26.6682402,1.5283203125
26.6684922,1.494140625
26.6818211,1.46484375
26.7305476,1.435546875
26.7308133,1.396484375
26.7427438,1.3623046875
26.7785704,1.328125
26.7983388,1.2890625
26.7987482,1.259765625
26.8406206,1.2451171875
26.857341,1.220703125
26.8592527,1.201171875
26.9030732,1.1767578125
26.9034678,1.15234375
26.9232733,1.1328125
26.9555265,1.1181640625
26.9760746,1.103515625
26.9806265,1.0986328125
27.0159234,1.09375
27.020767,1.0791015625
27.0587801,1.0693359375
27.0629267,1.0595703125
27.0846067,1.0546875
27.1024202,1.0498046875
27.1458263,1.0595703125
27.1461887,1.0888671875
27.162033,1.171875
27.2100557,1.259765625
27.2104646,1.3720703125
27.2229697,1.46484375
27.2496902,1.5576171875
27.2630381,1.630859375
27.2981256,1.7041015625
27.2985552,1.7431640625
27.3345064,1.8017578125
27.3558974,1.8310546875
27.3615915,1.8359375
27.3977277,1.826171875
27.401988,1.7919921875
27.4477703,1.748046875
27.4480325,1.69921875
27.4632217,1.66015625
27.4994751,1.6162109375
27.5181297,1.572265625
27.5184024,1.533203125
27.5547363,1.50390625
27.5757119,1.46484375
27.5820981,1.435546875
27.6176324,1.3916015625
27.6394902,1.3623046875
27.6434137,1.3330078125
27.6779151,1.2939453125
27.6997512,1.2646484375
27.7001496,1.23046875
27.7402246,1.2158203125
27.7419737,1.19140625
27.7774968,1.171875
27.7816735,1.1474609375
27.8143874,1.1279296875
27.8345463,1.103515625
27.8424357,1.0888671875
27.8881048,1.0693359375
27.8884991,1.064453125
27.9003092,1.0546875
27.9374665,1.0400390625
27.9428069,1.025390625
27.9841852,1.015625
27.9846437,1.005859375
28.0196912,1.0205078125
28.0238649,1.083984375
28.0400417,1.1669921875
28.0737252,1.2841796875
28.0949263,1.38671875
28.1012974,1.50390625
28.1371372,1.591796875
28.1690443,1.6748046875
28.1692841,1.7333984375
28.1840172,1.7822265625
28.2178531,1.806640625
28.2243088,1.8408203125
28.2571699,1.806640625
28.2620146,1.806640625
28.2970651,1.7822265625
28.3172748,1.73828125
28.3241073,1.6943359375
28.3437323,1.6455078125
28.3930078,1.611328125
28.3933084,1.5673828125
28.4051785,1.5234375
28.4389835,1.4794921875
28.4392954,1.4453125
28.4859928,1.40625
28.4862531,1.376953125
28.5065186,1.3427734375
28.5248102,1.30859375
28.5611997,1.2744140625
28.563005,1.240234375
28.5812342,1.201171875
28.6252752,1.19140625
28.6256704,1.171875
28.6456041,1.1474609375
28.6634029,1.123046875
28.698481,1.0986328125
28.7194051,1.083984375
28.7241021,1.0595703125
28.7668396,1.0498046875
28.7672559,1.0302734375
28.7806015,1.0205078125
28.8140812,1.005859375
28.836154,0.9912109375
28.8442535,0.9814453125
28.8914287,0.99609375
28.89172,1.0400390625
28.9054213,1.1279296875
28.9524543,1.2353515625
28.9526974,1.328125
28.9615833,1.4404296875
29.0004094,1.5185546875
29.0209471,1.6015625
29.0226069,1.650390625
29.0610196,1.69921875
29.0908892,1.7236328125
29.091237,1.7431640625
29.1047038,1.7431640625
29.1474507,1.708984375
29.1638422,1.6796875
29.1642398,1.66015625
29.1988733,1.630859375
29.2263533,1.5966796875
29.2266021,1.5576171875
29.2586775,1.5283203125
29.2792507,1.494140625
29.2854485,1.4501953125
29.3192457,1.416015625
29.3388824,1.376953125
29.3429391,1.3525390625
29.3771821,1.3232421875
29.3982679,1.298828125
29.4046323,1.26953125
29.4480851,1.240234375
29.4715926,1.2109375
29.4718327,1.1865234375
29.4825583,1.1572265625
29.5334931,1.1474609375
29.5341137,1.1279296875
29.5435263,1.1083984375
29.5802944,1.0986328125
29.5853399,1.083984375
29.6268938,1.0693359375
29.6273069,1.0546875
29.661512,1.0498046875
29.6619478,1.0302734375
29.6968302,1.0302734375
29.7179017,1.0302734375
29.7226983,1.064453125
29.756164,1.123046875
29.7782725,1.23046875
29.7868726,1.318359375
29.8370753,1.42578125
29.8375855,1.513671875
29.8430892,1.6064453125
29.8634749,1.6748046875
29.8982799,1.7431640625
29.9025086,1.787109375
29.93614,1.8115234375
29.9599059,1.826171875
29.9673177,1.81640625
29.98676,1.7919921875
30.0359887,1.748046875
30.0362891,1.708984375
30.0419998,1.66015625
30.0786614,1.630859375
30.0993611,1.5966796875
30.103268,1.5576171875
30.1354097,1.5185546875
30.1560696,1.494140625
30.1670434,1.4599609375
30.1878383,1.42578125
30.2307982,1.396484375
30.2310446,1.3525390625
30.2440813,1.3330078125
30.2944178,1.298828125
30.2947618,1.2744140625
30.3037843,1.2451171875
30.3359877,1.2158203125
30.3574202,1.19140625
30.3684549,1.1669921875
30.383829,1.142578125
30.4350042,1.1328125
30.4353971,1.1181640625
30.4651428,1.103515625
30.4655521,1.083984375
30.499465,1.0693359375
30.5196855,1.0498046875
30.5268224,1.0400390625
30.5620606,1.0302734375
30.5628567,1.0107421875
30.5966864,1.03515625
30.6176496,1.083984375
30.6283524,1.1767578125
30.6547901,1.2744140625
30.6675095,1.38671875
30.7125829,1.4794921875
30.7128985,1.5673828125
30.7243128,1.6357421875
30.7430721,1.708984375
30.7902135,1.7578125
30.7906379,1.806640625
30.8208138,1.826171875
30.8254526,1.8359375
30.8647567,1.826171875
30.8650611,1.787109375
30.8873535,1.7431640625
30.9219549,1.689453125
30.9421805,1.650390625
30.9425078,1.6015625
30.9835869,1.572265625
31.0019314,1.533203125
31.006129,1.494140625
31.0506276,1.4501953125
31.0510413,1.416015625
31.0681656,1.376953125
31.0897897,1.337890625
31.1042441,1.3037109375
31.1524555,1.2744140625
31.152698,1.240234375
31.1856134,1.2255859375
31.1859301,1.201171875
31.2331813,1.1767578125
31.2334271,1.15234375
31.2617426,1.123046875
31.2666135,1.0986328125
31.3003741,1.07421875
31.3044119,1.07421875
31.3385276,1.0595703125
31.3587335,1.044921875
31.365485,1.0302734375
31.3993726,1.015625
31.427478,0.9912109375
31.4278588,0.9814453125
31.4618708,0.9716796875
31.465773,1.0009765625
31.5029842,1.0693359375
31.5050644,1.1572265625
31.5379802,1.2646484375
31.5580765,1.3623046875
31.5663944,1.46484375
31.6043507,1.54296875
31.6084886,1.62109375
31.6262123,1.6748046875
31.6608863,1.7333984375
31.6652936,1.7626953125
31.7002823,1.7919921875
31.7309566,1.787109375
31.7313851,1.7724609375
31.748578,1.728515625
31.7829963,1.6943359375
31.7899419,1.640625
31.8266127,1.6064453125
31.8298523,1.5673828125
31.8455642,1.533203125
31.888514,1.4990234375
31.888861,1.46484375
31.9181962,1.42578125
31.9277088,1.38671875
31.9512189,1.357421875
31.9695474,1.318359375
32.0119051,1.279296875
32.0121573,1.240234375
32.026879,1.2158203125
32.0473356,1.1865234375
32.0868455,1.1669921875
32.0871172,1.1376953125
32.122551,1.1181640625
32.1444388,1.0986328125
32.1497228,1.07421875
32.1858588,1.0546875
32.1861219,1.03515625
32.2340423,1.0498046875
32.2343354,1.044921875
32.2484052,1.044921875
32.2855413,1.03515625
32.2909071,1.0302734375
32.3081264,1.025390625
32.3547013,1.0546875
32.3727577,1.11328125
32.3731078,1.2158203125
32.3857898,1.318359375
32.4351472,1.416015625
32.4354818,1.494140625
32.4632312,1.58203125
32.4671102,1.650390625
32.501941,1.689453125
32.5222147,1.7333984375
32.5297827,1.748046875
32.5508645,1.728515625
32.5668897,1.6943359375
32.5881644,1.6943359375
32.6243564,1.669921875
32.6287428,1.640625
32.6656713,1.611328125
32.6686072,1.58203125
32.703301,1.54296875
32.7265981,1.513671875
32.7270407,1.474609375
32.7595469,1.4501953125
32.780664,1.4306640625
32.7892462,1.396484375
32.8072028,1.3671875
32.8485719,1.3330078125
32.8654653,1.30859375
32.8695966,1.2744140625
32.9032013,1.2451171875
32.9235916,1.220703125
32.9261129,1.2060546875
32.9485055,1.1865234375
32.9831136,1.1767578125
32.9904737,1.15234375
33.0255078,1.142578125
33.0275656,1.123046875
33.0678245,1.1083984375
33.0680668,1.083984375
33.096757,1.0888671875
33.1069058,1.0791015625
33.1418201,1.064453125
33.1750069,1.0595703125
33.1754294,1.0791015625
33.189501,1.142578125
33.2485212,1.23046875
33.248985,1.337890625
33.252935,1.4306640625
33.2659979,1.533203125
33.2870975,1.6064453125
33.3063193,1.6796875
33.3389288,1.728515625
33.3600406,1.77734375
33.3686377,1.796875
33.4052094,1.806640625
33.4278273,1.8017578125
33.4281461,1.767578125
33.4721204,1.728515625
33.4723814,1.6796875
33.4925073,1.650390625
33.5085052,1.6064453125
33.550076,1.572265625
33.5504889,1.533203125
33.5807181,1.4990234375
33.5900082,1.4599609375
33.6232771,1.4306640625
33.6461524,1.3916015625
33.652106,1.3720703125
33.6690812,1.337890625
33.7179398,1.3037109375
33.7183389,1.26953125
33.7311671,1.2548828125
33.7513053,1.2255859375
33.7878166,1.1962890625
33.7903939,1.171875
33.8065175,1.1474609375
33.8459621,1.1328125
33.8640471,1.1181640625
33.8682826,1.103515625
33.9092182,1.0888671875
33.9094963,1.0791015625
33.9466271,1.0595703125
33.9512657,1.044921875
33.9678861,1.025390625
34.0040936,1.025390625
34.0093308,1.0205078125
34.0574982,1.0400390625
34.0578011,1.103515625
34.069008,1.1767578125
34.1208371,1.279296875
34.1210951,1.3720703125
34.1310038,1.4794921875
34.1484589,1.5576171875
34.1851433,1.6455078125
34.1899432,1.7041015625
34.2269892,1.7626953125
34.2289561,1.796875
34.250381,1.826171875
34.2945706,1.826171875
34.2948117,1.8115234375
34.3102979,1.77734375
34.3451443,1.7333984375
34.3732341,1.6796875
34.373605,1.650390625
34.3881018,1.62109375
34.4257765,1.58203125
34.4305967,1.54296875
34.4509068,1.50390625
34.4865147,1.46484375
34.5077971,1.4208984375
34.5128323,1.38671875
34.5414482,1.34765625
34.5481971,1.3232421875
34.5943016,1.2890625
34.5949165,1.259765625
34.6102866,1.23046875
34.6466375,1.2060546875
34.6767415,1.1767578125
34.6772562,1.1474609375
34.6922984,1.1279296875
34.7082584,1.0986328125
34.7436242,1.0888671875
34.7629127,1.07421875
34.7698658,1.064453125
34.8038554,1.044921875
34.8238268,1.025390625
34.8304293,1.005859375
34.8628241,0.986328125
34.8835321,0.966796875
34.8876078,0.9814453125
34.9238414,1.0009765625
34.9575062,1.07421875
34.9579238,1.162109375
34.9717289,1.26953125
35.0072655,1.3623046875
35.0111959,1.4599609375
35.0435882,1.54296875
35.0649695,1.6064453125
35.0697798,1.6748046875
35.1044323,1.7138671875
35.1084815,1.748046875
35.1407092,1.7529296875
35.1623205,1.7529296875
35.1765794,1.728515625
35.1920047,1.6943359375
35.2397796,1.6552734375
35.2400741,1.611328125
35.2711438,1.5673828125
35.2715761,1.5478515625
35.3063779,1.513671875
35.3102645,1.4794921875
35.3449303,1.4453125
35.3669184,1.40625
35.3783941,1.3671875
35.3932453,1.3330078125
35.4291193,1.3037109375
35.4294949,1.26953125
35.4636423,1.25
35.4854784,1.220703125
35.4903333,1.1962890625
35.5331661,1.171875
35.5335098,1.15234375
35.5630007,1.123046875
35.5778055,1.103515625
35.5891498,1.083984375
35.6249944,1.07421875
35.656653,1.0546875
35.6569282,1.0498046875
35.6717806,1.03515625
35.7178556,1.0205078125
35.7182011,1.005859375
35.7443743,0.99609375
35.7536887,1.0009765625
35.7699595,1.0400390625
35.8051615,1.1376953125
35.8102209,1.2353515625
35.8509164,1.337890625
35.8512113,1.4306640625
35.8838278,1.5087890625
35.905629,1.5771484375
35.9128142,1.6357421875
35.9303107,1.6796875
35.95497,1.71875
35.9799227,1.708984375
35.9919138,1.6796875
36.0274073,1.6845703125
36.0448593,1.66015625
36.0516107,1.640625
36.0940473,1.6015625
36.0944415,1.572265625
36.1148499,1.5380859375
36.155945,1.5087890625
36.1562766,1.4697265625
36.1708169,1.4501953125
36.207755,1.4208984375
36.2116353,1.3916015625
36.245498,1.3525390625
36.279033,1.328125
36.2793932,1.2890625
36.2935607,1.279296875
36.3278115,1.2548828125
36.3484111,1.23046875
36.3486557,1.2158203125
36.3923284,1.201171875
36.3926344,1.181640625
36.4126397,1.162109375
36.4538388,1.1474609375
36.4540875,1.1328125
36.4748142,1.1083984375
36.4909711,1.0888671875
36.5123887,1.083984375
36.5312632,1.0693359375
36.573773,1.064453125
36.5779445,1.0546875
36.5921094,1.0498046875
36.62935,1.0888671875
36.6359627,1.1474609375
36.654386,1.2451171875
36.6700781,1.3330078125
36.7166275,1.4501953125
36.7169556,1.5380859375
36.7462911,1.62109375
36.7536593,1.6796875
36.791715,1.73828125
36.7920921,1.77734375
36.8263908,1.8115234375
36.8466978,1.8212890625
36.8535849,1.796875
36.8712605,1.748046875
36.9147428,1.7333984375
36.9151131,1.69921875
36.9473059,1.6748046875
36.9513824,1.6357421875
36.9854657,1.5966796875
37.006089,1.5673828125
37.013037,1.5283203125
37.0499186,1.494140625
37.0733334,1.4501953125
37.0736947,1.4208984375
37.093433,1.38671875
37.128422,1.357421875
37.13483,1.318359375
37.1587427,1.2890625
37.1750537,1.25
37.1952753,1.220703125
37.2114501,1.19140625
37.2506009,1.1767578125
37.2701612,1.162109375
37.2720313,1.142578125
37.3064886,1.1181640625
37.3266796,1.0986328125
37.333167,1.09375
37.3666806,1.07421875
37.3938455,1.064453125
37.3941652,1.044921875
37.4126255,1.044921875
37.453608,1.03515625
37.4540093,1.0302734375
37.4992736,1.0400390625
37.4997032,1.09375
37.51349,1.171875
37.5490787,1.2744140625
37.568677,1.3671875
37.5705807,1.4794921875
37.6089781,1.5771484375
37.612167,1.640625
37.6478651,1.7138671875
37.6544857,1.7578125
37.6738474,1.796875
37.7160435,1.8115234375
37.7163065,1.8212890625
37.7381352,1.8017578125
37.7730525,1.767578125
37.7733948,1.7138671875
37.807128,1.6748046875
37.8111463,1.630859375
37.8465327,1.5966796875
37.8766343,1.552734375
37.8770708,1.5185546875
37.895734,1.484375
37.9316826,1.4404296875
37.9357928,1.4013671875
37.969107,1.357421875
37.9719313,1.337890625
37.9927766,1.3037109375
38.0269389,1.2744140625
38.048714,1.240234375
38.0560223,1.2158203125
38.0998637,1.181640625
38.1052153,1.162109375
38.1129506,1.1376953125
38.1483023,1.123046875
38.1527264,1.103515625
38.1933834,1.0888671875
38.1936757,1.0693359375
38.2129114,1.0595703125
38.2460652,1.044921875
38.2667868,1.0205078125
38.2747769,1.005859375
38.2907943,0.986328125
38.3325948,0.9814453125
38.3328833,0.986328125
38.3525144,1.015625
38.3863688,1.07421875
38.4112662,1.1669921875
38.4132709,1.2646484375
38.4482374,1.3623046875
38.4684926,1.4501953125
38.472737,1.5478515625
38.5093067,1.62109375
38.5132343,1.6796875
38.5467968,1.728515625
38.5802663,1.7529296875
38.580523,1.767578125
38.5944657,1.7529296875
38.6295753,1.7333984375
38.6601901,1.6943359375
38.6607904,1.6552734375
38.6716681,1.611328125
38.7038055,1.5869140625
38.7247279,1.5478515625
38.7340407,1.5234375
38.7674378,1.4794921875
38.7895237,1.4453125
38.7957961,1.40625
38.8319073,1.3720703125
38.8322346,1.3330078125
38.8537342,1.318359375
38.8885011,1.2939453125
38.9235668,1.2646484375
38.9239542,1.2353515625
38.9348396,1.2060546875
38.9947685,1.1865234375
38.9952532,1.162109375
39.0116599,1.142578125
39.0120737,1.123046875
39.04504,1.1083984375
39.0728578,1.09375
39.0732349,1.07421875
39.1048379,1.0546875
39.1270192,1.044921875
39.137152,1.0302734375
39.1747848,1.0205078125
39.1750366,1.015625
39.2113943,1.0107421875
39.2117822,1.0498046875
39.2512014,1.123046875
39.2819754,1.2255859375
39.2823027,1.318359375
39.2967328,1.416015625
39.3321167,1.4990234375
39.3364257,1.5771484375
39.3513138,1.6357421875
39.3849606,1.7041015625
39.4189484,1.7431640625
39.4193474,1.7724609375
39.4345765,1.7724609375
39.4678604,1.7578125
39.4898797,1.71875
39.4964684,1.6845703125
39.5429545,1.6455078125
39.5432281,1.6064453125
39.5626422,1.572265625
39.5760009,1.5380859375
39.6100655,1.513671875
39.6148632,1.4794921875
39.6476806,1.4501953125
39.6682659,1.416015625
39.6744904,1.3818359375
39.711863,1.3427734375
39.7326618,1.3134765625
39.7331047,1.279296875
39.7763461,1.26953125
39.776598,1.2451171875
39.7964841,1.2255859375
39.8297827,1.201171875
39.8495198,1.1767578125
39.8570757,1.1572265625
39.8983824,1.1376953125
39.8986382,1.123046875
39.9196455,1.0986328125
39.9350351,1.0986328125
39.9753793,1.083984375
39.9756276,1.07421875
40.0104149,1.0546875
40.0400468,1.044921875
40.0403574,1.0302734375
40.0751175,1.03515625
40.0754552,1.0595703125
40.1102403,1.1474609375
40.1149935,1.240234375
40.151177,1.3525390625
40.1559403,1.455078125
40.1915376,1.5380859375
40.198622,1.62109375
40.2478423,1.6796875
40.2480837,1.7333984375
40.2590199,1.7724609375
40.2922832,1.7724609375
40.2927039,1.767578125
40.3356557,1.787109375
40.3360462,1.7724609375
40.3564815,1.73828125
40.3899698,1.69921875
40.4124594,1.669921875
40.4165166,1.6357421875
40.4490715,1.5966796875
40.4695573,1.5625
40.4758336,1.513671875
40.5201483,1.484375
40.5204003,1.4501953125
40.5375683,1.42578125
40.580258,1.38671875
40.5805007,1.357421875
40.6139467,1.318359375
40.6181512,1.2841796875
40.6352093,1.25
40.6664773,1.2353515625
40.688955,1.2109375
40.6940507,1.19140625
40.7281971,1.1669921875
40.7483964,1.142578125
40.7591628,1.1181640625
40.7811053,1.1083984375
40.7990061,1.09375
40.815825,1.07421875
40.8551572,1.0693359375
40.8867515,1.0595703125
40.8870081,1.044921875
40.8984823,1.03515625
40.9480773,1.025390625
40.9483472,1.0302734375
40.9585327,1.07421875
40.9761689,1.1474609375
41.0126434,1.2548828125
41.0177611,1.3525390625
41.0364695,1.4599609375
41.0752611,1.54296875
41.0800066,1.62109375
41.0977831,1.689453125
41.1199509,1.728515625
41.1401624,1.767578125
41.1605852,1.787109375
41.1958999,1.7724609375
41.1962281,1.7578125
41.2305903,1.748046875
41.2528007,1.7041015625
41.2577498,1.6650390625
41.2976034,1.62109375
41.327563,1.5869140625
41.327959,1.54296875
41.3397608,1.5087890625
41.3564269,1.46484375
41.3919201,1.435546875
41.3961533,1.4013671875
41.4383129,1.376953125
41.438647,1.34765625
41.4695919,1.3134765625
41.4793761,1.2841796875
41.5142248,1.25
41.5184366,1.220703125
41.5548701,1.19140625
41.5552193,1.1767578125
41.5814098,1.1572265625
41.5976948,1.1376953125
41.6176172,1.1181640625
41.6372104,1.103515625
41.6766221,1.083984375
41.695214,1.0693359375
41.6961848,1.044921875
41.7332834,1.03515625
41.7351142,1.025390625
41.7678175,1.005859375
41.7883401,0.9912109375
41.7980152,0.9814453125
41.8320639,0.986328125
41.8525225,1.025390625
41.8592402,1.103515625
41.8794303,1.1962890625
41.8975993,1.30859375
41.9386738,1.4013671875
41.9389303,1.494140625
41.9725848,1.5625
42.0006921,1.630859375
42.0011072,1.6748046875
42.0362705,1.708984375
42.04042,1.7236328125
42.0759271,1.728515625
42.0801712,1.7138671875
42.0978031,1.6748046875
42.1411751,1.6455078125
42.1415767,1.6064453125
42.1579162,1.572265625
42.2046551,1.5380859375
42.2052844,1.50390625
42.2380116,1.4697265625
42.2401301,1.435546875
42.256783,1.396484375
42.2927409,1.3720703125
42.3132874,1.337890625
42.3177125,1.3134765625
42.3672476,1.279296875
42.367501,1.25
42.3854944,1.2255859375
42.4020078,1.19140625
42.4508462,1.1572265625
42.4510922,1.1328125
42.4572866,1.142578125
42.4927414,1.142578125
42.5253209,1.142578125
42.5256368,1.1328125
42.5401576,1.1279296875
42.5871489,1.11328125
42.587563,1.1083984375
42.5961212,1.09375
42.6317577,1.0986328125
42.6514272,1.0791015625
42.6577234,1.07421875
42.6937851,1.0693359375
42.6991997,1.1181640625
42.721277,1.19140625
42.757603,1.279296875
42.7619455,1.3720703125
42.7778623,1.4599609375
42.797365,1.552734375
42.842524,1.62109375
42.8428478,1.689453125
42.8592482,1.7333984375
42.8950789,1.7724609375
42.8992305,1.7822265625
42.9321378,1.7822265625
42.9658448,1.7626953125
42.9662563,1.728515625
42.9772742,1.689453125
43.0283711,1.66015625
43.0287676,1.630859375
43.0386713,1.591796875
43.0743047,1.5576171875
43.0950718,1.513671875
43.0999137,1.4794921875
43.1369755,1.4404296875
43.1689996,1.40625
43.1692957,1.3671875
43.1797826,1.3427734375
43.1978014,1.30859375
43.2315491,1.2841796875
43.261133,1.25
43.2615825,1.2255859375
43.3018427,1.19140625
43.3188668,1.171875
43.3191662,1.142578125
43.3542508,1.142578125
43.3584822,1.1328125
43.3951811,1.11328125
43.3977083,1.0986328125
43.4311341,1.083984375
43.4524041,1.07421875
43.4615163,1.0546875
43.4955187,1.0498046875
43.4982965,1.0302734375
43.5365198,1.0302734375
43.5368707,1.025390625
43.5829607,1.044921875
43.5831539,1.09375
43.6051433,1.1865234375
43.6218521,1.2890625
43.6708536,1.396484375
43.6714907,1.4990234375
43.6823265,1.5771484375
43.7015211,1.630859375
43.7194292,1.6748046875
43.7534168,1.7529296875
43.7750731,1.796875
43.7808648,1.826171875
43.8291659,1.8359375
43.8295668,1.8212890625
43.8428354,1.787109375
43.8897077,1.748046875
43.890027,1.69921875
43.9006575,1.669921875
43.9216473,1.630859375
43.9404423,1.591796875
43.9607237,1.552734375
43.9826945,1.5185546875
44.024444,1.4892578125
44.0247977,1.4453125
44.0622948,1.4111328125
44.0626414,1.3720703125
44.079819,1.3525390625
44.1265416,1.318359375
44.1269224,1.2939453125
44.1480645,1.2646484375
44.1761175,1.240234375
44.1834195,1.2109375
44.2018251,1.1865234375
44.2174947,1.162109375
44.2522489,1.1572265625
44.27232,1.1376953125
44.2811035,1.123046875
44.3167246,1.1083984375
44.3220004,1.09375
44.3558202,1.0791015625
44.3611912,1.064453125
44.4058269,1.0546875
44.4061568,1.03515625
44.4244737,1.03515625
44.4392955,1.044921875
44.4747912,1.09375
44.4980324,1.171875
44.4999737,1.2841796875
44.5334482,1.38671875
44.553683,1.4892578125
44.5615354,1.572265625
44.5821515,1.6259765625
44.5998969,1.66015625
44.638291,1.7431640625
44.6598331,1.796875
44.6600823,1.81640625
44.7012202,1.826171875
44.7304254,1.8115234375
44.7311471,1.77734375
44.7439608,1.73828125
44.7932871,1.69921875
44.7938737,1.6552734375
44.8005801,1.62109375
44.8386926,1.58203125
44.8390092,1.5478515625
44.8777788,1.5087890625
44.9079376,1.474609375
44.908352,1.4306640625
44.9246905,1.396484375
44.9607661,1.3671875
44.9611192,1.328125
44.9959388,1.3037109375
45.0009673,1.279296875
45.0371131,1.259765625
45.0598758,1.23046875
45.0601772,1.2109375
45.0990382,1.1865234375
45.1031935,1.171875
45.1197449,1.142578125
45.1610415,1.142578125
45.1613884,1.123046875
45.1833136,1.1083984375
45.2180753,1.09375
45.2223739,1.0791015625
45.2567359,1.0546875
45.2855634,1.0498046875
45.2858053,1.03515625
45.2998619,1.0302734375
45.3479946,1.07421875
45.3482998,1.1474609375
45.3702118,1.2451171875
45.3821107,1.337890625
45.4281086,1.4306640625
45.4284266,1.5087890625
45.4487221,1.58203125
45.4650053,1.6357421875
45.5045976,1.6796875
45.5048397,1.7041015625
45.5208553,1.73828125
45.5603801,1.7431640625
45.563177,1.728515625
45.5822951,1.7041015625
45.6318553,1.66015625
45.6322727,1.6259765625
45.6451474,1.5869140625
45.6661617,1.5576171875
45.6825821,1.5234375
45.7169252,1.4990234375
45.7212784,1.4697265625
45.7814717,1.4404296875
45.782304,1.40625
45.7873653,1.3818359375
45.8035263,1.34765625
45.8437912,1.3134765625
45.8441246,1.2841796875
45.8640205,1.26953125
45.8963996,1.2451171875
45.9011998,1.23046875
45.9250512,1.2109375
45.944579,1.19140625
45.9804576,1.1767578125
45.984956,1.1572265625
46.0046115,1.142578125
46.0216792,1.1181640625
46.0820546,1.1181640625
46.0823053,1.103515625
46.0869297,1.09375
46.102917,1.0791015625
46.1240157,1.064453125
46.1665926,1.0498046875
46.1669367,1.064453125
46.1902495,1.1083984375
46.2021756,1.201171875
46.2470927,1.30859375
46.2473339,1.396484375
46.2611811,1.484375
46.2963875,1.5576171875
46.3205599,1.630859375
46.3249554,1.6796875
46.3441914,1.7236328125
46.3805609,1.7529296875
46.3852106,1.7724609375
46.4018812,1.7724609375
46.4452302,1.7626953125
46.4454728,1.728515625
46.4780677,1.689453125
46.4845277,1.650390625
46.5255595,1.611328125
46.5260096,1.5673828125
46.5736356,1.54296875
46.5740531,1.513671875
46.5821133,1.474609375
46.6179699,1.4501953125
46.648894,1.4208984375
46.649316,1.3916015625
46.6625221,1.357421875
46.6982757,1.3330078125
46.7177607,1.298828125
46.724046,1.26953125
46.7412047,1.2353515625
46.7747254,1.2255859375
46.8001736,1.201171875
46.8061942,1.181640625
46.8240676,1.1572265625
46.866879,1.1376953125
46.8671449,1.123046875
46.8862776,1.103515625
46.9255714,1.0888671875
46.9259403,1.064453125
46.9430502,1.064453125
46.9872336,1.0498046875
46.9876341,1.044921875
47.0071045,1.0302734375
47.0405132,1.0302734375
47.04451,1.0498046875
47.0768977,1.1181640625
47.0972415,1.1962890625
47.1012158,1.3134765625
47.1342656,1.4013671875
47.1538864,1.4990234375
47.1618554,1.5673828125
47.1942508,1.650390625
47.2149878,1.708984375
47.2233333,1.748046875
47.2576934,1.77734375
47.2846337,1.787109375
47.2848759,1.787109375
47.3199575,1.767578125
47.3220694,1.7431640625
47.3550902,1.7041015625
47.3751465,1.66015625
47.384172,1.62109375
47.4189332,1.58203125
47.4399921,1.54296875
47.4460493,1.5087890625
47.4796167,1.4697265625
47.4837297,1.4453125
47.5190536,1.42578125
47.5535224,1.38671875
47.5537622,1.357421875
47.566406,1.328125
47.5868067,1.3037109375
47.6328701,1.2744140625
47.6331931,1.25
47.6428587,1.2158203125
47.6862276,1.2060546875
47.6865088,1.181640625
47.7211865,1.1669921875
47.7264312,1.142578125
47.7467597,1.123046875
47.7956817,1.103515625
47.7959712,1.0888671875
47.8037223,1.064453125
47.8252732,1.064453125
47.8439868,1.0498046875
47.8788517,1.03515625
47.8997261,1.0205078125
47.9037752,1.0107421875
47.9524047,1.015625
47.9526529,1.0546875
47.9724909,1.142578125
47.9873536,1.2353515625
48.0076928,1.30859375
48.0251509,1.376953125
48.0640185,1.484375
48.0643515,1.5625
48.1104871,1.6357421875
48.1107265,1.6796875
48.1261532,1.71875
48.1645238,1.7431640625
48.1648501,1.7431640625
48.2029007,1.728515625
48.2031577,1.6943359375
48.2368449,1.6650390625
48.2576823,1.6259765625
48.2641161,1.5966796875
48.3029036,1.5576171875
48.3300145,1.5283203125
48.3304567,1.484375
48.3633839,1.455078125
48.3636252,1.4111328125
48.3982854,1.38671875
48.426137,1.357421875
48.4263921,1.328125
48.4616815,1.2939453125
48.4656682,1.26953125
48.5003326,1.2451171875
48.5217515,1.2158203125
48.5285381,1.19140625
48.5445725,1.162109375
48.5789932,1.1572265625
48.5841062,1.1474609375
48.6181998,1.1474609375
48.63859,1.1376953125
48.6466022,1.1279296875
48.6819147,1.1181640625
48.7101068,1.103515625
48.7105068,1.0888671875
48.7238097,1.0888671875
48.7447601,1.07421875
48.7846195,1.0693359375
48.7849663,1.09375
48.8231348,1.1474609375
48.8305125,1.23046875
48.8471852,1.3232421875
48.8834113,1.4208984375
48.8884014,1.4990234375
48.9328558,1.5478515625
48.9331562,1.6162109375
48.95275,1.6845703125
48.9663044,1.7236328125
48.9997044,1.7578125
49.0200027,1.767578125
49.0266691,1.7626953125
49.0605032,1.7431640625
49.0803206,1.7041015625
49.0843157,1.66015625
49.1169247,1.6357421875
49.1380645,1.6064453125
49.1450715,1.572265625
49.1788532,1.5380859375
49.199061,1.4990234375
49.2079921,1.46484375
49.2566304,1.42578125
49.2568724,1.396484375
49.2652362,1.3623046875
49.303336,1.337890625
49.3080446,1.3134765625
49.3450123,1.2841796875
49.3453131,1.259765625
49.3812162,1.2353515625
49.4056202,1.2060546875
49.4087624,1.1865234375
49.42836,1.171875
49.4457382,1.142578125
49.4906379,1.1376953125
49.4909135,1.1181640625
49.5138084,1.11328125
49.5270834,1.09375
49.5719232,1.0791015625
49.5722578,1.0546875
49.6083404,1.044921875
49.6085846,1.025390625
49.6249698,1.03515625
49.660447,1.044921875
49.6809962,1.0888671875
49.6871949,1.162109375
49.7217599,1.2646484375
49.726392,1.357421875
49.7605702,1.46484375
49.7841463,1.5576171875
49.7883607,1.6259765625
49.8272593,1.6943359375
49.8278501,1.7431640625
49.847226,1.787109375
49.8814854,1.81640625
49.9030913,1.8310546875
49.9073536,1.8212890625
49.9448834,1.7919921875
49.9497404,1.748046875
49.9970373,1.69921875
49.9973343,1.650390625
50.0068821,1.62109375
50.0257814,1.5869140625
50.0739436,1.5478515625
50.0742689,1.513671875
50.0938663,1.474609375
50.1100434,1.435546875
50.1473836,1.396484375
50.1476279,1.3720703125
50.1839934,1.3330078125
50.1866476,1.3134765625
50.2313691,1.2841796875
50.2316624,1.259765625
50.2613844,1.23046875
50.2676005,1.2109375
50.3022333,1.181640625
50.3226297,1.162109375
50.3245219,1.1328125
50.3571829,1.1279296875
50.3850213,1.1083984375
50.3853294,1.103515625
50.4328632,1.0888671875
50.4331222,1.0693359375
50.4657157,1.0546875
50.4678136,1.0400390625
50.5033102,1.0302734375
50.5249788,1.0205078125
50.5254484,1.0400390625
50.5602729,1.0791015625
50.5800663,1.1572265625
50.5860272,1.25
50.6205643,1.3525390625
50.6510278,1.435546875
50.651346,1.533203125
50.6698831,1.6064453125
50.69081,1.669921875
50.7316351,1.7236328125
50.7320632,1.7529296875
50.749665,1.787109375
50.7848452,1.796875
50.7891508,1.7919921875
50.8234447,1.7529296875
50.8274489,1.7138671875
50.8485856,1.6650390625
50.8845278,1.6162109375
50.9041789,1.572265625
50.9060545,1.54296875
50.9394615,1.5087890625
50.9606745,1.474609375
50.969027,1.435546875
51.0073379,1.4013671875
51.0093186,1.3623046875
51.0452196,1.328125
51.0659494,1.2939453125
51.0662909,1.259765625
51.100783,1.240234375
51.1202997,1.2158203125
51.1335099,1.19140625
51.1498168,1.1669921875
51.1843501,1.1474609375
51.1905601,1.123046875
51.2294932,1.1083984375
51.2299259,1.0888671875
51.2476472,1.083984375
51.293999,1.064453125
51.29442,1.0595703125
51.3095846,1.0400390625
51.3563789,1.025390625
51.3566975,1.015625
51.3682205,0.99609375
51.4003457,0.9912109375
51.4212119,1.015625
51.4364026,1.09375
51.4479307,1.1474609375
51.4962051,1.26953125
51.4964427,1.3720703125
51.5108652,1.46484375
51.5329169,1.5380859375
51.5504867,1.6064453125
51.5858255,1.650390625
51.6115402,1.6943359375
51.6119032,1.708984375
51.6319303,1.728515625
51.6498503,1.71875
51.6971667,1.69921875
51.6975329,1.6650390625
51.7092141,1.62109375
51.7502873,1.58203125
51.7505927,1.54296875
51.7821695,1.5087890625
51.8022825,1.4697265625
51.8088305,1.4453125
51.8561335,1.4111328125
51.8570428,1.376953125
51.8704169,1.3427734375
51.9057957,1.3134765625
51.9115249,1.2744140625
51.9451994,1.25
51.9658578,1.2158203125
51.967447,1.201171875
52.0000932,1.1865234375
52.0210719,1.162109375
52.0293602,1.142578125
52.0760015,1.123046875
52.0762519,1.11328125
52.0961394,1.09375
52.1125382,1.083984375
52.1331776,1.0595703125
52.1479239,1.0595703125
52.1950539,1.0498046875
52.1952989,1.044921875
52.2284096,1.0302734375
52.2286625,1.025390625
52.2733919,1.0302734375
52.2736389,1.083984375
52.2919642,1.162109375
52.3119002,1.240234375
52.3330103,1.328125
52.349542,1.4013671875
52.3963732,1.5185546875
52.4016196,1.6015625
52.4117616,1.669921875
52.4326323,1.7138671875
52.4692715,1.7529296875
52.469735,1.767578125
52.5092561,1.7724609375
52.5096608,1.748046875
52.529615,1.7236328125
52.5620144,1.6845703125
52.5823111,1.6455078125
52.5911165,1.6015625
52.6261686,1.5673828125
52.6358089,1.533203125
52.6520316,1.4892578125
52.700977,1.455078125
52.7012304,1.4208984375
52.7101169,1.40625
52.7497751,1.376953125
52.7501523,1.3525390625
52.7837329,1.318359375
52.8049504,1.2890625
52.8118063,1.2548828125
52.8495081,1.23046875
52.8498977,1.2060546875
52.8969979,1.19140625
52.9040316,1.171875
52.9113434,1.1572265625
52.9485827,1.1328125
52.9489017,1.123046875
52.9853587,1.103515625
53.0088939,1.0888671875
53.0139467,1.07421875
53.028022,1.0546875
53.0507323,1.0498046875
53.0866404,1.0400390625
53.0914884,1.03515625
53.1379303,1.03515625
53.1383408,1.07421875
53.1515161,1.1376953125
53.1862656,1.240234375
53.206301,1.3330078125
53.2132899,1.416015625
53.2363848,1.50390625
53.2499827,1.6015625
53.2853887,1.6845703125
53.3063636,1.7333984375
53.3105073,1.77734375
53.3457004,1.796875
53.3669173,1.8115234375
53.3738141,1.796875
53.4026735,1.7724609375
53.4217715,1.728515625
53.4281074,1.6943359375
53.4628845,1.6455078125
53.4961539,1.6064453125
53.4964763,1.5625
53.5115336,1.5234375
53.5510513,1.484375
53.5814546,1.4453125
53.5817757,1.40625
53.5991114,1.38671875
53.6099692,1.357421875
53.6460331,1.318359375
53.6686803,1.2890625
53.6732919,1.2548828125
53.7072416,1.2255859375
53.7119568,1.19140625
53.7460698,1.171875
53.7665434,1.142578125
53.7708311,1.1328125
53.8009778,1.11328125
53.8329944,1.09375
53.838651,1.07421875
53.8529078,1.0595703125
53.8878333,1.044921875
53.9037075,1.025390625
53.9149407,1.015625
53.9312537,0.9912109375
53.9503278,0.986328125
53.9868215,0.9765625
54.020908,0.9814453125
54.0211534,1.015625
54.0335882,1.0888671875
54.0531648,1.181640625
54.0993858,1.2890625
54.0996731,1.376953125
54.1144298,1.474609375
54.1304834,1.5380859375
54.1674186,1.6162109375
54.1728423,1.6650390625
54.1921954,1.7041015625
54.2264623,1.7236328125
54.2473531,1.73828125
54.2516208,1.728515625
54.2855349,1.69921875
54.3154704,1.66015625
54.3158842,1.6162109375
54.3311924,1.58203125
54.365117,1.5478515625
54.3849574,1.513671875
54.3932147,1.474609375
54.4273275,1.435546875
54.4325236,1.4013671875
54.4728616,1.3623046875
54.4731855,1.328125
54.4922408,1.30859375
54.5342706,1.279296875
54.5345711,1.2451171875
54.5524304,1.220703125
54.5947172,1.1865234375
54.5951253,1.162109375
54.6146011,1.1328125
54.6512517,1.1083984375
54.651526,1.083984375
54.7143346,1.0791015625
54.7146529,1.0693359375
54.7187669,1.0693359375
54.7320485,1.0546875
54.7815808,1.0546875
54.7819522,1.0400390625
54.8018644,1.0302734375
54.8104976,1.015625
54.8446633,1.0205078125
54.8649415,1.03515625
54.8714793,1.103515625
54.9074589,1.1962890625
54.9370656,1.2841796875
54.9374918,1.38671875
54.9833318,1.46484375
54.9835973,1.5478515625
54.9943248,1.6064453125
55.0299731,1.66015625
55.0484478,1.6943359375
55.0507633,1.728515625
55.0867914,1.7431640625
55.1068203,1.73828125
55.1132584,1.708984375
55.1365135,1.6748046875
55.1553095,1.6357421875
55.1899911,1.5966796875
55.1940618,1.5625
55.2278854,1.5234375
55.2319875,1.4990234375
55.2668513,1.46484375
55.2876697,1.4404296875
55.2934655,1.40625
55.3278292,1.376953125
55.3512162,1.3427734375
55.3530988,1.3134765625
55.3699303,1.279296875
55.4042945,1.2646484375
55.4286312,1.240234375
55.4327394,1.2158203125
55.4766695,1.19140625
55.477019,1.171875
55.5100051,1.1474609375
55.5143595,1.1376953125
55.5506421,1.123046875
55.5510426,1.0986328125
55.5864645,1.0986328125
55.6065094,1.0791015625
55.613435,1.0693359375
55.6472974,1.0546875
55.6679272,1.044921875
55.6738435,1.03515625
55.7091958,1.0498046875
55.729985,1.0986328125
55.7345056,1.1962890625
55.7701708,1.25
55.7704223,1.376953125
55.808058,1.474609375
55.8416705,1.5673828125
55.8419184,1.650390625
55.8563246,1.7041015625
55.9020539,1.748046875
55.9024569,1.77734375
55.9160645,1.796875
55.9330013,1.7919921875
55.953891,1.7822265625
55.9736866,1.7529296875
56.0226993,1.71875
56.0231196,1.669921875
56.0354272,1.630859375
56.0713936,1.5869140625
56.0765445,1.552734375
56.0917044,1.5087890625
56.1277449,1.484375
56.1468298,1.4453125
56.1550676,1.4111328125
56.1747728,1.376953125
56.2200962,1.337890625
56.2243821,1.3037109375
56.2341476,1.26953125
56.2689126,1.2353515625
56.2892696,1.2060546875
56.292049,1.19140625
56.3229421,1.171875
56.3437555,1.15234375
56.3585182,1.1279296875
56.3757952,1.1083984375
56.4223589,1.0888671875
56.4226055,1.0791015625
56.4334827,1.0595703125
56.4694916,1.0546875
56.4738872,1.044921875
56.517387,1.025390625
56.5176942,1.015625
56.5354388,1.0009765625
56.5717589,1.0107421875
56.576033,1.0498046875
56.6136932,1.1376953125
56.618256,1.23046875
56.6551174,1.3134765625
56.6556337,1.4111328125
56.7023615,1.5234375
56.7027893,1.6015625
56.715718,1.6796875
56.7669569,1.7333984375
56.7675814,1.77734375
56.7775052,1.796875
56.8154924,1.8212890625
56.8181936,1.8115234375
56.8323487,1.787109375
56.8747344,1.7529296875
56.8753372,1.7138671875
56.911547,1.669921875
56.9159845,1.6259765625
56.9437446,1.5869140625
56.9572383,1.5478515625
57.0001473,1.5087890625
57.0004853,1.46484375
57.0134199,1.42578125
57.0601984,1.3916015625
57.0604525,1.3525390625
57.0752814,1.3134765625
57.1236993,1.279296875
57.1240896,1.25
57.1432464,1.2109375
57.1582948,1.1865234375
57.173186,1.1572265625
57.2181821,1.1474609375
57.2185114,1.123046875
57.2483971,1.1083984375
57.2550696,1.0888671875
57.2921522,1.07421875
57.2972279,1.0498046875
57.3169836,1.03515625
57.3334071,1.015625
57.3707678,1.0107421875
57.3911414,1.0009765625
57.3929132,0.9912109375
57.4342966,0.9912109375
57.465598,1.03515625
57.4659971,1.1083984375
57.4833337,1.1962890625
57.4975186,1.298828125
57.5172912,1.3916015625
57.5571062,1.484375
57.5574215,1.552734375
57.5836723,1.6259765625
57.5950348,1.6748046875
57.6293041,1.7138671875
57.6500924,1.7333984375
57.6564899,1.73828125
57.6947265,1.71875
57.6969628,1.689453125
57.7126196,1.650390625
57.7495961,1.6162109375
57.7704015,1.5869140625
57.7752437,1.552734375
57.8116162,1.5185546875
57.847555,1.484375
57.847799,1.455078125
57.8581911,1.4208984375
57.8943023,1.38671875
57.8945903,1.34765625
57.9281014,1.3232421875
57.9477628,1.2939453125
57.9562232,1.26953125
57.99857,1.240234375
57.9988108,1.2158203125
58.0188051,1.1962890625
58.0635219,1.1767578125
58.0638822,1.15234375
58.0740458,1.1474609375
58.1102867,1.1328125
58.1143554,1.11328125
58.1478995,1.0986328125
58.1733857,1.0791015625
58.1779248,1.064453125
58.2179101,1.044921875
58.2183154,1.0302734375
58.2327028,1.0205078125
58.2845154,1.0400390625
58.2847768,1.083984375
58.3018033,1.1669921875
58.3174337,1.2646484375
58.3662221,1.3720703125
58.3664683,1.4599609375
58.3776396,1.5478515625
58.4136737,1.6259765625
58.4174534,1.669921875
58.4514308,1.71875
58.4753172,1.7431640625
58.4757158,1.7724609375
58.5109388,1.7724609375
58.5372117,1.7626953125
58.5374737,1.7236328125
58.5713588,1.6845703125
58.5917139,1.640625
58.5978771,1.6015625
58.6311137,1.5576171875
58.6351242,1.533203125
58.6784304,1.4990234375
58.6788174,1.4697265625
58.6988241,1.435546875
58.7309307,1.40625
58.7526456,1.3720703125
58.7595891,1.337890625
58.7796785,1.30859375
58.7965278,1.26953125
58.8484685,1.2548828125
58.8488726,1.2353515625
58.8578168,1.220703125
58.9043372,1.1962890625
58.9047369,1.1767578125
58.917951,1.1572265625
58.9665323,1.1376953125
58.9673008,1.123046875
58.9748528,1.1181640625
59.0105117,1.103515625
59.0301456,1.0888671875
59.0362335,1.083984375
59.0754792,1.064453125
59.0946503,1.0546875
59.0973413,1.044921875
59.1345679,1.083984375
59.1536153,1.142578125
59.1563139,1.2451171875
59.1904411,1.3427734375
59.2187836,1.4453125
59.2191073,1.5283203125
59.2540277,1.6162109375
59.2580687,1.6748046875
59.3052268,1.7333984375
59.305543,1.767578125
59.3192041,1.796875
59.335826,1.8017578125
59.3714232,1.81640625
59.3929648,1.796875
59.3985976,1.7578125
59.4195855,1.7138671875
59.4389635,1.669921875
59.4823058,1.6259765625
59.4827025,1.58203125
59.515996,1.54296875
59.5163326,1.4990234375
59.5495712,1.4697265625
59.5703847,1.4306640625
59.5776842,1.396484375
59.6223328,1.3623046875
59.6226544,1.3330078125
59.6543457,1.2939453125
59.6604409,1.2646484375
59.6968243,1.2353515625
59.6970769,1.201171875
59.7320336,1.181640625
59.751681,1.1572265625
59.7570482,1.142578125
59.7901632,1.1181640625
59.8103511,1.103515625
59.8186749,1.0791015625
59.8546038,1.064453125
59.873953,1.044921875
59.8762655,1.0400390625
59.9141743,1.0302734375
59.9165458,1.0205078125
59.9521826,1.0107421875
59.9726968,1.0205078125
59.9808928,1.0595703125
60.0179959,1.1474609375
60.0183199,1.2451171875
60.0521995,1.337890625
60.0619855,1.4111328125
60.0789893,1.474609375
60.0974683,1.5771484375
60.1339071,1.6455078125
60.1646191,1.708984375
60.1648774,1.748046875
60.1805458,1.7724609375
60.2000138,1.77734375
60.2350804,1.7626953125
60.2552986,1.7333984375
60.2571287,1.7041015625
60.2902081,1.66015625
60.3105662,1.62109375
60.3181635,1.5869140625
60.3531898,1.5478515625
60.3741139,1.5087890625
60.3803908,1.46484375
60.4152002,1.4306640625
60.4352348,1.396484375
60.4377217,1.3671875
60.4581261,1.3330078125
60.4973666,1.298828125
60.5001146,1.2646484375
60.5348711,1.240234375
60.5390119,1.2060546875
60.5732593,1.181640625
60.5937926,1.15234375
60.5957032,1.1376953125
60.6298388,1.11328125
60.6542607,1.0986328125
60.6586268,1.083984375
60.6992699,1.064453125
60.6995109,1.0498046875
60.7452689,1.025390625
60.7495755,1.015625
60.7566904,0.99609375
60.7929757,0.99609375
60.8133412,1.0009765625
60.8182959,1.044921875
60.8638483,1.1181640625
60.864253,1.2158203125
60.8810238,1.3134765625
60.9259814,1.4208984375
60.9263435,1.5087890625
60.9525888,1.5625
60.9629511,1.640625
60.9799782,1.6845703125
61.016634,1.7333984375
61.0169764,1.748046875
61.0529426,1.7578125
61.0741826,1.7333984375
61.0802277,1.69921875
61.1155998,1.6552734375
61.1353653,1.62109375
61.1372039,1.58203125
61.169228,1.5673828125
61.1910664,1.533203125
61.1991239,1.4990234375
61.2316772,1.46484375
61.2522346,1.4306640625
61.2611695,1.3916015625
61.3058516,1.3720703125
61.3062037,1.337890625
61.3261667,1.3037109375
61.3398105,1.279296875
61.383647,1.2548828125
61.3839574,1.23046875
61.4010759,1.2109375
61.4389141,1.19140625
61.4436799,1.1767578125
61.4625312,1.1572265625
61.4781848,1.142578125
61.5127066,1.1328125
61.5338581,1.123046875
61.5401922,1.11328125
61.5791422,1.0986328125
61.579585,1.083984375
61.6131347,1.07421875
61.6332677,1.0595703125
61.642747,1.0693359375
61.6592069,1.103515625
61.6931433,1.1962890625
61.6987933,1.2890625
61.7361363,1.3916015625
61.7663113,1.4794921875
61.7667025,1.5673828125
61.7812628,1.630859375
61.8272895,1.69921875
61.8276273,1.73828125
61.8478219,1.767578125
61.8585466,1.7822265625
61.9050735,1.7919921875
61.9054671,1.7724609375
61.9246549,1.7578125
61.9412285,1.71875
61.9816993,1.669921875
61.9823594,1.630859375
62.0182268,1.591796875
62.0338186,1.552734375
62.0405496,1.5087890625
62.0862331,1.484375
62.0865608,1.4501953125
62.1015231,1.4208984375
62.1375073,1.3818359375
62.1419199,1.34765625
62.1774268,1.3134765625
62.1823369,1.2890625
62.1982688,1.2548828125
62.2354922,1.240234375
62.2571062,1.220703125
62.2615362,1.1962890625
62.2822588,1.171875
62.309236,1.15234375
62.3207989,1.1328125
62.3566848,1.11328125
62.3795277,1.09375
62.3826967,1.0693359375
62.4007828,1.064453125
62.4425801,1.0498046875
62.4429887,1.0400390625
62.4782042,1.0205078125
62.4801973,1.015625
62.5163284,1.015625
62.5488446,1.0595703125
62.5491622,1.1328125
62.5616148,1.2451171875
62.5812031,1.357421875
62.6020659,1.4501953125
62.6207613,1.5380859375
62.655999,1.611328125
62.6608962,1.6748046875
62.6996733,1.7236328125
62.720012,1.7626953125
62.7230176,1.7822265625
62.7583662,1.787109375
62.7914919,1.7724609375
62.7917311,1.7529296875
62.8023243,1.71875
62.8216502,1.6796875
62.843981,1.6357421875
62.8632728,1.5966796875
62.8841665,1.5625
62.925053,1.5185546875
62.9253986,1.4794921875
62.9399465,1.4453125
62.9736099,1.4306640625
62.9963408,1.3916015625
63.00209,1.357421875
63.0343819,1.3232421875
63.0545738,1.2890625
63.0617455,1.2548828125
63.111148,1.2255859375
63.1114778,1.19140625
63.1312811,1.1767578125
63.1413967,1.15234375
63.1771978,1.1279296875
63.1820535,1.103515625
63.219671,1.0888671875
63.2215826,1.07421875
63.2532534,1.0498046875
63.288855,1.03515625
63.2891023,1.0107421875
63.3019328,1.0009765625
63.3218214,0.986328125
63.3429585,0.9765625
63.3619464,0.966796875
63.4015063,0.9765625
63.4018397,1.025390625
63.4218871,1.11328125
63.456382,1.2109375
63.4661412,1.3330078125
63.4807227,1.3916015625
63.5211035,1.50390625
63.5214654,1.591796875
63.5409529,1.6455078125
63.5767644,1.6943359375
63.5979422,1.7236328125
63.6052379,1.7431640625
63.6397481,1.73828125
63.6445937,1.7138671875
63.6613225,1.6748046875
63.7083655,1.6455078125
63.7089214,1.611328125
63.7236774,1.5869140625
63.7591759,1.5478515625
63.7634763,1.513671875
63.7844738,1.474609375
63.8322945,1.4404296875
63.8325945,1.396484375
63.8683085,1.3818359375
63.8689441,1.34765625
63.8810897,1.3134765625
63.9322799,1.2841796875
63.9373908,1.259765625
63.9423077,1.23046875
63.9798359,1.2060546875
64.0019639,1.19140625
64.0025814,1.171875
64.0525909,1.162109375
64.0528354,1.1474609375
64.0641966,1.1328125
64.1146077,1.11328125
64.1148523,1.103515625
64.1248174,1.083984375
64.1594752,1.0693359375
64.1635013,1.0546875
64.1961011,1.03515625
64.2002138,1.03515625
64.2348197,1.0498046875
64.2556162,1.103515625
64.2626873,1.1767578125
64.3128219,1.279296875
64.3131638,1.3720703125
64.3256832,1.4697265625
64.3465228,1.54296875
64.3656471,1.5869140625
64.3830929,1.6259765625
64.4190908,1.69921875
64.4234605,1.73828125
64.469158,1.7626953125
64.4693987,1.7578125
64.4835423,1.748046875
64.5171218,1.71875
64.5462056,1.6796875
64.5465455,1.640625
64.5623318,1.6015625
64.5953504,1.5771484375
64.6173829,1.5478515625
64.6246912,1.513671875
64.6701291,1.4794921875
64.670488,1.4453125
64.6843101,1.4111328125
64.7314914,1.3818359375
64.7391509,1.3427734375
64.7410778,1.328125
64.7747066,1.298828125
64.7950757,1.2744140625
64.8044879,1.25
64.8412322,1.220703125
64.8438776,1.1962890625
64.8787249,1.171875
64.899915,1.1572265625
64.9004583,1.1328125
64.9384186,1.1279296875
64.9593364,1.11328125
64.9617356,1.103515625
64.995992,1.083984375
65.01604,1.0791015625
65.0259251,1.0693359375
65.0624206,1.0595703125
65.062739,1.0595703125
65.0963272,1.103515625
65.1179802,1.1767578125
65.1361008,1.2841796875
65.1446395,1.38671875
65.1855902,1.474609375
65.1859074,1.5625
65.2333783,1.630859375
65.2336208,1.6943359375
65.2697303,1.7431640625
65.2699863,1.787109375
65.2856247,1.806640625
65.3053014,1.8310546875
65.3481039,1.8212890625
65.3485398,1.7919921875
65.3644691,1.748046875
65.3863889,1.7041015625
65.4219312,1.66015625
65.4270187,1.6162109375
65.4481184,1.5771484375
65.4635095,1.533203125
65.5116962,1.4990234375
65.5120284,1.46484375
65.5241503,1.435546875
65.5586939,1.396484375
65.5792374,1.3671875
65.5863619,1.3232421875
65.6348576,1.2939453125
65.6351922,1.2548828125
65.6545993,1.2451171875
65.6634039,1.2158203125
65.7071548,1.1962890625
65.7074047,1.171875
65.7389357,1.15234375
65.7452202,1.123046875
65.780189,1.1083984375
65.8007616,1.09375
65.802847,1.07421875
65.8455379,1.064453125
65.8459436,1.0546875
65.8930755,1.03515625
65.8934739,1.0205078125
65.9058078,1.0107421875
65.941152,1.0009765625
65.9680672,1.0107421875
65.968693,1.0546875
65.9834212,1.15234375
66.0179571,1.2548828125
66.0391095,1.3671875
66.0457938,1.46484375
66.0829993,1.552734375
66.0848435,1.630859375
66.1192508,1.6845703125
66.1417248,1.7333984375
66.1487246,1.7626953125
66.1873743,1.787109375
66.1876953,1.787109375
66.2060726,1.7822265625
66.2412039,1.7529296875
66.2457272,1.7138671875
66.2809574,1.669921875
66.3091605,1.6357421875
66.3094858,1.591796875
66.3282164,1.552734375
66.3437152,1.5087890625
66.3786056,1.4794921875
66.3851195,1.4453125
66.4273996,1.416015625
66.4448716,1.3818359375
66.4451155,1.3427734375
66.4799072,1.30859375
66.5026318,1.26953125
66.5099203,1.240234375
66.5239479,1.2109375
66.5693,1.201171875
66.5698203,1.1767578125
66.5854853,1.1572265625
66.6315285,1.1376953125
66.6318449,1.123046875
66.6465197,1.0986328125
66.6816627,1.083984375
66.7021871,1.0595703125
66.7040002,1.0498046875
66.7362861,1.0400390625
66.7576329,1.0205078125
66.7695998,1.005859375
66.7873813,0.9912109375
66.8308317,0.99609375
66.8349589,1.03515625
66.8480007,1.1181640625
66.8635426,1.2060546875
66.8992794,1.3232421875
66.9274509,1.416015625
66.9316878,1.5087890625
66.948053,1.572265625
66.968413,1.6357421875
67.0072482,1.6748046875
67.0077369,1.708984375
67.0437268,1.7236328125
67.0488636,1.7431640625
67.0842508,1.728515625
67.0845199,1.6943359375
67.1190916,1.669921875
67.1435618,1.640625
67.148359,1.6064453125
67.1671695,1.572265625
67.1877495,1.5380859375
67.2446884,1.4990234375
67.2450424,1.4697265625
67.2489993,1.4306640625
67.2653231,1.40625
67.3078681,1.3671875
67.3083846,1.3427734375
67.3421298,1.3134765625
67.3619364,1.2841796875
67.3659799,1.259765625
67.4017664,1.23046875
67.4211823,1.2060546875
67.4251461,1.1767578125
67.4574452,1.171875
67.4770466,1.15234375
67.4866444,1.1376953125
67.5218292,1.123046875
67.5279754,1.1083984375
67.5632254,1.09375
67.5675389,1.083984375
67.5845585,1.064453125
67.6185594,1.064453125
67.6392424,1.0546875
67.6454387,1.0693359375
67.6791287,1.0986328125
67.7135123,1.181640625
67.7137732,1.2841796875
67.7268683,1.3720703125
67.7605344,1.4697265625
67.7810942,1.5380859375
67.7898177,1.58203125
67.8055819,1.6162109375
67.8390264,1.6943359375
67.8596893,1.73828125
67.8662633,1.767578125
67.9016527,1.7724609375
67.9223874,1.7626953125
67.9290533,1.7333984375
67.9499854,1.6943359375
67.9662997,1.650390625
68.0095831,1.6162109375
68.0098774,1.5869140625
68.0289854,1.5478515625
68.0610748,1.5087890625
68.0818309,1.474609375
68.0878281,1.4404296875
68.1194769,1.4013671875
68.1419155,1.3671875
68.1460366,1.3330078125
68.196622,1.30859375
68.1969459,1.279296875
68.2075814,1.259765625
68.2584929,1.23046875
68.2589048,1.2109375
68.2679083,1.181640625
68.3022501,1.162109375
68.3339952,1.1279296875
68.3342362,1.1279296875
68.3477566,1.1181640625
68.3853983,1.103515625
68.3857165,1.0888671875
68.4218826,1.07421875
68.4413011,1.0546875
68.4481251,1.0400390625
68.4813916,1.025390625
68.5034149,1.0107421875
68.505141,1.0205078125
68.5373537,1.044921875
68.5574622,1.11328125
68.5678598,1.2060546875
68.600843,1.3134765625
68.6224485,1.40625
68.6306029,1.50390625
68.673091,1.5869140625
68.6734555,1.6455078125
68.7071825,1.6796875
68.7076249,1.7236328125
68.7427527,1.7724609375
68.766496,1.7919921875
68.7668926,1.796875
68.8119187,1.7822265625
68.8122569,1.748046875
68.8326778,1.7041015625
68.8658803,1.669921875
68.8663433,1.6259765625
68.9021243,1.5966796875
68.9283114,1.5576171875
68.9332983,1.5185546875
68.9493856,1.474609375
68.9922191,1.4404296875
68.9925833,1.40625
69.0286586,1.3671875
69.0290548,1.3330078125
69.0644498,1.2939453125
69.070538,1.2744140625
69.0881092,1.2548828125
69.1281722,1.240234375
69.1557083,1.2158203125
69.156036,1.1962890625
69.1684641,1.171875
69.2026064,1.1474609375
69.2335371,1.123046875
69.2337714,1.1181640625
69.2475968,1.103515625
69.2978055,1.09375
69.2981456,1.083984375
69.3112317,1.064453125
69.3299252,1.044921875
69.3737657,1.0302734375
69.374014,1.025390625
69.387137,1.0205078125
69.4233129,1.0498046875
69.4275235,1.103515625
69.464485,1.1962890625
69.4947189,1.2841796875
69.4950438,1.38671875
69.5247941,1.474609375
69.5324898,1.552734375
69.5503792,1.6162109375
69.5877129,1.6748046875
69.588083,1.7138671875
69.6188268,1.7626953125
69.6399479,1.7919921875
69.6506072,1.7919921875
69.6977286,1.7724609375
69.6981457,1.7333984375
69.7111075,1.689453125
69.7465928,1.6455078125
69.7677295,1.6064453125
69.767978,1.5625
69.8049448,1.5380859375
69.8090163,1.4990234375
69.8311592,1.46484375
69.8760806,1.42578125
69.876361,1.396484375
69.8912942,1.357421875
69.9407867,1.3232421875
69.94127,1.2939453125
69.9486087,1.2548828125
69.9692147,1.2353515625
70.0040301,1.2109375
70.0082061,1.1865234375
70.0305255,1.162109375
70.072939,1.1376953125
70.073535,1.1083984375
70.0919007,1.0888671875
70.1071807,1.0595703125
70.1423424,1.0595703125
70.16409,1.044921875
70.169643,1.03515625
70.1897262,1.0205078125
70.2335977,1.0107421875
70.2340076,0.9912109375
70.2506933,0.9814453125
70.2845348,0.9814453125
70.3139338,1.0107421875
70.3142016,1.0986328125
70.3289188,1.1962890625
70.3640463,1.3037109375
70.3914533,1.396484375
70.3917919,1.4892578125
70.4239146,1.5625
70.4436955,1.6259765625
70.450345,1.6748046875
70.4868536,1.7138671875
70.5162999,1.728515625
70.5166625,1.748046875
70.5303552,1.73828125
70.5540535,1.708984375
70.5784119,1.6748046875
70.5919776,1.6357421875
70.6164875,1.6015625
70.6314941,1.5576171875
70.6680348,1.5283203125
70.6682768,1.4892578125
70.6882689,1.46484375
70.7219538,1.42578125
70.7430451,1.396484375
70.7493555,1.357421875
70.7821699,1.328125
70.8024123,1.2890625
70.8130466,1.259765625
70.8298216,1.23046875
70.8653958,1.2158203125
70.8710708,1.1865234375
70.9174146,1.171875
70.9176644,1.1572265625
70.9309288,1.1328125
70.9820219,1.1181640625
70.9823476,1.0986328125
70.9926918,1.083984375
71.0096905,1.064453125
71.0529,1.0595703125
71.0532352,1.0498046875
71.0839137,1.0400390625
71.0905824,1.0205078125
71.1292152,1.015625
71.1314581,1.0107421875
71.166493,1.0498046875
71.1866371,1.11328125
71.1869625,1.220703125
71.2214642,1.3330078125
71.2436397,1.3916015625
71.2504317,1.494140625
71.2843525,1.572265625
71.3062363,1.650390625
71.3125234,1.69921875
71.3552271,1.7431640625
71.3556167,1.767578125
71.3728338,1.787109375
71.416407,1.77734375
71.4210084,1.767578125
71.4329948,1.7333984375
71.4515395,1.6943359375
71.49485,1.6552734375
71.4951234,1.6162109375
71.5175062,1.5771484375
71.5341585,1.54296875
71.5691977,1.5087890625
71.5695489,1.4599609375
71.6015513,1.435546875
71.6221495,1.396484375
71.6317436,1.3623046875
71.6536045,1.328125
71.6731649,1.3037109375
71.7155625,1.2744140625
71.7158091,1.2451171875
71.7295586,1.2158203125
71.7672733,1.201171875
71.7724052,1.181640625
71.8074827,1.1669921875
71.8104719,1.142578125
71.8495246,1.123046875
71.8788568,1.103515625
71.8792486,1.083984375
71.9117168,1.0693359375
71.9161249,1.0498046875
71.9303644,1.0498046875
71.9760751,1.03515625
71.9764761,1.0205078125
71.9930983,1.005859375
72.027876,1.005859375
72.0329482,1.0302734375
72.0839042,1.0986328125
72.0842335,1.1865234375
72.0944521,1.26953125
72.1115745,1.34765625
72.159779,1.4697265625
72.1601115,1.5576171875
72.1730698,1.650390625
72.1932486,1.71875
72.2146551,1.767578125
72.25095,1.8017578125
72.2553473,1.8115234375
72.2977486,1.81640625
72.298075,1.796875
72.3183845,1.7724609375
72.3322585,1.728515625
72.36692,1.6796875
72.3728866,1.6357421875
72.4082747,1.5966796875
72.4384183,1.552734375
72.4388158,1.5185546875
72.4525322,1.474609375
72.4713737,1.4501953125
72.5129179,1.42578125
72.5132351,1.38671875
72.550469,1.3525390625
72.5508387,1.3134765625
72.5901196,1.2841796875
72.5926214,1.25
72.6266098,1.220703125
72.6462778,1.19140625
72.653031,1.171875
72.6981083,1.1474609375
72.6983859,1.1328125
72.7225071,1.11328125
72.7335858,1.0986328125
72.7700571,1.07421875
72.7920907,1.0595703125
72.7925094,1.03515625
72.8110425,1.0302734375
72.85449,1.0205078125
72.8549079,1.005859375
72.8717006,0.99609375
72.9140261,0.9814453125
72.9143227,1.0009765625
72.9357316,1.0595703125
72.9751703,1.15234375
72.9757406,1.25
73.0204777,1.328125
73.0208922,1.4208984375
73.0316359,1.5185546875
73.0674248,1.591796875
73.0985052,1.6552734375
73.0991399,1.69921875
73.1133807,1.7333984375
73.1474721,1.748046875
73.1747713,1.7431640625
73.1750915,1.7236328125
73.19159,1.6943359375
73.2272859,1.6748046875
73.253688,1.640625
73.2539475,1.6064453125
73.2995497,1.5673828125
73.2998411,1.5380859375
73.3164733,1.4990234375
73.3395166,1.4697265625
73.3534322,1.42578125
73.3999653,1.396484375
73.4002978,1.3671875
73.4138708,1.3330078125
73.4493869,1.2939453125
73.4542167,1.26953125
73.4924253,1.2353515625
73.4945446,1.201171875
73.5298756,1.1767578125
73.5542328,1.15234375
73.5544998,1.1376953125
73.587305,1.1181640625
73.608861,1.0986328125
73.6166674,1.0791015625
73.6352983,1.0693359375
73.6761563,1.044921875
73.6764806,1.0205078125
73.6926109,1.0009765625
73.7450757,1.0107421875
73.7455618,1.005859375
73.7540781,1.005859375
73.7727075,1.025390625
73.8106742,1.07421875
73.8411666,1.1669921875
73.8414917,1.259765625
73.8567898,1.3671875
73.8912547,1.4501953125
73.8954264,1.533203125
73.9291848,1.591796875
73.9335117,1.66015625
73.9686793,1.69921875
73.9895995,1.7333984375
73.9947989,1.7431640625
74.0429185,1.7431640625
74.0432395,1.71875
74.0617402,1.6796875
74.0719952,1.6357421875
74.1187198,1.611328125
74.1194606,1.5771484375
74.1410956,1.54296875
74.1550897,1.5087890625
74.1909411,1.4697265625
74.195227,1.435546875
74.2291079,1.396484375
74.2500909,1.3720703125
74.2518683,1.337890625
74.2867463,1.3232421875
74.3082945,1.2939453125
74.3141103,1.26953125
74.3489723,1.2451171875
74.3731661,1.2255859375
74.37795,1.1962890625
74.3962814,1.181640625
74.4382457,1.162109375
74.4384845,1.1376953125
74.4545724,1.1279296875
74.4899404,1.11328125
74.494361,1.103515625
74.5313938,1.0888671875
74.5354674,1.07421875
74.5742151,1.0546875
74.5920943,1.044921875
74.5924354,1.025390625
74.6377062,1.044921875
74.6380294,1.07421875
74.6689269,1.15234375
74.675271,1.2353515625
74.7145776,1.337890625
74.714821,1.4306640625
74.7471559,1.5283203125
74.767212,1.611328125
74.7769383,1.6748046875
74.8091795,1.7236328125
74.8295499,1.7578125
74.8354491,1.796875
74.8551463,1.806640625
74.8937429,1.8017578125
74.8941376,1.77734375
74.9293937,1.73828125
74.9505616,1.6943359375
74.9579865,1.6455078125
74.9748395,1.5966796875
75.02472,1.572265625
75.0250046,1.5380859375
75.0354454,1.50390625
75.0797393,1.4697265625
75.0800916,1.42578125
75.0976065,1.3916015625
75.1438477,1.3525390625
75.1445841,1.328125
75.1545617,1.2890625
75.1906374,1.2646484375
75.1967923,1.2353515625
75.230734,1.2158203125
75.237256,1.1865234375
75.283766,1.1767578125
75.284031,1.1572265625
75.298169,1.142578125
75.3137388,1.1181640625
75.3350431,1.1181640625
75.3705637,1.0986328125
75.3749224,1.0888671875
75.4104715,1.07421875
75.4411059,1.0546875
75.4415371,1.0400390625
75.4582456,1.025390625
75.4923279,1.015625
75.4962895,1.0302734375
75.5286524,1.0595703125
75.5346698,1.123046875
75.5753637,1.2548828125
75.5756289,1.3623046875
75.6060691,1.4697265625
75.6171251,1.5576171875
75.6391857,1.6357421875
75.6594105,1.6943359375
75.6975419,1.7431640625
75.6978952,1.7822265625
75.7371695,1.796875
75.7414193,1.81640625
75.7566874,1.8017578125
75.7784562,1.7724609375
75.8065515,1.7333984375
75.8167672,1.689453125
75.8525633,1.6455078125
75.8847273,1.6064453125
75.8849766,1.5576171875
75.8954949,1.533203125
75.9162302,1.4990234375
75.9607872,1.46484375
75.9610747,1.4208984375
75.9752364,1.38671875
76.023401,1.3427734375
76.0237321,1.3134765625
76.0441701,1.2841796875
76.0569276,1.25
76.0760136,1.23046875
76.1133948,1.2060546875
76.1177057,1.1865234375
76.1517833,1.162109375
76.1563676,1.1376953125
76.1930716,1.11328125
76.2114866,1.0986328125
76.2159813,1.07421875
76.2367388,1.064453125
76.2844407,1.0498046875
76.2847513,1.044921875
76.2971908,1.025390625
76.3321361,1.015625
76.3369266,1.005859375
76.3723305,0.99609375
76.3921731,1.015625
76.3993885,1.064453125
76.4339392,1.1279296875
76.454835,1.23046875
76.4574145,1.34765625
76.4919605,1.4404296875
76.4958576,1.5283203125
76.5297129,1.5966796875
76.5631779,1.66015625
76.5637978,1.69921875
76.5780897,1.7333984375
76.6123336,1.7431640625
76.6149212,1.7578125
76.6376353,1.73828125
76.6585983,1.708984375
76.706975,1.6650390625
76.7074099,1.62109375
76.7186058,1.58203125
76.7680346,1.54296875
76.768384,1.50390625
76.7764037,1.46484375
76.8168561,1.4404296875
76.8172073,1.40625
76.8369389,1.376953125
76.8729024,1.3427734375
76.879727,1.3134765625
76.9150778,1.2744140625
76.9189749,1.25
76.9351456,1.2158203125
76.9692546,1.201171875
76.9899816,1.1865234375
76.9955179,1.162109375
77.0410731,1.142578125
77.0413182,1.1181640625
77.0610718,1.103515625
77.0802065,1.083984375
77.1235734,1.07421875
77.1238853,1.0498046875
77.1370449,1.0498046875
77.1562487,1.0302734375
77.1771063,1.0205078125
77.2138532,1.005859375
77.2176231,1.0009765625
77.254589,1.0205078125
77.259582,1.083984375
77.2936418,1.162109375
77.3191533,1.279296875
77.3195353,1.3818359375
77.3364044,1.4697265625
77.3899118,1.5625
77.3902302,1.6259765625
77.3990195,1.6845703125
77.4206856,1.7236328125
77.4666113,1.748046875
77.4670254,1.7529296875
77.4801945,1.73828125
77.4964696,1.708984375
77.5384959,1.6796875
77.5561041,1.6455078125
77.5563464,1.6162109375
77.6006497,1.5771484375
77.6011207,1.54296875
77.6358558,1.513671875
77.6398137,1.474609375
77.6903879,1.435546875
77.6906444,1.396484375
77.698101,1.3720703125
77.7382558,1.337890625
77.7385198,1.30859375
77.7724736,1.2744140625
77.7995105,1.25
77.7999046,1.220703125
77.8210963,1.201171875
77.8372498,1.171875
77.8732056,1.162109375
77.8774706,1.1474609375
77.9134389,1.1328125
77.9175676,1.11328125
77.9517002,1.103515625
77.9719707,1.0888671875
77.9781359,1.0693359375
78.0114872,1.0546875
78.0313162,1.0400390625
78.0384805,1.03515625
78.0748159,1.0302734375
78.077417,1.0546875
78.1117538,1.103515625
78.138408,1.19140625
78.1387294,1.2890625
78.1837705,1.38671875
78.1846721,1.474609375
78.2183498,1.5625
78.2185883,1.6259765625
78.2608956,1.6943359375
78.2613088,1.7529296875
78.29467,1.77734375
78.2984793,1.7919921875
78.332029,1.7919921875
78.3547257,1.7822265625
78.3659443,1.7431640625
78.3818728,1.7041015625
78.3997677,1.66015625
78.423019,1.6357421875
78.4386941,1.5966796875
78.4749079,1.5673828125
78.4798184,1.5234375
78.5331311,1.494140625
78.5333728,1.455078125
78.5416983,1.416015625
78.5583472,1.376953125
78.5796572,1.357421875
78.6190532,1.3330078125
78.6193465,1.298828125
78.6646824,1.2744140625
78.6650812,1.2451171875
78.6804957,1.2158203125
78.7165713,1.19140625
78.7208104,1.171875
78.7380624,1.142578125
78.7724519,1.1328125
78.7773096,1.1181640625
78.8146468,1.1083984375
78.838726,1.09375
78.8390469,1.083984375
78.8726736,1.064453125
78.8991689,1.0498046875
78.9010629,1.044921875
78.9171642,1.025390625
78.9610618,1.0400390625
78.9614625,1.03515625
78.9961742,1.1279296875
78.9980434,1.220703125
79.0318933,1.328125
79.0649713,1.4208984375
79.0652203,1.5185546875
79.0819682,1.591796875
79.1265754,1.6650390625
79.1269089,1.71875
79.1570114,1.7724609375
79.1589596,1.806640625
79.1931389,1.826171875
79.2151515,1.81640625
79.2222956,1.8017578125
79.2426811,1.7626953125
79.2789361,1.7138671875
79.2834551,1.6650390625
79.2980383,1.62109375
79.3320427,1.591796875
79.3529268,1.5576171875
79.3604646,1.533203125
79.3956607,1.494140625
79.4170269,1.4599609375
79.4222367,1.42578125
79.4569789,1.38671875
79.4572932,1.34765625
79.490306,1.3232421875
79.5123946,1.2939453125
79.5209316,1.2646484375
79.5562757,1.240234375
79.5618402,1.2109375
79.6034904,1.1865234375
79.6039448,1.162109375
79.6351519,1.1474609375
79.6556685,1.123046875
79.6579177,1.1181640625
79.694465,1.103515625
79.7256496,1.0986328125
79.7299096,1.0791015625
79.7410483,1.064453125
79.7898462,1.0400390625
79.7901645,1.03515625
79.8030331,1.0205078125
79.8238125,1.0107421875
79.8394419,1.025390625
79.8784764,1.142578125
79.8810954,1.2548828125
79.9005225,1.357421875
79.9298925,1.455078125
79.9432892,1.5380859375
79.9620172,1.611328125
79.9987415,1.669921875
80.0030349,1.71875
80.0192228,1.748046875
80.040298,1.77734375
80.0839903,1.7822265625
80.084323,1.767578125
80.1024139,1.7333984375
80.1461647,1.6943359375
80.1464122,1.650390625
80.1640222,1.6064453125
80.2092568,1.572265625
80.2099249,1.5234375
80.219437,1.494140625
80.2518129,1.4599609375
80.2725281,1.4208984375
80.2823081,1.38671875
80.3157318,1.3525390625
80.3363717,1.3134765625
80.3432412,1.2841796875
80.3586297,1.25
80.3924964,1.2353515625
80.4147587,1.2109375
80.4221022,1.19140625
80.4687584,1.171875
80.4691341,1.15234375
80.4834424,1.1279296875
80.5028006,1.11328125
80.5442931,1.0986328125
80.5447007,1.0791015625
80.558537,1.0791015625
80.5935028,1.064453125
80.6218751,1.0498046875
80.6222178,1.03515625
80.655746,1.0302734375
80.6766251,1.0205078125
80.6837023,1.044921875
80.7027209,1.103515625
80.7356944,1.1669921875
80.7567322,1.2646484375
80.7615834,1.376953125
80.8085703,1.4599609375
80.8089019,1.5380859375
80.8288291,1.611328125
80.8419846,1.650390625
80.8747269,1.689453125
80.896158,1.708984375
80.904033,1.71875
80.9382577,1.7041015625
80.9386158,1.6845703125
80.9746131,1.650390625
80.9931413,1.611328125
81.0034002,1.572265625
81.0279654,1.54296875
81.0428246,1.50390625
81.085127,1.46484375
81.0854573,1.4306640625
81.1057623,1.40625
81.1198807,1.3720703125
81.1588804,1.3525390625
81.1746426,1.3232421875
81.1818044,1.2939453125
81.220396,1.26953125
81.226722,1.240234375
81.244728,1.2158203125
81.2614819,1.1865234375
81.2806343,1.1767578125
81.3215923,1.1572265625
81.3218628,1.142578125
81.3574969,1.1279296875
81.361594,1.11328125
81.3965829,1.0986328125
81.4174284,1.09375
81.4216078,1.083984375
81.4423523,1.0791015625
81.4629535,1.0791015625
81.4821022,1.0693359375
81.5211034,1.07421875
81.526191,1.0986328125
81.5437005,1.171875
81.5796761,1.25
81.5836081,1.34765625
81.6154677,1.4306640625
81.6424406,1.5185546875
81.6426804,1.5869140625
81.675794,1.669921875
81.6985652,1.7138671875
81.703893,1.7578125
81.7535723,1.7822265625
81.7539941,1.796875
81.765115,1.77734375
81.7992105,1.7529296875
81.8051222,1.7138671875
81.8375899,1.66015625
81.842938,1.630859375
81.8781107,1.5869140625
81.8828142,1.552734375
81.917925,1.513671875
81.9391043,1.4794921875
81.9436552,1.4404296875
81.9779677,1.40625
81.9980137,1.3671875
81.999963,1.3427734375
82.0338027,1.3134765625
82.0615424,1.2841796875
82.061857,1.2548828125
82.0973412,1.2255859375
82.1238006,1.2060546875
82.1284389,1.1767578125
82.14623,1.1572265625
82.1615383,1.123046875
82.2014807,1.123046875
82.2018132,1.0986328125
82.2331598,1.0888671875
82.2433483,1.07421875
82.2781135,1.0595703125
82.297887,1.03515625
82.3038826,1.0302734375
82.3381448,1.0107421875
82.3423274,1.0107421875
82.3782265,1.0107421875
82.3824012,1.0498046875
82.417022,1.1083984375
82.4369811,1.2158203125
82.4435763,1.328125
82.477664,1.416015625
82.4970802,1.513671875
82.5062727,1.5869140625
82.5422965,1.6552734375
82.5427057,1.708984375
82.579458,1.7626953125
82.5836658,1.7919921875
82.6341104,1.8115234375
82.6343844,1.806640625
82.646254,1.7822265625
82.6828444,1.73828125
82.6832118,1.6943359375
82.7024245,1.6455078125
82.7437338,1.6064453125
82.7440178,1.5771484375
82.7690036,1.54296875
82.7853763,1.50390625
82.8260844,1.46484375
82.8264917,1.42578125
82.8625615,1.38671875
82.8668088,1.34765625
82.8834903,1.318359375
82.9190023,1.2939453125
82.9232523,1.2646484375
82.9585532,1.240234375
82.9625827,1.2060546875
82.9956266,1.181640625
83.0171517,1.15234375
83.0239631,1.1279296875
83.0422707,1.0986328125
83.079403,1.09375
83.0995755,1.083984375
83.103557,1.064453125
83.1367812,1.0498046875
83.1588609,1.0302734375
83.1657365,1.015625
83.2074022,0.99609375
83.2077645,0.9912109375
83.2299011,0.986328125
83.2477224,1.03515625
83.2664382,1.0693359375
83.2841506,1.181640625
83.3255633,1.2841796875
83.3259088,1.396484375
83.356016,1.4794921875
83.3654082,1.5576171875
83.4033278,1.6259765625
83.4086057,1.6748046875
83.4488862,1.7138671875
83.4493083,1.73828125
83.463499,1.767578125
83.5092706,1.7578125
83.509611,1.73828125
83.5308405,1.69921875
83.5471941,1.66015625
83.5652474,1.6162109375
83.6008443,1.58203125
83.6295189,1.5380859375
83.6338527,1.5087890625
83.6458926,1.474609375
83.6821909,1.4404296875
83.682533,1.396484375
83.7259808,1.3671875
83.7558879,1.3330078125
83.7562857,1.2939453125
83.7680302,1.26953125
83.78396,1.2353515625
83.8327757,1.2158203125
83.8331019,1.1865234375
83.8461602,1.1669921875
83.8824181,1.142578125
83.8843888,1.1181640625
83.9181663,1.0986328125
83.9403831,1.0791015625
83.9431636,1.0595703125
83.9850041,1.0546875
83.9853166,1.0400390625
84.0053305,1.0302734375
84.0517637,1.0205078125
84.0520001,1.005859375
84.06577,1.0107421875
84.0985875,1.03515625
84.1204823,1.11328125
84.1279291,1.1962890625
84.1473663,1.2744140625
84.16607,1.3427734375
84.1854903,1.4599609375
84.2209108,1.5380859375
84.2252592,1.6162109375
84.2614977,1.66015625
84.2690428,1.7041015625
84.2870002,1.728515625
84.3378823,1.7333984375
84.33815,1.7138671875
84.3602293,1.69921875
84.3641749,1.66015625
84.3984379,1.62109375
84.4189097,1.58203125
84.4257913,1.5478515625
84.46198,1.513671875
84.4677175,1.4794921875
84.5020124,1.4501953125
84.5336927,1.416015625
84.5375933,1.396484375
84.5464606,1.3671875
84.587223,1.337890625
84.5875282,1.3037109375
84.634857,1.279296875
84.6350991,1.2451171875
84.6667456,1.220703125
84.666994,1.201171875
84.6854865,1.1767578125
84.7074216,1.162109375
84.7419509,1.142578125
84.7462908,1.1328125
84.7807875,1.11328125
84.8055293,1.0986328125
84.8084789,1.0791015625
84.8532369,1.064453125
84.8535026,1.044921875
84.8647238,1.044921875
84.8976707,1.03515625
84.9200924,1.044921875
84.9289404,1.083984375
84.9650744,1.1669921875
84.9654768,1.2548828125
85.0070375,1.3623046875
85.0073155,1.4599609375
85.0290541,1.5380859375
85.0691463,1.6162109375
85.0695013,1.669921875
85.0842684,1.7333984375
85.1265189,1.767578125
85.1436951,1.796875
85.1456789,1.8017578125
85.1792669,1.7919921875
85.2001445,1.7578125
85.2090967,1.71875
85.224725,1.669921875
85.2668853,1.640625
85.2675194,1.6015625
85.2881472,1.5673828125
85.3224887,1.533203125
85.3271143,1.494140625
85.362549,1.4501953125
85.3846496,1.4111328125
85.388765,1.376953125
85.4071489,1.337890625
85.4416918,1.3134765625
85.4464039,1.279296875
85.4808303,1.25
85.5008125,1.220703125
85.5067575,1.2060546875
85.5465833,1.181640625
85.5469804,1.162109375
85.5658388,1.142578125
85.6020032,1.1328125
85.623745,1.1181640625
85.6278247,1.11328125
85.6637941,1.103515625
85.6681374,1.0791015625
85.7123893,1.0693359375
85.7126805,1.0498046875
85.7440934,1.0400390625
85.7445071,1.025390625
85.7890787,1.0498046875
85.7893794,1.103515625
85.8304821,1.19140625
85.8308726,1.2890625
85.8643841,1.3916015625
85.8685556,1.474609375
85.9075321,1.5625
85.9078689,1.630859375
85.9289859,1.6943359375
85.9628834,1.748046875
85.9927331,1.7724609375
85.9930507,1.8017578125
86.0083224,1.806640625
86.0283349,1.8017578125
86.0627633,1.767578125
86.0834958,1.7236328125
86.0881941,1.6748046875
86.1240184,1.630859375
86.1563681,1.58203125
86.1567101,1.552734375
86.1681958,1.5087890625
86.1892406,1.474609375
86.2074966,1.435546875
86.2444146,1.396484375
86.2493591,1.3525390625
86.2855,1.318359375
86.292532,1.2841796875
86.3081421,1.25
86.3323835,1.2255859375
86.3473738,1.201171875
86.3933322,1.1767578125
86.3937032,1.15234375
86.4132074,1.1328125
86.4287148,1.11328125
86.4655553,1.0888671875
86.4660368,1.0693359375
86.5035875,1.0595703125
86.5081256,1.044921875
86.545376,1.0400390625
86.5456163,1.0302734375
86.5701706,1.015625
86.6087112,1.0107421875
86.6090811,0.9912109375
86.6430001,1.005859375
86.6640762,1.044921875
86.6698205,1.1376953125
86.6882985,1.2353515625
86.7268259,1.3427734375
86.7270791,1.4306640625
86.7630525,1.513671875
86.7961903,1.5771484375
86.7964333,1.640625
86.8111836,1.6796875
86.8324649,1.7138671875
86.8478617,1.728515625
86.890089,1.73828125
86.8904106,1.7236328125
86.9081647,1.69921875
86.9556722,1.66015625
86.9560624,1.6162109375
86.9763028,1.5771484375
86.9906696,1.533203125
87.0253618,1.4990234375
87.0458157,1.4599609375
87.0483476,1.4306640625
87.084482,1.396484375
87.0886687,1.3623046875
87.12683,1.3330078125
87.1322596,1.3037109375
87.1519748,1.2744140625
87.171321,1.2451171875
87.1896817,1.2109375
87.2089109,1.1962890625
87.255253,1.1767578125
87.2556641,1.15234375
87.2702014,1.1328125
87.3177963,1.11328125
87.3182861,1.0986328125
87.3305349,1.0791015625
87.3786624,1.0693359375
87.3789364,1.0498046875
87.4008511,1.0498046875
87.4097829,1.03515625
87.4435096,1.0302734375
87.4633518,1.015625
87.4682404,1.025390625
87.5036518,1.0693359375
87.5265758,1.1474609375
87.5271819,1.240234375
87.5604198,1.3671875
87.5813984,1.435546875
87.5912376,1.4990234375
87.6093428,1.6015625
87.6556634,1.669921875
87.6560918,1.728515625
87.6706519,1.7626953125
87.7074866,1.787109375
87.711896,1.787109375
87.7587356,1.77734375
87.7589788,1.73828125
87.7697454,1.708984375
87.8108973,1.6650390625
87.8112161,1.6357421875
87.8475212,1.5966796875
87.8494295,1.5625
87.8708955,1.5283203125
87.9145076,1.4794921875
87.9147557,1.4453125
87.9354687,1.4013671875
87.9487598,1.3818359375
87.9696633,1.34765625
88.0043773,1.318359375
88.0249445,1.279296875
88.0297394,1.25
88.0651236,1.220703125
88.0843202,1.201171875
88.088444,1.171875
88.1108072,1.162109375
88.146923,1.1474609375
88.1488544,1.1328125
88.1709914,1.11328125
88.2105963,1.103515625
88.210843,1.0888671875
88.2455428,1.0693359375
88.2660522,1.0546875
88.2679001,1.03515625
88.3022906,1.0302734375
88.3236865,1.025390625
88.3292713,1.044921875
88.3649421,1.09375
88.3971708,1.171875
88.3975275,1.26953125
88.4121854,1.3720703125
88.4330212,1.46484375
88.4640987,1.533203125
88.4686707,1.611328125
88.5048895,1.689453125
88.5396821,1.7529296875
88.5400582,1.787109375
88.5520679,1.8115234375
88.5875269,1.81640625
88.5921758,1.8115234375
88.6325075,1.7822265625
88.6330521,1.73828125
88.6485323,1.689453125
88.6840936,1.6552734375
88.6891164,1.611328125
88.7241502,1.5771484375
88.7452763,1.533203125
88.753011,1.4990234375
88.8023166,1.455078125
88.8026608,1.416015625
88.8084896,1.3671875
88.8427055,1.34765625
88.8630349,1.318359375
88.8693794,1.2841796875
88.9057066,1.25
88.9300801,1.2158203125
88.9304,1.19140625
88.9740993,1.162109375
88.9745013,1.1376953125
88.994905,1.11328125
89.0092576,1.103515625
89.0426728,1.0888671875
89.0683783,1.07421875
89.0687392,1.0595703125
89.1020871,1.044921875
89.1226021,1.025390625
89.1330284,1.015625
89.1768434,1.0009765625
89.1772545,0.986328125
89.2074655,0.9912109375
89.2115937,1.0107421875
89.2479185,1.07421875
89.2535401,1.15234375
89.2725002,1.2646484375
89.3076741,1.357421875
89.3136028,1.455078125
89.3501618,1.533203125
89.3552064,1.611328125
89.3706523,1.6650390625
89.410402,1.7236328125
89.4107308,1.7578125
89.4463946,1.7822265625
89.4513489,1.7822265625
89.486653,1.7724609375
89.5086449,1.73828125
89.5128966,1.6943359375
89.5622072,1.650390625
89.5629081,1.6015625
89.5719018,1.572265625
89.6085597,1.5380859375
89.6112367,1.5087890625
89.6487901,1.474609375
89.6535835,1.4404296875
89.6961866,1.4013671875
89.6964375,1.3623046875
89.7103607,1.3232421875
89.7501555,1.298828125
89.767288,1.26953125
89.7725987,1.240234375
89.8074915,1.2109375
89.8277829,1.181640625
89.834045,1.15234375
89.8779605,1.1279296875
89.8782826,1.1083984375
89.8907926,1.083984375
89.9384226,1.07421875
89.9388305,1.0595703125
89.9520344,1.044921875
89.9889353,1.0302734375
89.9938278,1.015625
90.0141368,0.99609375
90.0351049,0.986328125
90.0504716,0.9716796875
90.0854066,0.9814453125
90.0897996,1.0205078125
90.1238947,1.11328125
90.1467942,1.220703125
90.1551573,1.318359375
90.1899,1.4208984375
90.1942119,1.50390625
90.2281962,1.58203125
90.2339904,1.6357421875
90.269347,1.689453125
90.2899775,1.71875
90.2903247,1.748046875
90.3250265,1.7529296875
90.3463946,1.73828125
90.353115,1.708984375
90.3917612,1.669921875
90.3922252,1.6259765625
90.4266147,1.5869140625
90.4466834,1.552734375
90.4525168,1.5087890625
90.486795,1.484375
90.4907566,1.4453125
90.5330428,1.4111328125
90.5333725,1.3671875
90.5534577,1.3330078125
90.5885423,1.2890625
90.609512,1.259765625
90.6099107,1.23046875
90.6438172,1.220703125
90.6640186,1.1962890625
90.6708561,1.1767578125
90.706173,1.1572265625
90.7258459,1.1376953125
90.7338289,1.11328125
90.7660995,1.0986328125
90.7880811,1.083984375
90.7924258,1.064453125
90.8299377,1.0595703125
90.8301913,1.0498046875
90.8691209,1.0400390625
90.8900912,1.025390625
90.8928949,1.015625
90.9289356,1.015625
90.9608417,1.0400390625
90.9611092,1.0986328125
90.9732219,1.201171875
90.9922333,1.3037109375
91.0490277,1.4111328125
91.0492824,1.4990234375
91.0661787,1.58203125
91.0741371,1.66015625
91.1119144,1.7041015625
91.1137815,1.748046875
91.1457428,1.767578125
91.1670926,1.7822265625
91.1714866,1.7724609375
91.2066329,1.7626953125
91.2262866,1.7236328125
91.2321259,1.689453125
91.2645511,1.6455078125
91.2847832,1.6064453125
91.29433,1.5673828125
91.329099,1.533203125
91.3588322,1.494140625
91.3594251,1.4697265625
91.3808418,1.4306640625
91.3943519,1.4013671875
91.4445976,1.3671875
91.4448474,1.3330078125
91.4547393,1.298828125
91.4903451,1.2646484375
91.5104987,1.240234375
91.5108938,1.2060546875
91.5576012,1.19140625
91.5578445,1.1669921875
91.5813244,1.15234375
91.596352,1.1279296875
91.6144623,1.11328125
91.6617113,1.09375
91.6622282,1.0888671875
91.6716516,1.07421875
91.7068343,1.07421875
91.7125154,1.064453125
91.7460593,1.0498046875
91.7650142,1.0400390625
91.7730061,1.0302734375
91.8072415,1.044921875
91.8299144,1.09375
91.8369324,1.181640625
91.8576254,1.2744140625
91.8784266,1.3525390625
91.8943563,1.42578125
91.9380676,1.54296875
91.94257,1.6259765625
91.9542723,1.7041015625
92.0013017,1.7529296875
92.001665,1.7919921875
92.018488,1.8115234375
92.042427,1.826171875
92.0574314,1.806640625
92.0730824,1.767578125
92.1083155,1.7333984375
92.1303498,1.689453125
92.1358092,1.6455078125
92.1719181,1.6015625
92.1770853,1.5673828125
92.1962061,1.5283203125
92.2396189,1.4892578125
92.2398558,1.4453125
92.2596842,1.416015625
92.2733408,1.3818359375
92.3093322,1.34765625
92.3291484,1.30859375
92.335156,1.2744140625
92.374818,1.25
92.3913799,1.2158203125
92.3955949,1.19140625
92.4419035,1.162109375
92.4470363,1.15234375
92.4566021,1.1328125
92.4734919,1.11328125
92.5109796,1.09375
92.5353927,1.07421875
92.5357907,1.0546875
92.5792809,1.0400390625
92.5795894,1.015625
92.5937123,1.0107421875
92.6407465,0.99609375
92.6411703,0.9912109375
92.6548604,0.986328125
92.690174,1.025390625
92.6941877,1.1083984375
92.7288881,1.1962890625
92.749224,1.3037109375
92.7561899,1.396484375
92.7914753,1.4892578125
92.8112974,1.5625
92.8133227,1.640625
92.8459599,1.689453125
92.8667134,1.7333984375
92.8754812,1.7578125
92.9090492,1.767578125
92.9309281,1.7578125
92.9375559,1.7333984375
92.9547098,1.6943359375
92.9915819,1.6650390625
92.9959239,1.630859375
93.0426248,1.591796875
93.0430306,1.552734375
93.0581218,1.513671875
93.0780708,1.474609375
93.1192245,1.435546875
93.1195726,1.396484375
93.1416879,1.357421875
93.1548646,1.3330078125
93.177596,1.298828125
93.2057914,1.2744140625
93.2149278,1.240234375
93.2526949,1.2158203125
93.2721773,1.181640625
93.2786773,1.1572265625
93.2936603,1.123046875
93.3288245,1.11328125
93.3506634,1.0986328125
93.3555087,1.0791015625
93.4057446,1.0595703125
93.4067162,1.0400390625
93.4170409,1.025390625
93.4377342,1.0107421875
93.4574269,0.99609375
93.4757149,0.9765625
93.4941577,0.9765625
93.5306678,0.9716796875
93.5348837,0.9912109375
93.5735638,1.044921875
93.5902301,1.1376953125
93.596451,1.2353515625
93.6393767,1.337890625
93.6440994,1.4404296875
93.6588494,1.5087890625
93.696063,1.58203125
93.696395,1.640625
93.7312825,1.708984375
93.7351369,1.7431640625
93.7687249,1.7626953125
93.7901787,1.7578125
93.7976379,1.748046875
93.8345167,1.708984375
93.8398539,1.6748046875
93.8549626,1.6357421875
93.8905299,1.6064453125
93.9116554,1.5673828125
93.9156638,1.533203125
93.9477702,1.4892578125
93.9698735,1.46484375
93.9783844,1.42578125
94.0130538,1.38671875
94.0344959,1.357421875
94.0347476,1.318359375
94.0764739,1.298828125
94.0767163,1.26953125
94.1057097,1.25
94.1157994,1.2255859375
94.1472908,1.201171875
94.1696697,1.1767578125
94.1798664,1.1572265625
94.1961847,1.1376953125
94.2346354,1.1376953125
94.2390433,1.123046875
94.2570002,1.1083984375
94.2995982,1.0986328125
94.2998394,1.07421875
94.3179899,1.0595703125
94.360354,1.044921875
94.3607651,1.044921875
94.3761802,1.0595703125
94.411821,1.1279296875
94.4190928,1.2109375
94.4369072,1.3232421875
94.4790439,1.4111328125
94.4792953,1.5087890625
94.5142436,1.5771484375
94.5180855,1.650390625
94.5504166,1.69921875
94.5711103,1.7431640625
94.575973,1.7626953125
94.6177975,1.796875
94.6181928,1.8017578125
94.6425462,1.77734375
94.6577682,1.7431640625
94.7024734,1.69921875
94.7029447,1.6552734375
94.71921,1.611328125
94.7539706,1.58203125
94.7752899,1.54296875
94.7795882,1.5185546875
94.7979063,1.484375
94.8395394,1.4501953125
94.8437551,1.4111328125
94.8615588,1.3818359375
94.8809835,1.3427734375
94.9295372,1.30859375
94.9299523,1.279296875
94.9349839,1.2451171875
94.9692635,1.2255859375
94.9916764,1.1962890625
94.9978513,1.1767578125
95.0380631,1.1572265625
95.0384872,1.1376953125
95.0582464,1.11328125
95.1008527,1.0986328125
95.1012617,1.0791015625
95.1213858,1.0791015625
95.13565,1.0595703125
95.1780157,1.0498046875
95.1783449,1.03515625
95.1987674,1.025390625
95.2324029,1.0107421875
95.252019,1.0400390625
95.2580184,1.1083984375
95.2922595,1.1962890625
95.2986185,1.30859375
95.333534,1.3671875
95.3405594,1.4794921875
95.3601912,1.5673828125
95.3797577,1.650390625
95.4329356,1.708984375
95.4338575,1.7626953125
95.4380807,1.7919921875
95.4730816,1.806640625
95.4949036,1.8017578125
95.4954273,1.8017578125
95.5352262,1.767578125
95.5516721,1.728515625
95.5583582,1.689453125
95.6005618,1.640625
95.600848,1.5966796875
95.631119,1.552734375
95.640171,1.5185546875
95.6563723,1.474609375
95.6771564,1.4453125
95.6992082,1.4111328125
95.7346204,1.3818359375
95.7388033,1.3427734375
95.7723906,1.3232421875
95.8046298,1.2890625
95.8048697,1.2646484375
95.8181056,1.23046875
95.8674019,1.2158203125
95.8677207,1.1865234375
95.878107,1.1767578125
95.9288017,1.15234375
95.9291344,1.1279296875
95.9579603,1.11328125
95.9583095,1.0888671875
95.9910568,1.0693359375
96.0109712,1.044921875
96.0166061,1.0400390625
96.0489387,1.025390625
96.0708773,1.0107421875
96.0813564,1.0009765625
96.0998158,1.0107421875
96.1203737,1.044921875
96.1573609,1.1328125
96.1629886,1.2255859375
96.1853685,1.3037109375
96.2017403,1.38671875
96.2195999,1.455078125
96.2606579,1.5576171875
96.2609604,1.630859375
96.2986723,1.6943359375
96.2991062,1.7333984375
96.3377829,1.7578125
96.3576826,1.7529296875
96.3619345,1.73828125
96.3778463,1.7041015625
96.4131034,1.6748046875
96.4340773,1.6357421875
96.4382264,1.6015625
96.4724053,1.5625
96.4947073,1.5234375
96.50101,1.484375
96.5353161,1.455078125
96.5564789,1.416015625
96.5584146,1.376953125
96.5930914,1.3525390625
96.6137418,1.3232421875
96.6207961,1.2939453125
96.656922,1.2646484375
96.6593549,1.2353515625
96.6941626,1.201171875
96.7207276,1.1767578125
96.7211062,1.15234375
96.7383897,1.1376953125
96.7746077,1.1181640625
96.7972249,1.1083984375
96.7990285,1.0888671875
96.8323442,1.07421875
96.8528431,1.0595703125
96.8611083,1.0400390625
96.8821718,1.025390625
96.89863,1.0107421875
96.9440748,1.0107421875
96.961266,1.0107421875
96.9615078,1.0498046875
97.0084907,1.1181640625
97.0087331,1.220703125
97.0221863,1.3134765625
97.0431489,1.416015625
97.0622683,1.4990234375
97.0999167,1.572265625
97.1002543,1.6259765625
97.156981,1.689453125
97.1573409,1.71875
97.1619357,1.7529296875
97.1804225,1.7578125
97.2027927,1.73828125
97.2410892,1.7138671875
97.2416637,1.669921875
97.2651476,1.630859375
97.2790385,1.591796875
97.3149618,1.5673828125
97.3197726,1.533203125
97.3569038,1.4990234375
97.3772241,1.46484375
97.3815769,1.4306640625
97.4163514,1.3916015625
97.4369881,1.3623046875
97.4375831,1.328125
97.4815779,1.3037109375
97.4818229,1.2841796875
97.5167379,1.25
97.5211664,1.2255859375
97.5562464,1.201171875
97.5612466,1.181640625
97.6114668,1.15234375
97.6119798,1.1376953125
97.6410014,1.1181640625
97.6414137,1.1181640625
97.6921793,1.103515625
97.6924224,1.09375
97.7018379,1.0791015625
97.7411517,1.064453125
97.7415102,1.0400390625
97.7865751,1.0302734375
97.7868691,1.015625
97.8086667,1.044921875
97.8193798,1.103515625
97.8534298,1.1865234375
97.8747055,1.2890625
97.8828882,1.38671875
97.902442,1.484375
97.9297616,1.5673828125
97.9434988,1.6455078125
97.9895558,1.7041015625
97.9898722,1.7578125
98.0011613,1.7919921875
98.0355114,1.8212890625
98.0396083,1.826171875
98.0730547,1.8212890625
98.094055,1.7919921875
98.1031059,1.7529296875
98.1287133,1.7138671875
98.1445059,1.66015625
98.1898903,1.6259765625
98.190208,1.5771484375
98.2020278,1.552734375
98.244697,1.5087890625
98.244937,1.4697265625
98.2801556,1.4306640625
98.2804374,1.3916015625
98.3168056,1.3525390625
98.3397726,1.3232421875
98.3400611,1.2841796875
98.3775916,1.2646484375
98.3818787,1.2353515625
98.4307131,1.2158203125
98.4313399,1.181640625
98.4414998,1.1669921875
98.4777003,1.1474609375
98.4819632,1.123046875
98.5171881,1.103515625
98.5377366,1.0791015625
98.5405185,1.0693359375
98.5759613,1.0595703125
98.5971885,1.044921875
98.6013359,1.0302734375
98.6423464,1.015625
98.6427401,1.0009765625
98.6755984,1.0009765625
98.6958621,1.0400390625
98.7008956,1.1328125
98.7347533,1.23046875
98.7562765,1.337890625
98.7602034,1.4404296875
98.7941046,1.5185546875
98.8137402,1.5966796875
98.8222794,1.66015625
98.8547717,1.71875
98.8776568,1.748046875
98.8840038,1.767578125
98.9012084,1.767578125
98.9383999,1.767578125
98.9404638,1.7431640625
98.9740946,1.708984375
98.9935653,1.66015625
99.0027354,1.62109375
99.0404855,1.5771484375
99.0425244,1.533203125
99.0751009,1.4892578125
99.0810474,1.4697265625
99.114123,1.435546875
99.1353148,1.396484375
99.1416813,1.3623046875
99.1764547,1.328125
99.1969636,1.2890625
99.2049432,1.2548828125
99.2478767,1.2255859375
99.2481295,1.19140625
99.2617141,1.1767578125
99.2977724,1.1474609375
99.3023455,1.1279296875
99.340995,1.0986328125
99.341269,1.0791015625
99.3875242,1.0595703125
99.3879328,1.0400390625
99.4087201,1.025390625
99.4203433,1.0009765625
99.4530527,0.9912109375
99.4739109,0.9716796875
99.4817588,0.95703125
99.5141521,0.9423828125
99.5363005,0.947265625
99.5435876,0.9765625
99.5937971,1.0595703125
99.5980783,1.15234375
99.6048598,1.2451171875
99.622634,1.318359375
99.6590994,1.435546875
99.6642612,1.5185546875
99.7040799,1.591796875
99.7046185,1.640625
99.7305635,1.689453125
99.7444635,1.7138671875
99.7934763,1.7138671875
99.7939555,1.69921875
99.8229805,1.6650390625
99.8233158,1.6357421875
99.8556321,1.6015625
99.8856485,1.5771484375
99.8859308,1.54296875
99.9050883,1.5087890625
99.9413768,1.474609375
99.9463447,1.4404296875
99.9620112,1.4013671875
100.0070364,1.3818359375
100.0072839,1.3525390625
100.0226023,1.318359375
100.0573685,1.2890625
100.0775048,1.2548828125
100.0859939,1.23046875
100.1310697,1.201171875
100.1313998,1.1767578125
100.1414933,1.1474609375
100.1739273,1.1376953125
100.194248,1.1181640625
100.204085,1.103515625
100.2415482,1.083984375
100.2419355,1.0791015625
100.2759973,1.0595703125
100.2968301,1.0498046875
100.3009281,1.0302734375
100.3416718,1.025390625
100.3420163,1.0107421875
100.3616875,1.0302734375
100.3961902,1.07421875
100.4178406,1.1474609375
100.4247571,1.2451171875
100.4602089,1.3427734375
100.4655401,1.4404296875
100.4867204,1.5234375
100.5284468,1.5771484375
100.5288037,1.6455078125
100.5433483,1.7138671875
100.5892433,1.7529296875
100.5896413,1.7822265625
100.6091946,1.787109375
100.6245595,1.7822265625
100.6717096,1.748046875
100.6719896,1.708984375
100.692471,1.669921875
100.703079,1.6259765625
100.7230653,1.5966796875
100.7638758,1.5625
100.764343,1.5283203125
100.8111128,1.4892578125
100.8114335,1.4501953125
100.8291475,1.4111328125
100.847524,1.376953125
100.8622524,1.337890625
100.8837179,1.3232421875
100.9340263,1.2890625
100.9342724,1.2646484375
100.9445747,1.23046875
100.994279,1.2060546875
100.9945907,1.171875
101.0053591,1.1572265625
101.0383231,1.1328125
101.0714808,1.103515625
101.071735,1.0986328125
