fs,t,y
51.78327063242314,0.4782261000000001,1.5771484375
,0.5133835000000002,1.6162109375
,0.5185833999999998,1.6259765625
,0.5663706999999998,1.640625
,0.5667327000000002,1.6455078125
,0.5802113000000002,1.669921875
,0.6289672,1.69921875
,0.6292102000000002,1.748046875
,0.6385960000000002,1.7724609375
,0.6739803000000002,1.81640625
,0.6769183000000001,1.8505859375
,0.7105526000000002,1.884765625
,0.7310319000000001,1.904296875
,0.7403442,1.9482421875
,0.7764267,1.97265625
,0.7819129999999999,1.9775390625
,0.8284107999999999,1.982421875
,0.8286704,1.97265625
,0.8368931000000002,1.97265625
,0.8757898000000002,1.9580078125
,0.8806162,1.9482421875
,0.9006428999999998,1.9287109375
,0.9383751999999999,1.9140625
,0.9387889999999999,1.8994140625
,0.9844186000000001,1.884765625
,0.9846618999999999,1.865234375
,1.0055809,1.865234375
,1.0196621000000001,1.85546875
,1.0633504999999999,1.8408203125
,1.0636066,1.8359375
,1.0810578999999998,1.81640625
,1.1013646000000001,1.8017578125
,1.1360655,1.7822265625
,1.1415132,1.7724609375
,1.1567652000000002,1.7431640625
,1.1918605000000002,1.7431640625
,1.212272,1.728515625
,1.2199832000000002,1.71875
,1.2663662000000002,1.69921875
,1.2667673000000002,1.69921875
,1.2799364,1.6845703125
,1.3020671,1.6796875
,1.3221215000000002,1.6650390625
,1.3407486999999998,1.6162109375
,1.3749818,1.611328125
,1.3802273999999999,1.630859375
,1.4215525000000002,1.6357421875
,1.4218829,1.6259765625
,1.4412598,1.6162109375
,1.4835093000000001,1.611328125
,1.4839107999999999,1.6162109375
,1.5031246999999999,1.630859375
,1.544858,1.669921875
,1.5452343000000002,1.69921875
,1.5600858,1.7431640625
,1.5804744,1.767578125
,1.6212279,1.787109375
,1.6214315,1.8017578125
,1.6415617,1.8212890625
,1.6608329,1.8359375
,1.6992577,1.8505859375
,1.7294659000000001,1.8603515625
,1.7297261000000002,1.85546875
,1.7383616000000002,1.8603515625
,1.7761265000000002,1.8603515625
,1.779305,1.875
,1.8161334,1.8603515625
,1.8212191999999998,1.865234375
,1.8419941999999998,1.845703125
,1.8851110000000002,1.8408203125
,1.8853540999999998,1.8212890625
,1.8990459,1.8310546875
,1.934215,1.81640625
,1.9395414,1.8115234375
,1.9799422,1.7919921875
,1.9802358999999998,1.7822265625
,2.0161930999999997,1.7578125
,2.0432275000000004,1.7626953125
,2.0436275999999998,1.748046875
,2.0598647999999997,1.7236328125
,2.1032532,1.7236328125
,2.1035052,1.71875
,2.1196101,1.708984375
,2.156784,1.69921875
,2.1617982,1.6943359375
,2.1967058,1.6796875
,2.2014818,1.669921875
,2.2372226,1.66015625
,2.2568815000000004,1.6455078125
,2.2612816000000002,1.630859375
,2.2964295000000003,1.640625
,2.3014433,1.640625
,2.3353054999999996,1.6357421875
,2.3557474000000003,1.640625
,2.3611779000000004,1.630859375
,2.3990973,1.650390625
,2.4037574,1.6748046875
,2.4397051000000003,1.71875
,2.4400532000000004,1.73828125
,2.4773154,1.77734375
,2.4807438,1.796875
,2.5252979,1.826171875
,2.5256995,1.8408203125
,2.5423307,1.8701171875
,2.5776926,1.875
,2.5821135,1.884765625
,2.5981204,1.884765625
,2.6361454999999996,1.8896484375
,2.6660940999999996,1.8798828125
,2.6664586000000003,1.8798828125
,2.6820658999999996,1.8701171875
,2.7173407000000003,1.8505859375
,2.7222918,1.845703125
,2.743488,1.826171875
,2.7778403999999997,1.81640625
,2.7780933,1.8017578125
,2.8143776999999996,1.8115234375
,2.834929,1.8017578125
,2.8408113000000004,1.806640625
,2.8841954000000003,1.7919921875
,2.8845356000000004,1.787109375
,2.9151398000000004,1.7724609375
,2.9222846000000002,1.767578125
,2.9439884999999997,1.748046875
,2.9648313,1.7041015625
,2.9838598999999997,1.669921875
,3.0010715,1.6357421875
,3.0455471999999997,1.669921875
,3.0462746000000003,1.6845703125
,3.0627693999999996,1.69921875
,3.0979326,1.69921875
,3.1190249999999997,1.6943359375
,3.1233651,1.6943359375
,3.1672026000000004,1.689453125
,3.1675171000000004,1.6748046875
,3.1811152,1.6845703125
,3.2275468,1.6796875
,3.2278938000000004,1.6796875
,3.2430201,1.6748046875
,3.2783856,1.6748046875
,3.2832724000000004,1.6845703125
,3.3183536,1.728515625
,3.3226639000000002,1.767578125
,3.3679572999999996,1.796875
,3.3682116000000004,1.8359375
,3.3830985,1.8603515625
,3.4201550999999997,1.884765625
,3.4205748,1.8994140625
,3.4591158999999996,1.9189453125
,3.4639724000000003,1.93359375
,3.5062111,1.9384765625
,3.506501,1.93359375
,3.5283191,1.9384765625
,3.5424528000000004,1.9287109375
,3.5837222000000004,1.923828125
,3.584143,1.904296875
,3.6188819,1.89453125
,3.6221268,1.884765625
,3.6575319000000004,1.865234375
,3.6796729,1.8505859375
,3.6799137,1.8310546875
,3.7171408,1.8310546875
,3.72131,1.81640625
,3.7417802,1.8115234375
,3.7771228,1.796875
,3.7981189000000004,1.787109375
,3.8035404,1.7724609375
,3.8404255000000003,1.7822265625
,3.8450584,1.7724609375
,3.895377,1.7724609375
,3.8956264999999997,1.7578125
,3.9030918999999997,1.7626953125
,3.9388115,1.748046875
,3.9419741000000004,1.7578125
,3.9894619000000002,1.7431640625
,3.9897864,1.728515625
,4.004082,1.71875
,4.0401861,1.708984375
,4.0456671,1.69921875
,4.0612582,1.6845703125
,4.0966761,1.6845703125
,4.1171098,1.6796875
,4.1220403,1.6748046875
,4.1573382,1.66015625
,4.178423,1.650390625
,4.1836968,1.6455078125
,4.2187194,1.6650390625
,4.2383644,1.6845703125
,4.2402245,1.728515625
,4.2756678,1.767578125
,4.2963343,1.787109375
,4.3038463,1.81640625
,4.3247107,1.8310546875
,4.3646309,1.865234375
,4.365157,1.875
,4.4131051,1.8994140625
,4.4135079,1.8994140625
,4.4219668,1.9287109375
,4.4578982,1.923828125
,4.4631808,1.9287109375
,4.5048305,1.9091796875
,4.5050754,1.904296875
,4.5401099,1.8896484375
,4.5446236,1.884765625
,4.5618944,1.865234375
,4.5973369,1.8798828125
,4.6067418,1.8798828125
,4.6224492,1.8212890625
,4.6613859,1.8310546875
,4.6644074,1.8310546875
,4.6834487,1.8359375
,4.7187976,1.826171875
,4.738727,1.826171875
,4.7453386,1.8212890625
,4.7863366,1.81640625
,4.7865795,1.8017578125
,4.8069827,1.8115234375
,4.823938,1.8115234375
,4.8655736,1.8212890625
,4.8658384,1.81640625
,4.9115358,1.81640625
,4.9118078,1.8115234375
,4.9245907,1.787109375
,4.9610402,1.77734375
,4.961448,1.7529296875
,4.9980971,1.7529296875
,5.003199,1.7431640625
,5.0389502,1.7333984375
,5.0435035,1.71875
,5.0796353,1.7138671875
,5.0878418,1.708984375
,5.1077594,1.7236328125
,5.1216835,1.7333984375
,5.1559887,1.767578125
,5.1768867,1.7822265625
,5.184094,1.7919921875
,5.226036,1.7822265625
,5.2264792,1.787109375
,5.2731582,1.7919921875
,5.2734481,1.787109375
,5.2870479,1.7919921875
,5.3011483,1.7822265625
,5.3506928,1.796875
,5.3509465,1.796875
,5.3808968,1.8115234375
,5.3857569,1.8115234375
,5.403461,1.81640625
,5.4389699,1.81640625
,5.4596711,1.8212890625
,5.4642482,1.81640625
,5.5006127,1.787109375
,5.5203438,1.796875
,5.5250579,1.81640625
,5.5441185,1.8310546875
,5.5797979,1.8310546875
,5.5848271,1.8310546875
,5.6311568,1.826171875
,5.6314075,1.8212890625
,5.6477711,1.8017578125
,5.6839832,1.787109375
,5.6843025,1.7626953125
,5.7257254,1.7578125
,5.7261251,1.73828125
,5.7727736,1.7236328125
,5.7731809,1.69921875
,5.7868315,1.6845703125
,5.8350575,1.66015625
,5.8355851,1.640625
,5.8427629,1.6162109375
,5.8638648,1.6357421875
,5.8988711,1.6357421875
,5.9279418,1.6259765625
,5.9282671,1.62109375
,5.9458869,1.611328125
,5.9917676,1.5966796875
,5.9921776,1.591796875
,6.0082427,1.611328125
,6.0244658,1.630859375
,6.069414500000001,1.6748046875
,6.069739200000001,1.7138671875
,6.0845722,1.748046875
,6.1050977,1.7724609375
,6.142020499999999,1.8017578125
,6.145292899999999,1.81640625
,6.1935667,1.8310546875
,6.1938166,1.85546875
,6.2029908,1.8505859375
,6.2395002999999996,1.875
,6.2603112,1.8701171875
,6.2646978,1.8701171875
,6.308257599999999,1.845703125
,6.308546,1.8359375
,6.3383137000000005,1.81640625
,6.3473054,1.806640625
,6.3854431,1.787109375
,6.3857587,1.7919921875
,6.4316168000000005,1.77734375
,6.432092000000001,1.7822265625
,6.446979000000001,1.7724609375
,6.4816991,1.7626953125
,6.4849861,1.748046875
,6.5212067000000005,1.748046875
,6.5281018,1.73828125
,6.572452500000001,1.7236328125
,6.5728504999999995,1.7138671875
,6.584257300000001,1.69921875
,6.633128299999999,1.7041015625
,6.6334044,1.6943359375
,6.6637459,1.689453125
,6.6641411,1.6845703125
,6.7110729,1.6796875
,6.7113444,1.6650390625
,6.7415971,1.6552734375
,6.7419932,1.640625
,6.787912499999999,1.6455078125
,6.7883099,1.6455078125
,6.8202263,1.6357421875
,6.8269488,1.6357421875
,6.8679202,1.6162109375
,6.8681728,1.611328125
,6.902740700000001,1.6015625
,6.9310309,1.6162109375
,6.9312766,1.6259765625
,6.9447139,1.6796875
,6.9949911,1.708984375
,6.995413299999999,1.7529296875
,7.0042414,1.7724609375
,7.055084300000001,1.8017578125
,7.055324000000001,1.8115234375
,7.075057299999999,1.8359375
,7.082998999999999,1.845703125
,7.1210147,1.875
,7.1505223,1.8310546875
,7.150839599999999,1.8603515625
,7.167351,1.8701171875
,7.2123621,1.865234375
,7.2126067,1.8603515625
,7.2267174,1.8408203125
,7.2612991000000005,1.8310546875
,7.2821461,1.81640625
,7.2890248,1.8115234375
,7.304669199999999,1.796875
,7.3518857,1.8017578125
,7.3523155,1.7919921875
,7.3733,1.7822265625
,7.3869393,1.7626953125
,7.4227425,1.7626953125
,7.443123699999999,1.748046875
,7.4481874,1.728515625
,7.4853995,1.7236328125
,7.485726700000001,1.7041015625
,7.521427600000001,1.7041015625
,7.5531848,1.6943359375
,7.5535862,1.689453125
,7.5677149,1.6796875
,7.6160698,1.669921875
,7.6165027,1.6552734375
,7.62979,1.650390625
,7.6449587,1.6357421875
,7.6917607,1.640625
,7.692080000000001,1.6259765625
,7.7076309,1.62109375
,7.753347,1.611328125
,7.753648399999999,1.6015625
,7.7685516,1.5869140625
,7.816382900000001,1.591796875
,7.816814900000001,1.611328125
,7.8243986,1.6357421875
,7.860064599999999,1.6845703125
,7.880220700000001,1.71875
,7.8857046,1.7578125
,7.9241981,1.7822265625
,7.9452722,1.8212890625
,7.9502015,1.8505859375
,7.9876507,1.8798828125
,7.987894799999999,1.8896484375
,8.0342496,1.8994140625
,8.034491,1.904296875
,8.0643489,1.9189453125
,8.0668164,1.904296875
,8.1105475,1.89453125
,8.1108109,1.8896484375
,8.131009,1.875
,8.1491735,1.8603515625
,8.1840891,1.845703125
,8.188871,1.8408203125
,8.2057402,1.826171875
,8.239795,1.826171875
,8.2607697,1.806640625
,8.2677412,1.8017578125
,8.2888184,1.77734375
,8.3249253,1.767578125
,8.329535,1.748046875
,8.3651664,1.73828125
,8.365567,1.71875
,8.4069076,1.7236328125
,8.4071555,1.708984375
,8.4286815,1.7236328125
,8.4695719,1.71875
,8.4699704,1.7041015625
,8.4904323,1.6943359375
,8.536046,1.6845703125
,8.5364419,1.6748046875
,8.5468009,1.66015625
,8.5965125,1.66015625
,8.5968002,1.6552734375
,8.6073321,1.6455078125
,8.6431311,1.6357421875
,8.6490819,1.6259765625
,8.6914075,1.62109375
,8.6918118,1.6259765625
,8.7217031,1.6259765625
,8.7276474,1.669921875
,8.7649722,1.71875
,8.7653849,1.748046875
,8.8149265,1.787109375
,8.8153244,1.806640625
,8.8465292,1.8359375
,8.8511557,1.845703125
,8.8868612,1.865234375
,8.8891672,1.8701171875
,8.9259301,1.884765625
,8.9262489,1.884765625
,8.9692615,1.9091796875
,8.9695801,1.904296875
,8.9997427,1.8994140625
,9.0076148,1.8798828125
,9.0465185,1.8701171875
,9.0488233,1.845703125
,9.0844177,1.8408203125
,9.1057779,1.8359375
,9.1060178,1.81640625
,9.141496,1.81640625
,9.1614672,1.8017578125
,9.1688951,1.7919921875
,9.2038953,1.77734375
,9.2094697,1.7724609375
,9.244698,1.7578125
,9.2664064,1.7431640625
,9.2668145,1.728515625
,9.3119067,1.728515625
,9.3122319,1.7236328125
,9.3419303,1.71875
,9.3484672,1.7041015625
,9.3897061,1.689453125
,9.3901738,1.6845703125
,9.425394,1.6650390625
,9.4312507,1.66015625
,9.4477708,1.640625
,9.4985163,1.6552734375
,9.4987725,1.650390625
,9.5105948,1.650390625
,9.529167,1.6357421875
,9.5768498,1.630859375
,9.5772871,1.62109375
,9.6069449,1.62109375
,9.612285,1.6259765625
,9.6319142,1.611328125
,9.6473751,1.6162109375
,9.6840469,1.689453125
,9.7055754,1.7333984375
,9.7089958,1.7822265625
,9.7629897,1.8115234375
,9.763403,1.8310546875
,9.7707359,1.85546875
,9.807078,1.8701171875
,9.8271465,1.884765625
,9.8273957,1.884765625
,9.8649516,1.8994140625
,9.8694074,1.89453125
,9.9042178,1.8896484375
,9.9249951,1.8701171875
,9.9306274,1.85546875
,9.9682598,1.8408203125
,9.9727846,1.845703125
,9.9888627,1.8310546875
,10.0268545,1.8310546875
,10.0271722,1.8310546875
,10.0736469,1.81640625
,10.0738895,1.796875
,10.1032036,1.7822265625
,10.1106226,1.7724609375
,10.1502156,1.748046875
,10.150888,1.73828125
,10.1700049,1.7138671875
,10.2127259,1.708984375
,10.2130499,1.6943359375
,10.2297651,1.6943359375
,10.264779,1.669921875
,10.2695435,1.66015625
,10.305132,1.6455078125
,10.3255095,1.630859375
,10.3282344,1.611328125
,10.3479293,1.62109375
,10.3834862,1.6259765625
,10.4158,1.6162109375
,10.4161999,1.6064453125
,10.4316979,1.5966796875
,10.4776335,1.591796875
,10.4780491,1.591796875
,10.4915358,1.6064453125
,10.526454,1.6259765625
,10.5470073,1.6650390625
,10.5500339,1.6943359375
,10.6017913,1.7431640625
,10.6021709,1.7724609375
,10.6113022,1.806640625
,10.6458443,1.826171875
,10.6515626,1.8505859375
,10.6886069,1.8798828125
,10.7089729,1.884765625
,10.7135411,1.89453125
,10.7294848,1.8994140625
,10.7696795,1.9091796875
,10.769925,1.904296875
,10.7910239,1.89453125
,10.8326987,1.875
,10.8330825,1.865234375
,10.8780515,1.845703125
,10.8783106,1.8359375
,10.8885211,1.81640625
,10.9263525,1.81640625
,10.9471933,1.8017578125
,10.9494324,1.796875
,10.9832603,1.77734375
,11.0035578,1.77734375
,11.0119489,1.7724609375
,11.049416,1.7578125
,11.0524191,1.7431640625
,11.0690915,1.728515625
,11.1144799,1.728515625
,11.1147642,1.71875
,11.1343748,1.71875
,11.1520531,1.708984375
,11.1714429,1.7041015625
,11.2068756,1.6845703125
,11.227898,1.6748046875
,11.2282939,1.66015625
,11.2551334,1.6650390625
,11.2703577,1.611328125
,11.3057454,1.6259765625
,11.3259208,1.6357421875
,11.331248,1.6357421875
,11.3779582,1.6357421875
,11.3782451,1.630859375
,11.3942099,1.6455078125
,11.4138502,1.66015625
,11.4486855,1.6943359375
,11.4491003,1.7236328125
,11.4846983,1.7724609375
,11.5055613,1.8017578125
,11.5107643,1.8408203125
,11.5460419,1.865234375
,11.5669607,1.89453125
,11.5748655,1.904296875
,11.5948685,1.9189453125
,11.6101955,1.9189453125
,11.6472151,1.943359375
,11.6503411,1.9482421875
,11.6867779,1.9384765625
,11.6923051,1.923828125
,11.7296536,1.904296875
,11.7345469,1.89453125
,11.7788593,1.8798828125
,11.7791037,1.875
,11.7908714,1.8603515625
,11.8260189,1.85546875
,11.831271,1.845703125
,11.8656759,1.826171875
,11.8718242,1.8115234375
,11.9180923,1.796875
,11.9183452,1.7822265625
,11.9392582,1.767578125
,11.9533783,1.7578125
,11.9715532,1.7333984375
,12.0059851,1.748046875
,12.0120611,1.748046875
,12.0478069,1.767578125
,12.0507524,1.767578125
,12.0851302,1.7724609375
,12.1073195,1.7578125
,12.1144192,1.7578125
,12.1350048,1.748046875
,12.1542346,1.708984375
,12.1724145,1.708984375
,12.2086229,1.7236328125
,12.2139105,1.728515625
,12.2323657,1.7333984375
,12.2746678,1.7236328125
,12.2750137,1.7431640625
,12.2949316,1.7431640625
,12.3301714,1.7529296875
,12.3356713,1.787109375
,12.3522689,1.826171875
,12.3987054,1.875
,12.3991075,1.9140625
,12.4122441,1.953125
,12.4597462,1.982421875
,12.4600752,2.0166015625
,12.4805133,2.0458984375
,12.4932185,2.0751953125
,12.5099431,2.0947265625
,12.5537639,2.138671875
,12.5541608,2.1533203125
,12.5838555,2.158203125
,12.5926659,2.16796875
,12.6287846,2.158203125
,12.6346884,2.1533203125
,12.6710051,2.1484375
,12.6766524,2.1484375
,12.6907061,2.1337890625
,12.7295986,2.138671875
,12.7322974,2.12890625
,12.7714173,2.12890625
,12.7716665,2.119140625
,12.8169092,2.119140625
,12.8171509,2.099609375
,12.8352752,2.0947265625
,12.8504701,2.0849609375
,12.886293,2.0947265625
,12.911699,2.0849609375
,12.912078,2.0849609375
,12.9568196,2.0751953125
,12.9570701,2.060546875
,12.9750852,2.05078125
,13.010489,2.0361328125
,13.0138002,2.0361328125
,13.0513403,2.0263671875
,13.0565451,2.041015625
,13.0724062,2.03125
,13.1146182,2.0458984375
,13.1150189,2.041015625
,13.1447915,2.041015625
,13.1522516,2.0361328125
,13.1921677,2.0458984375
,13.2128423,2.05078125
,13.2149765,2.0751953125
,13.2484316,2.1044921875
,13.2693529,2.1142578125
,13.2722671,2.1435546875
,13.317356,2.158203125
,13.3176017,2.1728515625
,13.3475305,2.1826171875
,13.3538269,2.197265625
,13.3951307,2.2021484375
,13.3953779,2.216796875
,13.4133804,2.216796875
,13.4587039,2.2314453125
,13.4591009,2.2216796875
,13.4751526,2.20703125
,13.5213724,2.1875
,13.5217784,2.16796875
,13.5355875,2.1435546875
,13.5835457,2.138671875
,13.5837964,2.1240234375
,13.5911883,2.08984375
,13.6281096,2.0751953125
,13.6337872,2.05078125
,13.6783317,2.021484375
,13.6785782,1.9873046875
,13.6943028,1.953125
,13.7279921,1.9140625
,13.7491034,1.875
,13.7564864,1.8310546875
,13.7768586,1.748046875
,13.7935695,1.6796875
,13.8132857,1.6943359375
,13.8478902,1.6796875
,13.8695153,1.6552734375
,13.8758133,1.650390625
,13.9277684,1.62109375
,13.9280938,1.611328125
,13.936906,1.6015625
,13.9736839,1.6064453125
,13.9740763,1.6064453125
,13.9941829,1.6357421875
,14.0302695,1.640625
,14.0330455,1.6552734375
,14.0681106,1.66015625
,14.087890000000002,1.6943359375
,14.095651100000001,1.7138671875
,14.1434502,1.7626953125
,14.143808400000001,1.7919921875
,14.1550266,1.8408203125
,14.190561299999999,1.8701171875
,14.195778399999998,1.9140625
,14.214893199999999,1.9384765625
,14.2500827,1.9482421875
,14.2706357,1.9580078125
,14.2758234,1.9580078125
,14.314317299999999,1.943359375
,14.314714200000001,1.9287109375
,14.360126600000001,1.9140625
,14.3603701,1.884765625
,14.375029099999999,1.845703125
,14.4227748,1.8115234375
,14.423340799999998,1.7724609375
,14.4360419,1.73828125
,14.4847423,1.7041015625
,14.484988600000001,1.669921875
,14.4943803,1.640625
,14.514761,1.6259765625
,14.549463200000002,1.58203125
,14.555151599999999,1.552734375
,14.5943908,1.5185546875
,14.594793500000002,1.494140625
,14.640523000000002,1.455078125
,14.6409236,1.4306640625
,14.6567978,1.4013671875
,14.7030748,1.376953125
,14.7034023,1.3427734375
,14.734140400000001,1.3330078125
,14.7345358,1.3134765625
,14.780235399999999,1.298828125
,14.780630200000001,1.279296875
,14.7972526,1.26953125
,14.8413355,1.25
,14.8417323,1.25
,14.857624900000001,1.2451171875
,14.8738749,1.23046875
,14.919343399999999,1.2451171875
,14.919602699999999,1.259765625
,14.9353141,1.2890625
,14.9717129,1.3330078125
,14.9762834,1.38671875
,15.012905799999999,1.435546875
,15.017888,1.484375
,15.034453200000002,1.5185546875
,15.078713100000002,1.572265625
,15.0789702,1.6064453125
,15.096053399999999,1.66015625
,15.1168942,1.6845703125
,15.1569109,1.7138671875
,15.157159,1.73828125
,15.205104299999999,1.73828125
,15.2057781,1.73828125
,15.234751200000002,1.7236328125
,15.235003500000001,1.728515625
,15.268957,1.71875
,15.2906664,1.71875
,15.296071300000001,1.708984375
,15.3334631,1.69921875
,15.336460299999999,1.6845703125
,15.357912899999999,1.669921875
,15.374269000000002,1.650390625
,15.409885899999999,1.6455078125
,15.415738600000001,1.6357421875
,15.452495200000001,1.62109375
,15.4573043,1.6015625
,15.493216,1.591796875
,15.4981659,1.5771484375
,15.5471778,1.5576171875
,15.5475916,1.54296875
,15.5588978,1.5185546875
,15.5951047,1.50390625
,15.5953771,1.484375
,15.633317300000002,1.494140625
,15.6337108,1.494140625
,15.6697107,1.4892578125
,15.701717200000001,1.474609375
,15.7019846,1.4697265625
,15.716648500000002,1.4501953125
,15.7507436,1.4501953125
,15.7716156,1.42578125
,15.777518400000002,1.4208984375
,15.826406299999999,1.42578125
,15.826732499999999,1.42578125
,15.8380492,1.4404296875
,15.886854799999998,1.46484375
,15.887098300000002,1.513671875
,15.8994134,1.5478515625
,15.9364481,1.58203125
,15.936845300000002,1.6064453125
,15.972265199999999,1.6455078125
,15.975566100000002,1.669921875
,15.998358199999998,1.7041015625
,16.0442692,1.7236328125
,16.0446751,1.7431640625
,16.0577786,1.748046875
,16.104844,1.748046875
,16.1051024,1.73828125
,16.1151078,1.7578125
,16.1524371,1.7626953125
,16.1551259,1.7578125
,16.1919142,1.7529296875
,16.1973827,1.73828125
,16.2330278,1.728515625
,16.2533893,1.708984375
,16.2593938,1.689453125
,16.2785109,1.66015625
,16.3220579,1.6064453125
,16.3223117,1.6015625
,16.3354467,1.6015625
,16.3711898,1.591796875
,16.392319,1.5966796875
,16.3973219,1.5869140625
,16.43382,1.5771484375
,16.4388467,1.5771484375
,16.4587702,1.5576171875
,16.4801737,1.5478515625
,16.4969668,1.5283203125
,16.5345402,1.5380859375
,16.5349487,1.533203125
,16.5692633,1.5283203125
,16.5910516,1.5234375
,16.5986803,1.5234375
,16.6189238,1.5087890625
,16.6639739,1.5185546875
,16.6643401,1.50390625
,16.6763203,1.513671875
,16.7116185,1.5087890625
,16.7320086,1.513671875
,16.7372431,1.513671875
,16.7733462,1.5478515625
,16.7778366,1.58203125
,16.8131347,1.611328125
,16.8339243,1.650390625
,16.8342362,1.6845703125
,16.8832153,1.71875
,16.8836099,1.7529296875
,16.9140282,1.7822265625
,16.9193304,1.806640625
,16.9615193,1.826171875
,16.9618703,1.8359375
,16.9800624,1.8408203125
,16.9982108,1.8310546875
,17.0172149,1.826171875
,17.0549648,1.81640625
,17.055363,1.806640625
,17.1021903,1.8115234375
,17.1026103,1.796875
,17.133375,1.787109375
,17.1404788,1.77734375
,17.1758638,1.77734375
,17.1811165,1.7578125
,17.2180145,1.748046875
,17.218462,1.7333984375
,17.2389466,1.728515625
,17.2572672,1.7236328125
,17.2920169,1.71875
,17.3122042,1.6943359375
,17.3201542,1.6845703125
,17.358025,1.6650390625
,17.3584941,1.66015625
,17.3789096,1.640625
,17.3972851,1.650390625
,17.4408654,1.650390625
,17.441282,1.6357421875
,17.4623876,1.6357421875
,17.4794865,1.62109375
,17.5006448,1.611328125
,17.5372666,1.5966796875
,17.5418713,1.591796875
,17.5572794,1.572265625
,17.597986,1.5771484375
,17.5982292,1.5771484375
,17.6174667,1.5771484375
,17.6525102,1.58203125
,17.6738761,1.6162109375
,17.679819,1.640625
,17.7145801,1.6796875
,17.7195081,1.71875
,17.7687615,1.7431640625
,17.7690028,1.7822265625
,17.7783562,1.806640625
,17.8142692,1.8359375
,17.8201814,1.8505859375
,17.8542931,1.8701171875
,17.8593323,1.875
,17.8804323,1.8798828125
,17.8954714,1.8701171875
,17.9308415,1.8798828125
,17.9514897,1.81640625
,17.9590588,1.8310546875
,17.993584,1.8310546875
,17.9980588,1.826171875
,18.0362141,1.8115234375
,18.0407729,1.806640625
,18.0816447,1.7919921875
,18.0819662,1.767578125
,18.1269833,1.7529296875
,18.1273314,1.7333984375
,18.1467044,1.7333984375
,18.1590428,1.728515625
,18.2047637,1.7333984375
,18.2050254,1.7236328125
,18.2216296,1.7138671875
,18.25926,1.69921875
,18.2596748,1.689453125
,18.2790527,1.669921875
,18.3287175,1.6748046875
,18.3291301,1.6650390625
,18.340188,1.6552734375
,18.3762601,1.650390625
,18.3814492,1.6357421875
,18.4223936,1.6162109375
,18.4226477,1.6064453125
,18.4582915,1.5966796875
,18.4587414,1.5771484375
,18.4994965,1.5869140625
,18.4997486,1.5869140625
,18.5358535,1.6015625
,18.563208,1.62109375
,18.5636529,1.6650390625
,18.5810553,1.689453125
,18.6156468,1.7236328125
,18.636727,1.7431640625
,18.6371878,1.77734375
,18.6862949,1.796875
,18.686541,1.8408203125
,18.6991938,1.8701171875
,18.7346034,1.884765625
,18.7397744,1.89453125
,18.7804859,1.89453125
,18.7807284,1.884765625
,18.8001907,1.8701171875
,18.8430355,1.85546875
,18.8434218,1.8359375
,18.8634519,1.8359375
,18.8804065,1.8310546875
,18.9001896,1.8212890625
,18.9382696,1.806640625
,18.9427386,1.8017578125
,18.9841998,1.7822265625
,18.9845458,1.7626953125
,19.0034185,1.7578125
,19.0208776,1.73828125
,19.0394365,1.7333984375
,19.0774209,1.71875
,19.0815265,1.7138671875
,19.1178241,1.6943359375
,19.1226836,1.689453125
,19.1578852,1.669921875
,19.1625523,1.66015625
,19.1791923,1.650390625
,19.2138346,1.6650390625
,19.2191412,1.6552734375
,19.240603,1.6552734375
,19.2785105,1.6455078125
,19.2834088,1.6455078125
,19.3181131,1.62109375
,19.323989,1.62109375
,19.372858,1.611328125
,19.3731804,1.591796875
,19.3797803,1.5966796875
,19.416237,1.6015625
,19.4208413,1.6162109375
,19.4651791,1.6455078125
,19.4654248,1.6845703125
,19.4803922,1.7236328125
,19.5182422,1.7529296875
,19.5186362,1.7822265625
,19.5540824,1.81640625
,19.5597451,1.845703125
,19.5783051,1.875
,19.6131052,1.8896484375
,19.6328083,1.904296875
,19.6429954,1.9189453125
,19.682146,1.9140625
,19.6824024,1.904296875
,19.7155884,1.884765625
,19.7376953,1.8798828125
,19.7401567,1.865234375
,19.7768984,1.8701171875
,19.7797791,1.8603515625
,19.8159132,1.8505859375
,19.8376728,1.8359375
,19.8422438,1.8212890625
,19.8781231,1.796875
,19.8996898,1.7822265625
,19.900149,1.767578125
,19.9369185,1.7626953125
,19.940223,1.748046875
,19.9751109,1.748046875
,19.9827173,1.73828125
,20.0022641,1.71875
,20.0382455,1.7041015625
,20.0424259,1.689453125
,20.0781787,1.6796875
,20.0784189,1.66015625
,20.1125725,1.66015625
,20.1332564,1.650390625
,20.1415062,1.640625
,20.1762506,1.630859375
,20.1971187,1.6259765625
,20.2028405,1.6162109375
,20.2383037,1.62109375
,20.2387009,1.6162109375
,20.2780339,1.630859375
,20.3082069,1.640625
,20.3088782,1.630859375
,20.3230679,1.6357421875
,20.3569584,1.640625
,20.3617327,1.6748046875
,20.3990345,1.7041015625
,20.4029696,1.73828125
,20.4235753,1.7578125
,20.4448386,1.7529296875
,20.4622097,1.73828125
,20.4986419,1.8017578125
,20.5032993,1.8408203125
,20.5399924,1.875
,20.5428108,1.8896484375
,20.5787429,1.8994140625
,20.5838848,1.89453125
,20.6193751,1.89453125
,20.6242818,1.8798828125
,20.6417711,1.8603515625
,20.6819914,1.8603515625
,20.6823877,1.85546875
,20.7034195,1.845703125
,20.7224756,1.8310546875
,20.7562081,1.826171875
,20.7761593,1.8115234375
,20.7857023,1.8017578125
,20.8018808,1.7822265625
,20.8213858,1.77734375
,20.8665219,1.7626953125
,20.8669711,1.7578125
,20.8977878,1.7333984375
,20.9049171,1.7236328125
,20.9390679,1.7138671875
,20.9437803,1.6943359375
,20.9910568,1.6796875
,20.9914553,1.6650390625
,21.003214,1.669921875
,21.0217081,1.6552734375
,21.0435488,1.650390625
,21.0780323,1.6357421875
,21.0827384,1.630859375
,21.1169593,1.6162109375
,21.1378618,1.6064453125
,21.1408729,1.5869140625
,21.1778187,1.591796875
,21.1810325,1.58203125
,21.216189,1.5869140625
,21.2378335,1.5869140625
,21.2444273,1.630859375
,21.2806458,1.6748046875
,21.2854174,1.708984375
,21.3280537,1.73828125
,21.328669,1.7578125
,21.3457992,1.787109375
,21.3620034,1.8017578125
,21.3990219,1.8359375
,21.4037476,1.8603515625
,21.453602,1.8798828125
,21.4540057,1.8896484375
,21.4653313,1.89453125
,21.5146015,1.875
,21.5148445,1.865234375
,21.5213126,1.845703125
,21.5569415,1.8408203125
,21.5623628,1.8408203125
,21.5963929,1.826171875
,21.6181897,1.8115234375
,21.6261334,1.7919921875
,21.672097,1.7822265625
,21.6724984,1.7626953125
,21.6865097,1.748046875
,21.7038144,1.7236328125
,21.7387436,1.7333984375
,21.7432054,1.7236328125
,21.7789825,1.7236328125
,21.7824034,1.7041015625
,21.8199928,1.6943359375
,21.8253575,1.6845703125
,21.8739649,1.6748046875
,21.8743188,1.6552734375
,21.8830309,1.6552734375
,21.9201917,1.650390625
,21.9229578,1.640625
,21.9604597,1.6357421875
,21.9611367,1.62109375
,22.012212,1.6162109375
,22.0125606,1.611328125
,22.0422224,1.6015625
,22.0425553,1.591796875
,22.0907969,1.5966796875
,22.0912061,1.54296875
,22.104709,1.5625
,22.1396886,1.5771484375
,22.146309,1.611328125
,22.1646741,1.6455078125
,22.2136944,1.689453125
,22.2140035,1.73828125
,22.225599,1.7578125
,22.2624608,1.787109375
,22.2626737,1.81640625
,22.2953797,1.8603515625
,22.3166945,1.8896484375
,22.3235073,1.923828125
,22.3599112,1.93359375
,22.3850813,1.943359375
,22.3855512,1.9287109375
,22.4201128,1.9189453125
,22.4482553,1.8994140625
,22.4485182,1.8994140625
,22.4625043,1.89453125
,22.4989284,1.884765625
,22.504485,1.865234375
,22.5413533,1.8603515625
,22.5445903,1.8505859375
,22.589442,1.8359375
,22.5896879,1.81640625
,22.619921,1.796875
,22.6219386,1.7919921875
,22.6563789,1.77734375
,22.6780359,1.767578125
,22.685307,1.748046875
,22.7292841,1.73828125
,22.7295425,1.71875
,22.7445995,1.69921875
,22.7614739,1.6796875
,22.7968893,1.689453125
,22.8172285,1.6796875
,22.8256194,1.669921875
,22.8448159,1.669921875
,22.8786997,1.650390625
,22.8986597,1.640625
,22.9061391,1.62109375
,22.9466733,1.611328125
,22.9469246,1.5966796875
,22.9771793,1.58203125
,22.9829504,1.572265625
,23.0209527,1.5771484375
,23.0260899,1.5771484375
,23.0716653,1.5966796875
,23.0719214,1.62109375
,23.0879284,1.6650390625
,23.1223062,1.6943359375
,23.1272207,1.728515625
,23.1433455,1.748046875
,23.1780034,1.796875
,23.1987265,1.826171875
,23.2038348,1.8505859375
,23.2433978,1.875
,23.2629664,1.8896484375
,23.2635488,1.89453125
,23.3055617,1.8896484375
,23.3058167,1.89453125
,23.3261523,1.8798828125
,23.3440202,1.875
,23.3788577,1.8701171875
,23.4003273,1.865234375
,23.4049181,1.845703125
,23.445136,1.8408203125
,23.4453885,1.81640625
,23.4660831,1.806640625
,23.5012958,1.796875
,23.5230785,1.767578125
,23.5233286,1.767578125
,23.5711577,1.7578125
,23.5714014,1.7529296875
,23.6013673,1.73828125
,23.6060354,1.728515625
,23.6476719,1.7041015625
,23.6480852,1.69921875
,23.6685141,1.6748046875
,23.6853614,1.6796875
,23.7204949,1.6650390625
,23.7254953,1.6650390625
,23.7460109,1.650390625
,23.7677844,1.6455078125
,23.8028299,1.6259765625
,23.8077207,1.6259765625
,23.8423741,1.62109375
,23.847983,1.6064453125
,23.8856865,1.591796875
,23.8860842,1.58203125
,23.9224542,1.5966796875
,23.927962,1.6162109375
,23.9465709,1.6455078125
,23.9815974,1.6796875
,23.9875002,1.71875
,24.0351758,1.7431640625
,24.0354979,1.767578125
,24.0655739,1.77734375
,24.0659034,1.81640625
,24.1012281,1.8359375
,24.1061725,1.85546875
,24.1415395,1.875
,24.1469507,1.8701171875
,24.1835149,1.8603515625
,24.1888994,1.8408203125
,24.2083919,1.8310546875
,24.2260745,1.8115234375
,24.262097,1.8115234375
,24.2663228,1.796875
,24.3151433,1.7919921875
,24.315392,1.7724609375
,24.326567,1.77734375
,24.3616095,1.7626953125
,24.3822067,1.7626953125
,24.3873727,1.7431640625
,24.4040887,1.748046875
,24.4374181,1.728515625
,24.457952,1.7333984375
,24.4644848,1.71875
,24.4990829,1.69921875
,24.5205178,1.6845703125
,24.5281859,1.6748046875
,24.5630755,1.6552734375
,24.5683229,1.6455078125
,24.5906019,1.5966796875
,24.6045195,1.5576171875
,24.6412679,1.5869140625
,24.6731325,1.5966796875
,24.6735167,1.5966796875
,24.6880522,1.5966796875
,24.7338306,1.5966796875
,24.734078,1.5869140625
,24.7486077,1.5771484375
,24.785526,1.5771484375
,24.7858477,1.5625
,24.8138283,1.572265625
,24.8282807,1.591796875
,24.8641001,1.640625
,24.8688927,1.6796875
,24.9043338,1.728515625
,24.9087345,1.7578125
,24.9453947,1.7919921875
,24.945646,1.806640625
,24.9843254,1.845703125
,25.0071295,1.8701171875
,25.0074176,1.8994140625
,25.0429295,1.9091796875
,25.0481417,1.923828125
,25.0940972,1.9189453125
,25.0945581,1.9189453125
,25.115046,1.9140625
,25.1261314,1.89453125
,25.1711571,1.8896484375
,25.1714098,1.8798828125
,25.1894474,1.875
,25.2345516,1.85546875
,25.2348006,1.845703125
,25.2472077,1.826171875
,25.2816749,1.8115234375
,25.3023112,1.7919921875
,25.3073456,1.787109375
,25.3444883,1.77734375
,25.3474024,1.77734375
,25.3827248,1.7626953125
,25.4029888,1.7529296875
,25.4074321,1.7431640625
,25.4446915,1.7236328125
,25.4682993,1.7138671875
,25.4686265,1.6943359375
,25.5154597,1.6845703125
,25.5157037,1.6650390625
,25.5358801,1.6650390625
,25.546612,1.66015625
,25.5836227,1.650390625
,25.6097196,1.6357421875
,25.6100516,1.630859375
,25.6459035,1.6162109375
,25.649069,1.6064453125
,25.6678882,1.591796875
,25.7187769,1.5966796875
,25.719165,1.591796875
,25.7274553,1.611328125
,25.7663315,1.640625
,25.7973476,1.6650390625
,25.7975935,1.7041015625
,25.809426,1.728515625
,25.8576968,1.7578125
,25.8581155,1.77734375
,25.8698378,1.81640625
,25.8877795,1.8408203125
,25.9224247,1.875
,25.9440795,1.8896484375
,25.9490155,1.904296875
,25.9941246,1.8994140625
,25.9945379,1.8994140625
,26.014115,1.8798828125
,26.0272551,1.875
,26.0734903,1.8701171875
,26.073896,1.8603515625
,26.0902432,1.8505859375
,26.1102348,1.8310546875
,26.1516504,1.826171875
,26.1520756,1.8115234375
,26.1699725,1.796875
,26.1864882,1.77734375
,26.2276936,1.77734375
,26.2280936,1.708984375
,26.2590016,1.7236328125
,26.2682346,1.7138671875
,26.322118,1.7138671875
,26.3225269,1.69921875
,26.3302052,1.6943359375
,26.3675552,1.669921875
,26.3682477,1.6796875
,26.4049585,1.6748046875
,26.4255298,1.6650390625
,26.4291136,1.6650390625
,26.4768973,1.66015625
,26.4773212,1.650390625
,26.4881816,1.640625
,26.5269149,1.630859375
,26.5290522,1.611328125
,26.5677841,1.6015625
,26.5865993,1.5869140625
,26.5868537,1.6064453125
,26.6225821,1.6259765625
,26.6485339,1.66015625
,26.6487817,1.6943359375
,26.6966084,1.728515625
,26.6969485,1.7626953125
,26.7123233,1.7724609375
,26.7607536,1.7919921875
,26.76119,1.8017578125
,26.7688694,1.8310546875
,26.8067055,1.8408203125
,26.806951,1.8505859375
,26.8538036,1.8408203125
,26.8542009,1.8359375
,26.8693812,1.8212890625
,26.904609,1.81640625
,26.9248094,1.796875
,26.9295464,1.8017578125
,26.9640248,1.7919921875
,26.9690346,1.787109375
,27.0038048,1.767578125
,27.024554,1.767578125
,27.0295069,1.748046875
,27.0633656,1.7333984375
,27.0850228,1.71875
,27.0920971,1.69921875
,27.128405,1.6455078125
,27.1288,1.6455078125
,27.1495502,1.66015625
,27.1699562,1.66015625
,27.2061654,1.650390625
,27.2111127,1.6455078125
,27.2475489,1.640625
,27.2526879,1.630859375
,27.2726485,1.6162109375
,27.2886987,1.6064453125
,27.3243341,1.611328125
,27.329309,1.6162109375
,27.374248,1.6015625
,27.3744869,1.6015625
,27.406254,1.5966796875
,27.4127335,1.6015625
,27.4313412,1.591796875
,27.4816143,1.5869140625
,27.4818972,1.572265625
,27.4894773,1.6015625
,27.5283579,1.611328125
,27.5287431,1.6552734375
,27.5496599,1.689453125
,27.5848623,1.7236328125
,27.607254,1.748046875
,27.6118112,1.77734375
,27.6288735,1.7919921875
,27.6496041,1.8310546875
,27.7002685,1.865234375
,27.7005835,1.8798828125
,27.7114394,1.904296875
,27.747605,1.904296875
,27.7504941,1.904296875
,27.793841,1.8896484375
,27.7941674,1.875
,27.8076612,1.85546875
,27.8429574,1.85546875
,27.8636812,1.8505859375
,27.8677563,1.8408203125
,27.9185521,1.826171875
,27.9188816,1.826171875
,27.9500095,1.8115234375
,27.9502754,1.8017578125
,27.9849716,1.796875
,28.0046634,1.7724609375
,28.0119137,1.7626953125
,28.047288,1.7431640625
,28.0477844,1.73828125
,28.087365,1.7236328125
,28.092786,1.7138671875
,28.1381653,1.7041015625
,28.1384272,1.69921875
,28.1528372,1.6796875
,28.1988632,1.6748046875
,28.1991081,1.66015625
,28.2106828,1.66015625
,28.2448089,1.650390625
,28.2498384,1.650390625
,28.2835948,1.640625
,28.304715,1.630859375
,28.3146972,1.6259765625
,28.3346409,1.6064453125
,28.3834549,1.6015625
,28.3837737,1.5869140625
,28.3903566,1.5966796875
,28.4315002,1.6162109375
,28.4321311,1.6650390625
,28.4675521,1.708984375
,28.4721722,1.7529296875
,28.5090541,1.77734375
,28.5122331,1.806640625
,28.5290191,1.8212890625
,28.5653082,1.8603515625
,28.5711228,1.8798828125
,28.5907557,1.8994140625
,28.6251835,1.9189453125
,28.6324275,1.9140625
,28.6812773,1.9140625
,28.6817149,1.904296875
,28.6934228,1.8994140625
,28.7129657,1.875
,28.7343893,1.8212890625
,28.7512651,1.7724609375
,28.7865231,1.8017578125
,28.7923131,1.806640625
,28.8278963,1.81640625
,28.8321612,1.8017578125
,28.880209,1.796875
,28.8804615,1.7822265625
,28.8947218,1.767578125
,28.9101691,1.73828125
,28.9609319,1.7529296875
,28.9611735,1.748046875
,28.9716379,1.7333984375
,29.0221647,1.7236328125
,29.0225559,1.708984375
,29.0328628,1.689453125
,29.068456,1.6748046875
,29.0887489,1.6650390625
,29.0912398,1.650390625
,29.1252655,1.6455078125
,29.1309274,1.6357421875
,29.1778202,1.630859375
,29.1782121,1.6162109375
,29.1939935,1.6162109375
,29.2384742,1.6015625
,29.2387188,1.591796875
,29.2542593,1.5869140625
,29.2700128,1.5673828125
,29.3175795,1.58203125
,29.3178194,1.591796875
,29.3472813,1.6455078125
,29.3541748,1.6748046875
,29.3893073,1.708984375
,29.3945365,1.7333984375
,29.4431173,1.7626953125
,29.4439721,1.77734375
,29.45172,1.826171875
,29.4875986,1.8505859375
,29.4914874,1.8798828125
,29.5279715,1.8896484375
,29.5507376,1.8994140625
,29.5510443,1.884765625
,29.5972989,1.8896484375
,29.5976925,1.875
,29.6252625,1.8603515625
,29.6348536,1.8408203125
,29.6524777,1.826171875
,29.6894371,1.826171875
,29.6941488,1.81640625
,29.7357287,1.8115234375
,29.7361384,1.796875
,29.7542977,1.7822265625
,29.7917687,1.7626953125
,29.7965745,1.7431640625
,29.8112899,1.7236328125
,29.8465749,1.728515625
,29.8517785,1.71875
,29.8889879,1.708984375
,29.8945013,1.708984375
,29.913159,1.6845703125
,29.9529485,1.6748046875
,29.9824012,1.66015625
,29.9826541,1.66015625
,29.9914768,1.6455078125
,30.0300784,1.640625
,30.0303927,1.6357421875
,30.0680439,1.6357421875
,30.0885939,1.6259765625
,30.094219799999998,1.62109375
,30.130173499999998,1.6064453125
,30.149942600000003,1.6015625
,30.1502926,1.591796875
,30.173398,1.5966796875
,30.209032899999997,1.5966796875
,30.214375500000003,1.6259765625
,30.235605399999997,1.6650390625
,30.2533142,1.689453125
,30.2879947,1.728515625
,30.308280000000003,1.7529296875
,30.3169143,1.77734375
,30.331388599999997,1.7919921875
,30.3526534,1.8310546875
,30.3873758,1.85546875
,30.4175914,1.8798828125
,30.417877599999997,1.884765625
,30.4340427,1.89453125
,30.4688235,1.8896484375
,30.489477700000002,1.8994140625
,30.495344000000003,1.884765625
,30.5158586,1.8701171875
,30.535784800000002,1.8603515625
,30.569402599999997,1.8408203125
,30.571920499999997,1.8408203125
,30.6090893,1.8310546875
,30.613512399999998,1.826171875
,30.6487026,1.8115234375
,30.678801800000002,1.806640625
,30.6791122,1.787109375
,30.6973243,1.7724609375
,30.7127921,1.748046875
,30.732669799999996,1.7578125
,30.7707025,1.7431640625
,30.7759005,1.73828125
,30.817685500000003,1.7236328125
,30.818083700000003,1.708984375
,30.836635899999997,1.6943359375
,30.8722774,1.6943359375
,30.875059399999998,1.6845703125
,30.8916684,1.6650390625
,30.927267200000003,1.669921875
,30.947871900000003,1.66015625
,30.953158199999997,1.6552734375
,31.004405300000002,1.6455078125
,31.004645500000002,1.6455078125
,31.015632500000002,1.6259765625
,31.051636199999997,1.6162109375
,31.0519691,1.6015625
,31.0869348,1.6064453125
,31.1084989,1.6015625
,31.115232399999996,1.62109375
,31.160532600000003,1.640625
,31.160930899999997,1.6748046875
,31.1747687,1.71875
,31.2120434,1.73828125
,31.216195399999997,1.7626953125
,31.2380859,1.7724609375
,31.2577996,1.7578125
,31.274305400000003,1.7822265625
,31.3093073,1.826171875
,31.314638600000002,1.8408203125
,31.350892700000003,1.8603515625
,31.3557359,1.8505859375
,31.393415400000002,1.85546875
,31.398100499999998,1.8408203125
,31.4330925,1.826171875
,31.433497699999997,1.8115234375
,31.470509,1.8115234375
,31.476837000000003,1.8017578125
,31.494976299999998,1.8115234375
,31.5299962,1.8115234375
,31.550966799999998,1.7919921875
,31.5562513,1.7822265625
,31.5777024,1.767578125
,31.597901899999997,1.748046875
,31.6127186,1.728515625
,31.6591971,1.7333984375
,31.659476400000003,1.7236328125
,31.689795099999998,1.7138671875
,31.6966927,1.69921875
,31.735492299999997,1.689453125
,31.735816300000003,1.6748046875
,31.7733717,1.669921875
,31.798402099999997,1.6552734375
,31.798828399999998,1.650390625
,31.8129969,1.6552734375
,31.848340200000003,1.6455078125
,31.8776266,1.6357421875
,31.877965099999997,1.6259765625
,31.897008399999997,1.62109375
,31.9417701,1.6015625
,31.942086099999997,1.5966796875
,31.954157600000002,1.58203125
,32.0049397,1.591796875
,32.0053455,1.591796875
,32.0165684,1.6357421875
,32.0357026,1.66015625
,32.0557918,1.69921875
,32.0925825,1.728515625
,32.0953509,1.7578125
,32.1304535,1.767578125
,32.1516124,1.796875
,32.1576072,1.81640625
,32.1737559,1.826171875
,32.2088735,1.8505859375
,32.2299394,1.8603515625
,32.2364727,1.8603515625
,32.2847814,1.85546875
,32.285101,1.845703125
,32.2985817,1.826171875
,32.3186425,1.8115234375
,32.3348672,1.8017578125
,32.3795915,1.796875
,32.3800201,1.7919921875
,32.4094052,1.787109375
,32.4151721,1.7724609375
,32.4569134,1.7529296875
,32.457174,1.748046875
,32.4775608,1.7236328125
,32.4974883,1.7138671875
,32.5347196,1.69921875
,32.535045,1.71875
,32.5720426,1.7138671875
,32.576446,1.7138671875
,32.6138255,1.7041015625
,32.6183896,1.6943359375
,32.6598366,1.6796875
,32.6601332,1.6845703125
,32.6747085,1.669921875
,32.7127886,1.669921875
,32.7159975,1.66015625
,32.7359353,1.6552734375
,32.7716158,1.6357421875
,32.7763952,1.6455078125
,32.8117173,1.6357421875
,32.8179224,1.62109375
,32.8552522,1.611328125
,32.8598257,1.6015625
,32.8806252,1.5625
,32.8955506,1.552734375
,32.9303524,1.630859375
,32.9506559,1.6845703125
,32.9556075,1.73828125
,32.993536,1.7724609375
,32.9991404,1.8017578125
,33.0486488,1.8212890625
,33.0490618,1.8505859375
,33.0540355,1.8701171875
,33.0889141,1.8994140625
,33.1083896,1.9287109375
,33.1165372,1.923828125
,33.151552,1.923828125
,33.1723931,1.9091796875
,33.1804629,1.904296875
,33.1976699,1.884765625
,33.232907,1.8701171875
,33.2531639,1.8505859375
,33.2566283,1.85546875
,33.2931824,1.8408203125
,33.2964149,1.8408203125
,33.3326493,1.8212890625
,33.3528977,1.806640625
,33.3584279,1.787109375
,33.3933441,1.767578125
,33.396815,1.73828125
,33.416004,1.748046875
,33.4545968,1.7431640625
,33.4548363,1.728515625
,33.5014615,1.7236328125
,33.5024013,1.7138671875
,33.5316731,1.7041015625
,33.5396192,1.689453125
,33.5776336,1.6845703125
,33.5778736,1.6748046875
,33.6119968,1.6796875
,33.6177007,1.6748046875
,33.6535995,1.669921875
,33.6559112,1.6552734375
,33.690201,1.6552734375
,33.7110785,1.640625
,33.7185226,1.630859375
,33.7615751,1.62109375
,33.7619661,1.6064453125
,33.781879,1.6064453125
,33.7978745,1.6162109375
,33.834016,1.6650390625
,33.8372398,1.69921875
,33.8876412,1.7333984375
,33.88796,1.7529296875
,33.919997,1.77734375
,33.9203562,1.7919921875
,33.9666373,1.8212890625
,33.9670301,1.8310546875
,33.9975451,1.865234375
,33.9978608,1.8798828125
,34.0430316,1.8896484375
,34.0432854,1.8798828125
,34.0576991,1.884765625
,34.0920376,1.875
,34.1135211,1.85546875
,34.1196826,1.845703125
,34.1375151,1.8359375
,34.1559052,1.8310546875
,34.1980197,1.8212890625
,34.198413,1.81640625
,34.2185932,1.806640625
,34.2592266,1.7919921875
,34.2594739,1.77734375
,34.2974212,1.7626953125
,34.2978176,1.7431640625
,34.3318411,1.7431640625
,34.340028,1.7333984375
,34.3575106,1.71875
,34.4020876,1.71875
,34.4024099,1.69921875
,34.4186014,1.689453125
,34.4643941,1.669921875
,34.4648298,1.6650390625
,34.4774045,1.6455078125
,34.5004668,1.650390625
,34.5171376,1.5869140625
,34.5377139,1.611328125
,34.5726398,1.611328125
,34.5916099,1.6357421875
,34.5986534,1.6357421875
,34.6334661,1.6455078125
,34.6548034,1.640625
,34.6601077,1.66015625
,34.6778523,1.669921875
,34.7121489,1.728515625
,34.7322314,1.767578125
,34.737316,1.7919921875
,34.7709844,1.8115234375
,34.7915078,1.8310546875
,34.8011953,1.845703125
,34.8355264,1.85546875
,34.8405793,1.8701171875
,34.8575303,1.8701171875
,34.8966397,1.875
,34.8970541,1.8701171875
,34.9435604,1.8603515625
,34.943802,1.845703125
,34.9641248,1.8408203125
,34.9801396,1.8212890625
,35.0148072,1.806640625
,35.0368071,1.796875
,35.037291,1.7724609375
,35.0845379,1.767578125
,35.0847835,1.7578125
,35.1000643,1.7578125
,35.135384,1.7431640625
,35.1387381,1.7333984375
,35.1724544,1.71875
,35.1949359,1.708984375
,35.195334,1.6943359375
,35.2335423,1.69921875
,35.2395764,1.689453125
,35.2738789,1.6796875
,35.2797435,1.669921875
,35.3170388,1.66015625
,35.319587,1.6455078125
,35.3563203,1.6455078125
,35.3790362,1.6357421875
,35.3827002,1.6162109375
,35.4017331,1.5673828125
,35.4195106,1.5673828125
,35.4388085,1.5771484375
,35.4737349,1.5771484375
,35.4791159,1.5869140625
,35.518014,1.58203125
,35.5226083,1.5869140625
,35.5568152,1.5869140625
,35.561316,1.6064453125
,35.5771551,1.6357421875
,35.5986964,1.7041015625
,35.6344681,1.7431640625
,35.6410119,1.787109375
,35.6752474,1.8212890625
,35.6807785,1.8408203125
,35.7155288,1.85546875
,35.7206736,1.875
,35.7587433,1.89453125
,35.7590937,1.8994140625
,35.7930308,1.9140625
,35.8134905,1.9140625
,35.819276,1.9091796875
,35.8400626,1.884765625
,35.8586616,1.8798828125
,35.8970848,1.85546875
,35.9286417,1.845703125
,35.9289629,1.826171875
,35.9387111,1.8212890625
,35.9762894,1.8115234375
,35.9790168,1.8115234375
,36.0151351,1.806640625
,36.0200541,1.7822265625
,36.0567723,1.7724609375
,36.0611881,1.7529296875
,36.1013608,1.7333984375
,36.1017121,1.7138671875
,36.1201422,1.7236328125
,36.1407982,1.7138671875
,36.1748991,1.7138671875
,36.1799506,1.69921875
,36.2147808,1.6845703125
,36.2396239,1.669921875
,36.239897,1.669921875
,36.2874293,1.6552734375
,36.287824,1.6455078125
,36.3178758,1.640625
,36.3181249,1.62109375
,36.3550755,1.62109375
,36.3604842,1.611328125
,36.395866,1.6162109375
,36.4166052,1.6064453125
,36.420538,1.6064453125
,36.4590716,1.6015625
,36.4899466,1.62109375
,36.4902012,1.640625
,36.499948,1.69921875
,36.5373777,1.7236328125
,36.54267,1.7626953125
,36.5616183,1.7822265625
,36.5951825,1.8017578125
,36.6180679,1.8115234375
,36.6224999,1.8603515625
,36.6586904,1.884765625
,36.659272,1.8994140625
,36.6951463,1.923828125
,36.7006246,1.9287109375
,36.7353942,1.9189453125
,36.739604,1.9091796875
,36.7750424,1.904296875
,36.7960959,1.8896484375
,36.8012791,1.8798828125
,36.8193276,1.85546875
,36.8651167,1.845703125
,36.8655073,1.8408203125
,36.8816149,1.8359375
,36.9178602,1.81640625
,36.9233107,1.796875
,36.9717324,1.787109375
,36.9719826,1.7626953125
,36.9824897,1.7529296875
,37.0031722,1.728515625
,37.0232953,1.6845703125
,37.0416394,1.640625
,37.0762069,1.6650390625
,37.0814475,1.669921875
,37.1171164,1.6748046875
,37.1221089,1.6650390625
,37.1580794,1.6748046875
,37.1787098,1.66015625
,37.1836239,1.6552734375
,37.2008083,1.640625
,37.2356234,1.6455078125
,37.2412904,1.6357421875
,37.2768062,1.6455078125
,37.2823401,1.6455078125
,37.3182017,1.6455078125
,37.3226324,1.6650390625
,37.3443796,1.6943359375
,37.379524,1.7236328125
,37.3799347,1.748046875
,37.4167925,1.787109375
,37.421224,1.8115234375
,37.454999,1.8310546875
,37.4752301,1.8505859375
,37.4829274,1.865234375
,37.5195148,1.8701171875
,37.5227265,1.884765625
,37.5397158,1.8798828125
,37.5599411,1.8798828125
,37.6128958,1.8798828125
,37.613136,1.8603515625
,37.622808,1.8505859375
,37.6586343,1.8359375
,37.6619871,1.8359375
,37.6991514,1.8212890625
,37.7036033,1.8115234375
,37.7216366,1.787109375
,37.755257,1.787109375
,37.7620932,1.7724609375
,37.8001337,1.767578125
,37.8003752,1.748046875
,37.8361237,1.73828125
,37.856225,1.7236328125
,37.8645342,1.708984375
,37.8855448,1.689453125
,37.9194065,1.6455078125
,37.9246279,1.6455078125
,37.9413595,1.6357421875
,37.9886629,1.6455078125
,37.988904,1.6455078125
,38.0198957,1.640625
,38.02436,1.6357421875
,38.061263,1.630859375
,38.0656893,1.630859375
,38.113778,1.62109375
,38.1141732,1.6015625
,38.1227701,1.6064453125
,38.1735042,1.6064453125
,38.1740648,1.6162109375
,38.1831109,1.6162109375
,38.2185705,1.6357421875
,38.2238871,1.6748046875
,38.2598341,1.7041015625
,38.2654898,1.73828125
,38.2822338,1.767578125
,38.3279126,1.8115234375
,38.3284968,1.8359375
,38.3426314,1.865234375
,38.3897846,1.8798828125
,38.3901439,1.8994140625
,38.4206483,1.9091796875
,38.4260936,1.9189453125
,38.4436079,1.9140625
,38.4629455,1.9140625
,38.4994429,1.8994140625
,38.5039696,1.8896484375
,38.5455124,1.8701171875
,38.5459825,1.865234375
,38.5647895,1.85546875
,38.609371,1.8359375
,38.6097652,1.826171875
,38.6209472,1.8115234375
,38.6573808,1.806640625
,38.6622366,1.8017578125
,38.6989876,1.8115234375
,38.7044603,1.796875
,38.7238486,1.7919921875
,38.7591742,1.7724609375
,38.7792426,1.7578125
,38.7844866,1.73828125
,38.8253184,1.728515625
,38.8255704,1.7138671875
,38.8469087,1.708984375
,38.864075,1.708984375
,38.9039441,1.6845703125
,38.9041906,1.6796875
,38.9532187,1.66015625
,38.9535428,1.6552734375
,38.9668728,1.640625
,38.986022,1.630859375
,39.0032514,1.611328125
,39.0450214,1.6162109375
,39.045279,1.6064453125
,39.0638737,1.611328125
,39.1075295,1.6015625
,39.1077798,1.6259765625
,39.1265118,1.6455078125
,39.1687085,1.689453125
,39.1689626,1.7138671875
,39.1837307,1.7724609375
,39.202424,1.806640625
,39.2375362,1.826171875
,39.2569562,1.8505859375
,39.2638029,1.8701171875
,39.3100578,1.8896484375
,39.3103099,1.9091796875
,39.3267843,1.923828125
,39.3436032,1.9189453125
,39.3618287,1.9287109375
,39.3965556,1.9287109375
,39.4183024,1.93359375
,39.4249913,1.9287109375
,39.4674325,1.93359375
,39.4678383,1.9287109375
,39.4855858,1.923828125
,39.5286885,1.923828125
,39.528986,1.8994140625
,39.5646837,1.85546875
,39.5652779,1.8408203125
,39.5846494,1.8505859375
,39.6043088,1.8408203125
,39.6541901,1.8359375
,39.654546,1.81640625
,39.6663047,1.806640625
,39.7013634,1.7822265625
,39.7064515,1.7822265625
,39.722629,1.7626953125
,39.7614755,1.7578125
,39.7635884,1.7431640625
,39.7975033,1.728515625
,39.817031,1.708984375
,39.824463,1.7041015625
,39.8582156,1.6796875
,39.8793976,1.66015625
,39.8863587,1.640625
,39.9020149,1.6162109375
,39.9360481,1.611328125
,39.9569876,1.611328125
,39.9642127,1.630859375
,40.0108022,1.6552734375
,40.011152,1.6748046875
,40.0271428,1.6943359375
,40.0716145,1.7138671875
,40.0720089,1.7236328125
,40.0847293,1.7578125
,40.1335187,1.7724609375
,40.1337657,1.787109375
,40.1440121,1.806640625
,40.1803525,1.8017578125
,40.1855349,1.806640625
,40.2263075,1.7919921875
,40.2265816,1.7919921875
,40.2422016,1.77734375
,40.2776198,1.7822265625
,40.2968838,1.7822265625
,40.3054088,1.7919921875
,40.3425412,1.7822265625
,40.3428038,1.7822265625
,40.3879478,1.7724609375
,40.3882683,1.7724609375
,40.4179922,1.7626953125
,40.4277205,1.7578125
,40.4442229,1.73828125
,40.4801837,1.7431640625
,40.5131229,1.7333984375
,40.5135192,1.7138671875
,40.5272318,1.69921875
,40.5466476,1.669921875
,40.5901536,1.650390625
,40.5910494,1.630859375
,40.6093546,1.62109375
,40.6244479,1.5966796875
,40.6594141,1.6015625
,40.6643522,1.591796875
,40.6999967,1.5869140625
,40.7050284,1.5771484375
,40.7442706,1.591796875
,40.7649632,1.591796875
,40.7670848,1.5966796875
,40.8024103,1.6015625
,40.8026881,1.5966796875
,40.8400803,1.62109375
,40.8455853,1.6455078125
,40.8836626,1.69921875
,40.8839153,1.73828125
,40.9293975,1.7822265625
,40.9296457,1.81640625
,40.9499738,1.85546875
,40.9644258,1.8701171875
,41.0014609,1.9140625
,41.0067483,1.9384765625
,41.053233,1.962890625
,41.0536476,1.97265625
,41.065642,1.97265625
,41.1010895,1.9580078125
,41.1198717,1.953125
,41.1277635,1.93359375
,41.1478931,1.904296875
,41.1688555,1.8505859375
,41.1858116,1.796875
,41.2208985,1.81640625
,41.2416184,1.81640625
,41.2451573,1.8212890625
,41.288002,1.81640625
,41.2883617,1.806640625
,41.3179972,1.787109375
,41.3278809,1.767578125
,41.3444369,1.748046875
,41.3807091,1.748046875
,41.4122094,1.7333984375
,41.4126106,1.728515625
,41.4289571,1.7236328125
,41.4749371,1.69921875
,41.4753332,1.6845703125
,41.4899747,1.669921875
,41.5084264,1.6650390625
,41.5274899,1.6455078125
,41.5466458,1.6455078125
,41.5659863,1.6357421875
,41.5856574,1.630859375
,41.6294387,1.6162109375
,41.6301265,1.6162109375
,41.6483597,1.6015625
,41.6905024,1.5966796875
,41.6908113,1.5771484375
,41.7058139,1.591796875
,41.7395414,1.5966796875
,41.7590448,1.6357421875
,41.7657941,1.6748046875
,41.8013,1.7138671875
,41.8311908,1.748046875
,41.8314366,1.767578125
,41.8493795,1.7919921875
,41.8650685,1.8115234375
,41.9089232,1.845703125
,41.9092441,1.8701171875
,41.9402426,1.8896484375
,41.9479515,1.89453125
,41.9875668,1.89453125
,41.9878083,1.884765625
,42.0089069,1.8798828125
,42.0287163,1.8603515625
,42.0669994,1.806640625
,42.0700234,1.81640625
,42.0885432,1.8017578125
,42.1064187,1.8115234375
,42.1486148,1.8017578125
,42.1490113,1.8017578125
,42.1682128,1.787109375
,42.2031781,1.7724609375
,42.208217,1.7578125
,42.2446204,1.748046875
,42.2726063,1.7333984375
,42.2730032,1.73828125
,42.2886041,1.728515625
,42.3262053,1.7236328125
,42.3266049,1.7138671875
,42.3649293,1.7041015625
,42.3953094,1.6845703125
,42.3955544,1.6845703125
,42.409038,1.669921875
,42.4261732,1.66015625
,42.4611909,1.650390625
,42.4824047,1.650390625
,42.4876514,1.6455078125
,42.5360818,1.6357421875
,42.5363431,1.630859375
,42.5474078,1.62109375
,42.5848639,1.611328125
,42.5853516,1.5966796875
,42.607069,1.6064453125
,42.6427485,1.62109375
,42.6497718,1.66015625
,42.6686299,1.689453125
,42.7026566,1.7236328125
,42.7241172,1.7578125
,42.7290556,1.77734375
,42.7690748,1.796875
,42.7694657,1.8212890625
,42.8006354,1.8701171875
,42.807653,1.8896484375
,42.8282196,1.9140625
,42.8643437,1.9189453125
,42.8947603,1.9189453125
,42.89516,1.8994140625
,42.9105516,1.89453125
,42.9314423,1.875
,42.9666131,1.8603515625
,42.9671778,1.8408203125
,43.0037396,1.8359375
,43.0067883,1.81640625
,43.0408519,1.8115234375
,43.0623765,1.8017578125
,43.069489,1.7822265625
,43.1098419,1.7578125
,43.1101109,1.73828125
,43.1574417,1.7236328125
,43.1578504,1.7041015625
,43.1678924,1.7041015625
,43.2186378,1.69921875
,43.2189022,1.6796875
,43.2289803,1.669921875
,43.2649415,1.66015625
,43.2853963,1.6455078125
,43.2908486,1.6455078125
,43.3084391,1.630859375
,43.3431214,1.6357421875
,43.3487032,1.6357421875
,43.3851292,1.6259765625
,43.3912329,1.6259765625
,43.4105815,1.611328125
,43.4521669,1.611328125
,43.4525022,1.6015625
,43.4721965,1.5966796875
,43.4871951,1.591796875
,43.529279,1.6162109375
,43.5295197,1.6455078125
,43.5506906,1.689453125
,43.591373,1.71875
,43.5916168,1.7529296875
,43.6105541,1.7724609375
,43.6533397,1.7919921875
,43.654013,1.8017578125
,43.6709066,1.796875
,43.6930744,1.787109375
,43.7100602,1.77734375
,43.7289399,1.826171875
,43.778151,1.8408203125
,43.7785429,1.8505859375
,43.8087173,1.8408203125
,43.8089555,1.845703125
,43.8440036,1.8408203125
,43.8641749,1.8359375
,43.8694526,1.81640625
,43.8885121,1.81640625
,43.9254243,1.8115234375
,43.9307641,1.8115234375
,43.9781477,1.7919921875
,43.9786406,1.7822265625
,43.9902234,1.767578125
,44.0252236,1.748046875
,44.0459031,1.73828125
,44.0485714,1.71875
,44.0681052,1.7236328125
,44.1050453,1.7138671875
,44.1096659,1.708984375
,44.1302286,1.6943359375
,44.1640349,1.6845703125
,44.1847831,1.669921875
,44.192105,1.6650390625
,44.2075335,1.650390625
,44.2426781,1.650390625
,44.2632993,1.6455078125
,44.2679587,1.640625
,44.3042993,1.62109375
,44.324605,1.6259765625
,44.3307483,1.62109375
,44.3666383,1.6064453125
,44.3720731,1.611328125
,44.3896138,1.6015625
,44.4089265,1.630859375
,44.4437682,1.6650390625
,44.4492866,1.708984375
,44.484861,1.7431640625
,44.4905564,1.7724609375
,44.5249855,1.787109375
,44.5454669,1.8115234375
,44.5527681,1.826171875
,44.5886698,1.8505859375
,44.5889107,1.8603515625
,44.6244633,1.8798828125
,44.6293632,1.89453125
,44.6800519,1.884765625
,44.6808375,1.875
,44.6903016,1.85546875
,44.7277029,1.8505859375
,44.7321568,1.8310546875
,44.7732648,1.8212890625
,44.7735058,1.8017578125
,44.7891279,1.8017578125
,44.8367639,1.796875
,44.8371566,1.8115234375
,44.8516916,1.8017578125
,44.8896624,1.8017578125
,44.8900709,1.7919921875
,44.9292343,1.7822265625
,44.9294783,1.7578125
,44.9499423,1.767578125
,44.9911362,1.7578125
,44.9913924,1.7431640625
,45.0085842,1.728515625
,45.0521058,1.71875
,45.052351,1.7041015625
,45.0746831,1.689453125
,45.0908649,1.6796875
,45.1252793,1.6650390625
,45.1283305,1.6650390625
,45.1780618,1.66015625
,45.1784597,1.650390625
,45.1931305,1.640625
,45.2114921,1.6357421875
,45.2471701,1.62109375
,45.2519703,1.611328125
,45.2867369,1.611328125
,45.3162073,1.6015625
,45.3164531,1.6162109375
,45.331009,1.5869140625
,45.3667913,1.650390625
,45.3691081,1.6943359375
,45.4088203,1.73828125
,45.4289917,1.7626953125
,45.4312961,1.787109375
,45.470621,1.8017578125
,45.4753716,1.826171875
,45.491365,1.8359375
,45.511197,1.865234375
,45.5498013,1.875
,45.5500449,1.8798828125
,45.5696733,1.865234375
,45.6065965,1.85546875
,45.6277388,1.845703125
,45.6348107,1.8212890625
,45.6755216,1.806640625
,45.6758724,1.796875
,45.6915573,1.796875
,45.7120045,1.7919921875
,45.7313501,1.7822265625
,45.766983,1.767578125
,45.7715601,1.7578125
,45.8149381,1.7431640625
,45.8151804,1.728515625
,45.8359614,1.7138671875
,45.8499582,1.7236328125
,45.8949882,1.708984375
,45.8954051,1.7041015625
,45.911393,1.69921875
,45.9560645,1.6845703125
,45.9563056,1.6748046875
,45.9763525,1.66015625
,45.9942713,1.650390625
,46.0111189,1.630859375
,46.0490827,1.6357421875
,46.0495052,1.6357421875
,46.0844249,1.630859375
,46.1064258,1.6162109375
,46.1131058,1.6162109375
,46.1339814,1.6015625
,46.1732987,1.5869140625
,46.1736916,1.58203125
,46.2202799,1.5380859375
,46.2205995,1.5576171875
,46.2493217,1.6259765625
,46.2520301,1.6845703125
,46.2860755,1.71875
,46.31206,1.7578125
,46.3123049,1.77734375
,46.3469843,1.8017578125
,46.367745,1.8212890625
,46.3751926,1.8505859375
,46.3911111,1.8603515625
,46.4254687,1.884765625
,46.4448924,1.8896484375
,46.4514058,1.8994140625
,46.4999217,1.884765625
,46.5001775,1.8798828125
,46.5130935,1.8603515625
,46.5511524,1.8408203125
,46.5811565,1.8359375
,46.5815633,1.8115234375
,46.5927401,1.81640625
,46.6118312,1.8017578125
,46.6576723,1.796875
,46.6580681,1.77734375
,46.6875949,1.767578125
,46.6933038,1.7529296875
,46.7137575,1.73828125
,46.7310559,1.7138671875
,46.7647034,1.7236328125
,46.7855929,1.708984375
,46.793023,1.7041015625
,46.8438507,1.689453125
,46.8441694,1.6845703125
,46.8537286,1.66015625
,46.890695,1.6748046875
,46.8955524,1.669921875
,46.9111136,1.6552734375
,46.9525772,1.6552734375
,46.9528165,1.650390625
,46.9730735,1.6455078125
,47.0067237,1.6357421875
,47.0286341,1.6357421875
,47.035623,1.6259765625
,47.0546443,1.6162109375
,47.0903211,1.611328125
,47.1246278,1.6064453125
,47.1249781,1.6064453125
,47.1339189,1.650390625
,47.1692241,1.6845703125
,47.1722267,1.7236328125
,47.208845,1.767578125
,47.2157806,1.7919921875
,47.2347255,1.8212890625
,47.2708421,1.8359375
,47.2915012,1.865234375
,47.2918205,1.8701171875
,47.3408324,1.8994140625
,47.341087,1.9091796875
,47.3526069,1.9189453125
,47.3883386,1.904296875
,47.4088238,1.904296875
,47.4147878,1.8798828125
,47.4512952,1.875
,47.4517499,1.85546875
,47.4874532,1.8603515625
,47.4925812,1.8408203125
,47.528333,1.845703125
,47.5343084,1.8310546875
,47.5535526,1.81640625
,47.5922242,1.8017578125
,47.592567,1.787109375
,47.6390002,1.767578125
,47.6393936,1.748046875
,47.6689253,1.748046875
,47.6734506,1.7431640625
,47.7099149,1.7333984375
,47.7153719,1.71875
,47.7497369,1.708984375
,47.7548615,1.689453125
,47.7917311,1.6845703125
,47.7962476,1.669921875
,47.8158249,1.62109375
,47.8368611,1.591796875
,47.8520636,1.552734375
,47.8852253,1.5869140625
,47.9067485,1.5966796875
,47.9143214,1.6162109375
,47.9662823,1.6162109375
,47.9667184,1.62109375
,47.9967059,1.6162109375
,47.9971047,1.62109375
,48.0121841,1.6259765625
,48.058042,1.6796875
,48.0582907,1.7138671875
,48.0787643,1.7578125
,48.0961327,1.7822265625
,48.1309331,1.806640625
,48.136218,1.81640625
,48.1713743,1.8408203125
,48.1908781,1.8603515625
,48.1911243,1.8603515625
,48.228553,1.8798828125
,48.2625072,1.884765625
,48.2627451,1.8798828125
,48.2742624,1.865234375
,48.3108492,1.8603515625
,48.3321826,1.8408203125
,48.3364909,1.8359375
,48.3533168,1.8212890625
,48.4023617,1.8212890625
,48.4027664,1.806640625
,48.4139839,1.8115234375
,48.4485555,1.7919921875
,48.4694386,1.7822265625
,48.4747861,1.7724609375
,48.5110549,1.7529296875
,48.5323111,1.73828125
,48.5327764,1.71875
,48.5761485,1.7138671875
,48.5764869,1.7041015625
,48.5954047,1.69921875
,48.614792,1.6845703125
,48.6533001,1.6748046875
,48.6829794,1.66015625
,48.683486,1.6552734375
,48.6951148,1.640625
,48.7286273,1.630859375
,48.7487867,1.62109375
,48.753403,1.6259765625
,48.7986702,1.611328125
,48.7989472,1.611328125
,48.8145328,1.611328125
,48.8509952,1.5966796875
,48.8735289,1.591796875
,48.8783439,1.5869140625
,48.8976773,1.6015625
,48.9150974,1.630859375
,48.9498336,1.6943359375
,48.954469,1.7333984375
,48.9890963,1.7724609375
,49.0098719,1.8017578125
,49.0151101,1.826171875
,49.0493835,1.8359375
,49.0705389,1.865234375
,49.0732174,1.875
,49.1089047,1.8896484375
,49.1294049,1.9091796875
,49.1345983,1.904296875
,49.170524,1.89453125
,49.1771171,1.8798828125
,49.2156831,1.875
,49.2160823,1.85546875
,49.2530845,1.845703125
,49.2535169,1.826171875
,49.2898536,1.8310546875
,49.2946315,1.8115234375
,49.3290214,1.8115234375
,49.3352507,1.7919921875
,49.3702822,1.7822265625
,49.3909279,1.7578125
,49.3962105,1.748046875
,49.4131424,1.7236328125
,49.4484564,1.7333984375
,49.4706916,1.7333984375
,49.4752598,1.6796875
,49.5094931,1.689453125
,49.516067,1.689453125
,49.554054,1.6845703125
,49.5743692,1.6796875
,49.5773309,1.669921875
,49.6128264,1.66015625
,49.6200221,1.650390625
,49.6350268,1.6357421875
,49.6798572,1.6357421875
,49.6802598,1.630859375
,49.6958427,1.6357421875
,49.7162998,1.6259765625
,49.7526758,1.6162109375
,49.7586663,1.6259765625
,49.7928521,1.611328125
,49.813029,1.611328125
,49.8132815,1.62109375
,49.8496579,1.6748046875
,49.8713119,1.7138671875
,49.8758129,1.7529296875
,49.9292318,1.77734375
,49.929652,1.806640625
,49.9391591,1.8212890625
,49.98991,1.8505859375
,49.9901703,1.865234375
,49.9957163,1.89453125
,50.0304434,1.9140625
,50.0364123,1.9287109375
,50.0834089,1.9140625
,50.0837906,1.923828125
,50.0975942,1.9140625
,50.1464744,1.89453125
,50.146872,1.884765625
,50.1547479,1.865234375
,50.1915778,1.865234375
,50.1962953,1.85546875
,50.2398535,1.8505859375
,50.2402694,1.8310546875
,50.2566726,1.8212890625
,50.300525,1.8017578125
,50.3007811,1.787109375
,50.3214516,1.7626953125
,50.3379802,1.71875
,50.3721627,1.708984375
,50.3747821,1.71875
,50.4100631,1.7236328125
,50.4306143,1.7138671875
,50.4386466,1.708984375
,50.4740982,1.6943359375
,50.4767225,1.689453125
,50.5145971,1.6748046875
,50.5199439,1.669921875
,50.5360459,1.650390625
,50.5721412,1.6552734375
,50.5773506,1.6455078125
,50.6251999,1.640625
,50.6254525,1.62109375
,50.6369683,1.6162109375
,50.6870407,1.6064453125
,50.6872923,1.6015625
,50.6948281,1.6015625
,50.7312681,1.650390625
,50.7363843,1.6943359375
,50.7734579,1.71875
,50.7809735,1.7529296875
,50.7978175,1.7724609375
,50.8329805,1.796875
,50.8376169,1.8115234375
,50.8757612,1.8359375
,50.8761229,1.845703125
,50.9116303,1.8701171875
,50.9322963,1.875
,50.9383096,1.8798828125
,50.9592189,1.865234375
,50.978137,1.8701171875
,51.014333,1.85546875
,51.018344,1.8505859375
,51.0618436,1.8505859375
,51.0620898,1.8359375
,51.093903,1.8359375
,51.098396,1.826171875
,51.1173156,1.81640625
,51.1525739,1.796875
,51.1581938,1.7919921875
,51.1783905,1.7724609375
,51.2131376,1.7529296875
,51.2329513,1.7333984375
,51.2399002,1.7236328125
,51.2566756,1.7041015625
,51.2946519,1.7041015625
,51.2991615,1.69921875
,51.3184518,1.6943359375
,51.3530786,1.6796875
,51.371922,1.6748046875
,51.3799949,1.6650390625
,51.4190196,1.6455078125
,51.4194227,1.6357421875
,51.4364176,1.6259765625
,51.4805566,1.6259765625
,51.4808054,1.6259765625
,51.5011618,1.6259765625
,51.5183506,1.611328125
,51.55678,1.6064453125
,51.5785824,1.6015625
,51.5789178,1.5966796875
,51.5982515,1.5966796875
,51.6181019,1.6357421875
,51.6643031,1.6748046875
,51.6646125,1.7138671875
,51.6787489,1.7529296875
,51.7275534,1.7724609375
,51.7278058,1.796875
,51.7399154,1.806640625
,51.7902435,1.8359375
,51.7908402,1.8408203125
,51.7963101,1.8701171875
,51.835624,1.8798828125
,51.8360232,1.8798828125
,51.8710335,1.8701171875
,51.8928849,1.865234375
,51.9006364,1.8505859375
,51.9211491,1.8359375
,51.9361374,1.8212890625
,51.9718485,1.826171875
,51.9923049,1.7626953125
,51.9980186,1.7919921875
,52.0356266,1.7919921875
,52.0402994,1.787109375
,52.0857275,1.7919921875
,52.086118,1.77734375
,52.1017803,1.7626953125
,52.1227537,1.748046875
,52.1422852,1.73828125
,52.1590809,1.71875
,52.1936253,1.7236328125
,52.1993959,1.71875
,52.2192317,1.7138671875
,52.2554032,1.6943359375
,52.2768041,1.689453125
,52.2815127,1.6748046875
,52.3334256,1.6650390625
,52.3338254,1.6650390625
,52.3367002,1.6455078125
,52.3780625,1.6455078125
,52.3783208,1.640625
,52.3982921,1.6455078125
,52.4333294,1.630859375
,52.4545425,1.630859375
,52.462115,1.6162109375
,52.5036557,1.6162109375
,52.5039903,1.6064453125
,52.5175528,1.6357421875
,52.5681293,1.6552734375
,52.5685301,1.7041015625
,52.5979988,1.7333984375
,52.5982998,1.77734375
,52.6346611,1.787109375
,52.6595927,1.81640625
,52.6598446,1.8359375
,52.6785973,1.8408203125
,52.7243879,1.865234375
,52.7245965,1.884765625
,52.7405156,1.8994140625
,52.7852808,1.89453125
,52.7854898,1.8896484375
,52.7990272,1.8701171875
,52.8376302,1.85546875
,52.8422906,1.8359375
,52.8604926,1.826171875
,52.8787685,1.806640625
,52.9128843,1.8115234375
,52.9328438,1.8017578125
,52.9406521,1.796875
,52.9865747,1.7919921875
,52.9867879,1.7724609375
,53.0057774,1.7578125
,53.0232031,1.748046875
,53.0651836,1.7529296875
,53.0655446,1.7431640625
,53.0809314,1.748046875
,53.1017109,1.73828125
,53.1201297,1.73828125
,53.1578619,1.7236328125
,53.162376,1.71875
,53.2051198,1.69921875
,53.205417,1.689453125
,53.2174736,1.6748046875
,53.2526379,1.6748046875
,53.2732436,1.6650390625
,53.2794563,1.6650390625
,53.3308975,1.6552734375
,53.3310972,1.640625
,53.3426159,1.6259765625
,53.3926224,1.611328125
,53.3928447,1.6064453125
,53.3993686,1.5966796875
,53.4402765,1.6015625
,53.4405978,1.611328125
,53.484508,1.640625
,53.4847708,1.6650390625
,53.5021377,1.7041015625
,53.5373236,1.71875
,53.5636845,1.748046875
,53.5638944,1.7578125
,53.5796346,1.7919921875
,53.6000912,1.8212890625
,53.63994,1.8359375
,53.6402479,1.845703125
,53.6749844,1.845703125
,53.6947264,1.85546875
,53.7011069,1.8408203125
,53.746065,1.8212890625
,53.7463742,1.806640625
,53.766505,1.806640625
,53.7796706,1.7919921875
,53.8155755,1.796875
,53.8223212,1.787109375
,53.8425304,1.787109375
,53.8612707,1.7626953125
,53.9041195,1.7431640625
,53.9043701,1.71875
,53.9500228,1.708984375
,53.9503971,1.6943359375
,53.9596471,1.6748046875
,54.0095426,1.6796875
,54.0098115,1.6650390625
,54.0204045,1.66015625
,54.0571109,1.6455078125
,54.0866638,1.6455078125
,54.0868937,1.640625
,54.1029429,1.6357421875
,54.1187236,1.62109375
,54.1637444,1.6259765625
,54.164022,1.62109375
,54.1985066,1.62109375
,54.2007089,1.6162109375
,54.2425861,1.62109375
,54.2429206,1.62109375
,54.2631408,1.611328125
,54.299906,1.611328125
,54.300196,1.62109375
,54.3199161,1.6650390625
,54.3660596,1.6943359375
,54.3664481,1.7333984375
,54.3874597,1.7529296875
,54.4032337,1.77734375
,54.4452389,1.7822265625
,54.4454447,1.8017578125
,54.4622263,1.8017578125
,54.4831118,1.77734375
,54.5006377,1.7529296875
,54.5373249,1.7919921875
,54.5415147,1.796875
,54.5862976,1.806640625
,54.5866359,1.8115234375
,54.6022785,1.8017578125
,54.647514,1.7919921875
,54.6478585,1.7822265625
,54.6643917,1.7724609375
,54.6807194,1.7578125
,54.7154511,1.7578125
,54.7419222,1.748046875
,54.7422851,1.7431640625
,54.7766792,1.728515625
,54.7974112,1.71875
,54.8029869,1.708984375
,54.8379938,1.7041015625
,54.8648425,1.689453125
,54.8650815,1.689453125
,54.8800766,1.6943359375
,54.9162848,1.6748046875
,54.9443228,1.6748046875
,54.9446952,1.66015625
,54.9645745,1.66015625
,55.0054686,1.6357421875
,55.0057341,1.630859375
,55.0209684,1.6162109375
,55.066717,1.6259765625
,55.0669227,1.6259765625
,55.0837321,1.6455078125
,55.1035817,1.630859375
,55.1390681,1.6357421875
,55.1460533,1.6259765625
,55.1643359,1.62109375
,55.181208,1.6064453125
,55.2037194,1.630859375
,55.2225416,1.6552734375
,55.2415587,1.689453125
,55.2844977,1.728515625
,55.2847088,1.7578125
,55.3302024,1.787109375
,55.3304562,1.8017578125
,55.3430947,1.826171875
,55.3751473,1.8408203125
,55.3967649,1.8603515625
,55.4016125,1.875
,55.4384237,1.89453125
,55.442353,1.9091796875
,55.4785917,1.9140625
,55.4832061,1.904296875
,55.5326274,1.89453125
,55.5329398,1.8896484375
,55.5463944,1.8701171875
,55.5964591,1.8603515625
,55.5968586,1.845703125
,55.6032761,1.845703125
,55.622404,1.8310546875
,55.6567218,1.826171875
,55.6776577,1.8115234375
,55.6833159,1.806640625
,55.7202301,1.787109375
,55.7248376,1.7822265625
,55.7411356,1.7626953125
,55.777078,1.7626953125
,55.7829149,1.7578125
,55.8314529,1.748046875
,55.8318546,1.7333984375
,55.8444941,1.7333984375
,55.8641974,1.71875
,55.897372,1.69921875
,55.9173996,1.6943359375
,55.9207454,1.6796875
,55.9730243,1.6796875
,55.9733683,1.6748046875
,55.9836716,1.6796875
,56.0049765,1.6650390625
,56.0250102,1.6650390625
,56.0672572,1.650390625
,56.0675842,1.6455078125
,56.0974869,1.630859375
,56.1060972,1.650390625
,56.1222903,1.6064453125
,56.1584802,1.6552734375
,56.1892351,1.708984375
,56.1896327,1.7431640625
,56.2052193,1.77734375
,56.2409777,1.8017578125
,56.2456021,1.826171875
,56.28202,1.8359375
,56.2867611,1.8505859375
,56.3031206,1.8603515625
,56.3386068,1.8896484375
,56.3443683,1.89453125
,56.3907341,1.8994140625
,56.3909931,1.8798828125
,56.4044435,1.8701171875
,56.4397522,1.85546875
,56.4671212,1.8408203125
,56.46737,1.8310546875
,56.4832098,1.8359375
,56.5178258,1.8310546875
,56.5382271,1.8115234375
,56.5442201,1.806640625
,56.5806892,1.7919921875
,56.5867305,1.7822265625
,56.6225105,1.767578125
,56.6268589,1.7578125
,56.6431259,1.7431640625
,56.6847612,1.7431640625
,56.6850543,1.73828125
,56.7303982,1.728515625
,56.7306484,1.71875
,56.7437391,1.708984375
,56.7791952,1.6943359375
,56.7996706,1.6845703125
,56.8070552,1.6796875
,56.8242949,1.66015625
,56.8725885,1.6650390625
,56.8733977,1.6552734375
,56.8828042,1.66015625
,56.9337214,1.640625
,56.933973,1.640625
,56.9543344,1.6259765625
,56.9665507,1.630859375
,57.0017444,1.6259765625
,57.0075147,1.66015625
,57.0234028,1.6796875
,57.059709,1.71875
,57.0642154,1.748046875
,57.099402,1.7724609375
,57.1204228,1.787109375
,57.1244116,1.826171875
,57.1661687,1.845703125
,57.1665688,1.85546875
,57.2011219,1.8603515625
,57.2051476,1.8603515625
,57.2236247,1.865234375
,57.2736888,1.8603515625
,57.2740722,1.8505859375
,57.3030343,1.8408203125
,57.3060082,1.8310546875
,57.3412259,1.81640625
,57.3453171,1.806640625
,57.3801483,1.7919921875
,57.3828397,1.7919921875
,57.4204952,1.77734375
,57.4239361,1.767578125
,57.4607196,1.7626953125
,57.4665051,1.7431640625
,57.4874558,1.7333984375
,57.5356452,1.7138671875
,57.5358951,1.708984375
,57.5428418,1.6943359375
,57.577966,1.7041015625
,57.59945,1.689453125
,57.6061096,1.6845703125
,57.6458475,1.6748046875
,57.6462686,1.6845703125
,57.6803819,1.669921875
,57.7009864,1.669921875
,57.7037588,1.66015625
,57.7237042,1.6748046875
,57.7709464,1.66015625
,57.7713433,1.6650390625
,57.7864808,1.6650390625
,57.8221266,1.6552734375
,57.8261158,1.650390625
,57.8628212,1.640625
,57.8944348,1.6357421875
,57.894912,1.640625
,57.9084354,1.669921875
,57.9270121,1.69921875
,57.945576,1.7431640625
,57.9876226,1.77734375
,57.9879657,1.8017578125
,58.0059873,1.81640625
,58.0520306,1.845703125
,58.0524316,1.85546875
,58.0835837,1.8701171875
,58.0882033,1.89453125
,58.1058682,1.8896484375
,58.1401085,1.8896484375
,58.1452926,1.8896484375
,58.1813095,1.89453125
,58.1864282,1.8798828125
,58.2230298,1.875
,58.227569,1.8603515625
,58.2488041,1.8505859375
,58.2637148,1.8359375
,58.3017005,1.845703125
,58.3222195,1.8310546875
,58.3271991,1.826171875
,58.3467158,1.8115234375
,58.3838952,1.8017578125
,58.3844857,1.787109375
,58.4253262,1.77734375
,58.447144,1.7626953125
,58.447561,1.7431640625
,58.4649696,1.7431640625
,58.5008735,1.7333984375
,58.536112,1.7333984375
,58.5363637,1.7236328125
,58.5476986,1.7138671875
,58.5833974,1.69921875
,58.5877381,1.6943359375
,58.6092227,1.6748046875
,58.6294156,1.630859375
,58.6445979,1.5869140625
,58.6902473,1.611328125
,58.690668,1.62109375
,58.7063234,1.630859375
,58.7400924,1.6357421875
,58.7615395,1.6259765625
,58.7689854,1.6259765625
,58.8131031,1.6259765625
,58.8133603,1.6552734375
,58.824796,1.6796875
,58.8617988,1.7236328125
,58.8892146,1.7578125
,58.8894579,1.7822265625
,58.9078338,1.796875
,58.9276165,1.81640625
,58.9631264,1.8310546875
,58.983505,1.845703125
,58.9854106,1.8505859375
,59.0227838,1.8701171875
,59.0253052,1.8603515625
,59.0606941,1.85546875
,59.0655916,1.8505859375
,59.1038632,1.826171875
,59.1065605,1.8212890625
,59.1402681,1.8017578125
,59.1605492,1.7919921875
,59.1663319,1.7822265625
,59.2001885,1.796875
,59.2198247,1.7919921875
,59.2264058,1.787109375
,59.2623714,1.7724609375
,59.2681404,1.7626953125
,59.3067344,1.748046875
,59.3070287,1.73828125
,59.3255945,1.71875
,59.3701999,1.7138671875
,59.3705986,1.71875
,59.386702,1.69921875
,59.4216708,1.6943359375
,59.4438078,1.6845703125
,59.4488679,1.6796875
,59.4949343,1.6650390625
,59.4953234,1.66015625
,59.5085714,1.640625
,59.5441293,1.6357421875
,59.5638697,1.62109375
,59.5685807,1.630859375
,59.587888,1.62109375
,59.6341763,1.6259765625
,59.6345708,1.62109375
,59.6478574,1.640625
,59.6966352,1.650390625
,59.6970149,1.69921875
,59.7098474,1.7333984375
,59.7271782,1.748046875
,59.7731282,1.77734375
,59.7733802,1.8017578125
,59.7887241,1.826171875
,59.8237915,1.8359375
,59.8278113,1.8505859375
,59.8623641,1.85546875
,59.88376,1.8505859375
,59.8840797,1.8359375
,59.9283051,1.8359375
,59.9291717,1.826171875
,59.9578607,1.81640625
,59.9684922,1.8017578125
,60.0062103,1.7919921875
,60.0078815,1.7919921875
,60.0443161,1.767578125
,60.0663487,1.7626953125
,60.0666577,1.7431640625
,60.0874011,1.748046875
,60.1293467,1.7333984375
,60.1296026,1.728515625
,60.149774,1.7138671875
,60.1917003,1.7041015625
,60.1921019,1.689453125
,60.2096457,1.6943359375
,60.2283038,1.6796875
,60.2633883,1.6845703125
,60.2689885,1.62109375
,60.2873946,1.640625
,60.3330211,1.640625
,60.3334523,1.650390625
,60.3483466,1.6552734375
,60.3868823,1.650390625
,60.3922104,1.6455078125
,60.4411178,1.640625
,60.4414188,1.6357421875
,60.4453923,1.6259765625
,60.4882282,1.6357421875
,60.4884318,1.6357421875
,60.508257,1.640625
,60.5518866,1.6455078125
,60.5522903,1.6748046875
,60.582181,1.7041015625
,60.5904385,1.7431640625
,60.6072442,1.7626953125
,60.6423336,1.8017578125
,60.647267,1.8359375
,60.6912032,1.8505859375
,60.6915962,1.8701171875
,60.7210005,1.884765625
,60.7304165,1.904296875
,60.7665523,1.904296875
,60.7717154,1.904296875
,60.7879447,1.884765625
,60.8219534,1.884765625
,60.8429513,1.8701171875
,60.8482317,1.865234375
,60.8941351,1.8505859375
,60.8945618,1.845703125
,60.9108922,1.826171875
,60.9558259,1.8115234375
,60.9564918,1.796875
,60.9667464,1.796875
,61.0023205,1.796875
,61.0079236,1.7822265625
,61.0483169,1.7724609375
,61.0485715,1.7578125
,61.0838242,1.7529296875
,61.1041858,1.73828125
,61.1130275,1.7333984375
,61.1314774,1.7138671875
,61.16787,1.669921875
,61.1681304,1.6748046875
,61.2034731,1.689453125
,61.2095901,1.6943359375
,61.2515382,1.7236328125
,61.2518265,1.7236328125
,61.2815507,1.728515625
,61.2915288,1.73828125
,61.3259643,1.7236328125
,61.3460121,1.71875
,61.34891,1.69921875
,61.3835554,1.7041015625
,61.388578,1.6943359375
,61.4236856,1.69921875
,61.4440627,1.69921875
,61.4497864,1.71875
,61.4859129,1.7431640625
,61.5061507,1.787109375
,61.5087761,1.8017578125
,61.5480645,1.8310546875
,61.5483185,1.8505859375
,61.5919959,1.8701171875
,61.5923073,1.8701171875
,61.6119612,1.89453125
,61.6476923,1.8994140625
,61.6496977,1.8994140625
,61.6853832,1.89453125
,61.7060694,1.875
,61.7089235,1.8701171875
,61.7294938,1.8603515625
,61.7500849,1.865234375
,61.7848191,1.85546875
,61.8056359,1.845703125
,61.8107327,1.8310546875
,61.856591,1.8115234375
,61.8569235,1.796875
,61.8775172,1.7919921875
,61.889175,1.7822265625
,61.9334798,1.767578125
,61.9338771,1.7626953125
,61.9557367,1.748046875
,61.9720617,1.7333984375
,61.991966,1.71875
,62.042778299999995,1.71875
,62.0431782,1.69921875
,62.054131600000005,1.6943359375
,62.06979509999999,1.6748046875
,62.121370999999996,1.6845703125
,62.121769900000004,1.6796875
,62.1312356,1.6845703125
,62.1672487,1.6650390625
,62.170792000000006,1.66015625
,62.208049900000006,1.6455078125
,62.2111513,1.640625
,62.2297399,1.6162109375
,62.2769574,1.640625
,62.2773358,1.6455078125
,62.2913193,1.640625
,62.3401939,1.6357421875
,62.340438199999994,1.6357421875
,62.3521592,1.650390625
,62.38767369999999,1.6796875
,62.3931554,1.7138671875
,62.40967379999999,1.7333984375
,62.4483144,1.767578125
,62.4687033,1.7919921875
,62.4717912,1.806640625
,62.49088999999999,1.81640625
,62.525960100000006,1.8408203125
,62.546118500000006,1.8505859375
,62.554280899999995,1.85546875
,62.57554880000001,1.8603515625
,62.5892542,1.8408203125
,62.6385612,1.8408203125
,62.6388183,1.826171875
,62.6675948,1.826171875
,62.6709156,1.8115234375
,62.7065269,1.806640625
,62.711549399999996,1.7919921875
,62.734409400000004,1.7822265625
,62.753269,1.7578125
,62.77398049999999,1.71875
,62.79087869999999,1.6748046875
,62.833920899999995,1.69921875
,62.8341882,1.7041015625
,62.852858999999995,1.708984375
,62.889214100000004,1.69921875
,62.8937691,1.69921875
,62.943684399999995,1.6943359375
,62.94401259999999,1.6748046875
,62.9551197,1.6748046875
,62.9717332,1.66015625
,63.0070516,1.6650390625
,63.012420199999994,1.66015625
,63.047718599999996,1.6650390625
,63.05158659999999,1.6552734375
,63.0725063,1.650390625
,63.107740899999996,1.640625
,63.1290255,1.630859375
,63.12957419999999,1.6162109375
,63.1788722,1.6259765625
,63.179271,1.6259765625
,63.2073345,1.6259765625
,63.211975699999996,1.6357421875
,63.2465162,1.6455078125
,63.2519609,1.6748046875
,63.287504,1.708984375
,63.307768499999995,1.767578125
,63.312304299999994,1.7919921875
,63.3304224,1.826171875
,63.364803300000005,1.8505859375
,63.3855185,1.8798828125
,63.3924263,1.884765625
,63.4268646,1.904296875
,63.4479669,1.9091796875
,63.455633199999994,1.9091796875
,63.4695438,1.89453125
,63.505977099999996,1.89453125
,63.511641,1.875
,63.5465212,1.8798828125
,63.552902700000004,1.875
,63.587864499999995,1.8603515625
,63.592695899999995,1.8505859375
,63.6379975,1.8359375
,63.638306400000005,1.81640625
,63.65521,1.8017578125
,63.699871200000004,1.7919921875
,63.700120999999996,1.7724609375
,63.7130492,1.7724609375
,63.7344842,1.7578125
,63.752933,1.7431640625
,63.7880751,1.7333984375
,63.8102528,1.73828125
,63.8143379,1.728515625
,63.851024300000006,1.708984375
,63.85662069999999,1.7041015625
,63.8720392,1.6845703125
,63.917000599999994,1.6845703125
,63.917225200000004,1.6748046875
,63.933528800000005,1.6748046875
,63.970211899999995,1.66015625
,63.9746478,1.6552734375
,64.0255835,1.650390625
,64.0261792,1.640625
,64.0308151,1.630859375
,64.0514345,1.640625
,64.0878076,1.6357421875
,64.0927018,1.640625
,64.1284638,1.6357421875
,64.1339464,1.66015625
,64.1678699,1.6748046875
,64.1886713,1.7236328125
,64.193981,1.7578125
,64.2275217,1.77734375
,64.2304435,1.8115234375
,64.2729088,1.826171875
,64.2733098,1.845703125
,64.2937661,1.865234375
,64.3290934,1.8896484375
,64.3341761,1.89453125
,64.3704749,1.89453125
,64.370777,1.8896484375
,64.3976966,1.8896484375
,64.4120781,1.8310546875
,64.4485494,1.8408203125
,64.4536949,1.8408203125
,64.5045312,1.8408203125
,64.5048556,1.845703125
,64.5162026,1.826171875
,64.5359777,1.806640625
,64.5806991,1.7919921875
,64.5810247,1.787109375
,64.593522,1.7626953125
,64.6132561,1.767578125
,64.6501571,1.7529296875
,64.6530131,1.748046875
,64.7036256,1.7333984375
,64.7038774,1.728515625
,64.7145239,1.7138671875
,64.7498423,1.69921875
,64.7714678,1.6845703125
,64.7718686,1.689453125
,64.8200595,1.6796875
,64.8204728,1.689453125
,64.8413564,1.6845703125
,64.8533113,1.6748046875
,64.8887118,1.6650390625
,64.9140967,1.650390625
,64.9145,1.6455078125
,64.9306902,1.6357421875
,64.9763617,1.6357421875
,64.9767614,1.630859375
,65.0071742,1.630859375
,65.0137108,1.630859375
,65.0667459,1.6357421875
,65.0673365,1.6552734375
,65.0740923,1.69921875
,65.090885,1.71875
,65.1279171,1.7578125
,65.1337258,1.7919921875
,65.1538773,1.8017578125
,65.1744563,1.826171875
,65.22364,1.8408203125
,65.2240869,1.8603515625
,65.2539371,1.8603515625
,65.2543347,1.865234375
,65.2763852,1.8505859375
,65.3147031,1.8017578125
,65.3152893,1.7919921875
,65.3341978,1.81640625
,65.3770483,1.81640625
,65.3774711,1.8310546875
,65.3959889,1.8212890625
,65.4153692,1.8212890625
,65.4521824,1.796875
,65.4582475,1.796875
,65.5007185,1.7822265625
,65.500969,1.7626953125
,65.5145246,1.7578125
,65.5485218,1.7529296875
,65.5704347,1.7431640625
,65.5752393,1.728515625
,65.596391,1.728515625
,65.6403875,1.71875
,65.6407977,1.708984375
,65.6528769,1.6943359375
,65.6882261,1.6943359375
,65.7185234,1.689453125
,65.7189277,1.6943359375
,65.7349156,1.6845703125
,65.7802064,1.6748046875
,65.7805525,1.6748046875
,65.7974421,1.66015625
,65.8174686,1.650390625
,65.8341918,1.640625
,65.8715556,1.6552734375
,65.8719432,1.6552734375
,65.9204308,1.6552734375
,65.9207555,1.66015625
,65.9504526,1.6845703125
,65.9552423,1.7138671875
,65.9903972,1.7529296875
,66.0109051,1.7724609375
,66.0143267,1.806640625
,66.0603063,1.826171875
,66.060597,1.845703125
,66.0747147,1.8603515625
,66.122335,1.8896484375
,66.1226584,1.8994140625
,66.1365678,1.8994140625
,66.1707283,1.89453125
,66.1910829,1.8798828125
,66.1993153,1.865234375
,66.2153427,1.8505859375
,66.2606861,1.8505859375
,66.2609444,1.8408203125
,66.2743337,1.8359375
,66.313107,1.81640625
,66.3157957,1.806640625
,66.3565856,1.7919921875
,66.3570039,1.7919921875
,66.3748326,1.77734375
,66.4209717,1.7822265625
,66.4212139,1.7822265625
,66.4351804,1.767578125
,66.4815281,1.7578125
,66.4817987,1.7431640625
,66.4972504,1.73828125
,66.5341065,1.71875
,66.5366598,1.7138671875
,66.5557014,1.69921875
,66.5752034,1.69921875
,66.6131434,1.6943359375
,66.6135582,1.69921875
,66.6512204,1.6845703125
,66.6718275,1.6796875
,66.6770552,1.669921875
,66.7114045,1.66015625
,66.7329668,1.6455078125
,66.7332831,1.66015625
,66.7689976,1.66015625
,66.7899711,1.650390625
,66.7940601,1.650390625
,66.8382948,1.6552734375
,66.838679,1.6748046875
,66.8745628,1.7041015625
,66.8790584,1.748046875
,66.8981801,1.7724609375
,66.9182416,1.7626953125
,66.9349155,1.7529296875
,66.9702742,1.806640625
,66.9901714,1.8408203125
,66.9945143,1.875
,67.0300915,1.8896484375
,67.0505904,1.904296875
,67.0587615,1.9189453125
,67.0951803,1.8994140625
,67.0999696,1.8896484375
,67.1148072,1.8701171875
,67.1482155,1.875
,67.1699303,1.8701171875
,67.175757,1.865234375
,67.2117755,1.8505859375
,67.232429,1.8408203125
,67.2388141,1.8212890625
,67.2726982,1.8115234375
,67.2774209,1.7919921875
,67.2958495,1.787109375
,67.3305318,1.7822265625
,67.3513992,1.7724609375
,67.3561324,1.7529296875
,67.4000994,1.7626953125
,67.4004884,1.7578125
,67.4307778,1.7431640625
,67.4402611,1.7333984375
,67.4549251,1.7236328125
,67.4913357,1.71875
,67.511718,1.7138671875
,67.5170563,1.708984375
,67.5371627,1.69921875
,67.5717232,1.6845703125
,67.5916697,1.6748046875
,67.5985254,1.66015625
,67.6142738,1.6455078125
,67.6609524,1.6552734375
,67.6611999,1.650390625
,67.6815204,1.650390625
,67.6963315,1.6552734375
,67.7404258,1.6455078125
,67.7407497,1.6650390625
,67.7616638,1.689453125
,67.7783543,1.7236328125
,67.8140918,1.7431640625
,67.8342922,1.7724609375
,67.8364132,1.7822265625
,67.8814952,1.81640625
,67.8817476,1.8310546875
,67.8978116,1.865234375
,67.9430646,1.8798828125
,67.9434645,1.89453125
,67.95883,1.8896484375
,67.9935757,1.884765625
,68.0134529,1.865234375
,68.0183159,1.875
,68.0685168,1.8701171875
,68.0687622,1.85546875
,68.0780761,1.845703125
,68.1147596,1.826171875
,68.1198432,1.8115234375
,68.1616665,1.796875
,68.1619993,1.787109375
,68.176645,1.7724609375
,68.2225187,1.77734375
,68.2229307,1.7724609375
,68.2371024,1.7626953125
,68.2737779,1.748046875
,68.2800264,1.7431640625
,68.3156713,1.728515625
,68.3181848,1.71875
,68.3640652,1.708984375
,68.3643923,1.689453125
,68.3947299,1.6943359375
,68.3951288,1.6943359375
,68.4398316,1.7041015625
,68.4400758,1.689453125
,68.4604096,1.6845703125
,68.4953996,1.6748046875
,68.4984075,1.6650390625
,68.5173506,1.6552734375
,68.5512355,1.6552734375
,68.5556101,1.5966796875
,68.5907062,1.6162109375
,68.611678,1.640625
,68.6174532,1.6796875
,68.6510564,1.708984375
,68.6705387,1.7529296875
,68.6798837,1.77734375
,68.715775,1.796875
,68.7206113,1.8115234375
,68.736278,1.826171875
,68.7727095,1.8505859375
,68.7932283,1.8603515625
,68.7975176,1.875
,68.8332263,1.875
,68.8541841,1.8701171875
,68.8601529,1.85546875
,68.8960507,1.8408203125
,68.8964007,1.826171875
,68.917207,1.845703125
,68.9393713,1.8408203125
,68.9743354,1.8408203125
,68.9790369,1.8359375
,69.0163928,1.8212890625
,69.0367713,1.81640625
,69.0396024,1.8017578125
,69.0789777,1.7919921875
,69.0792193,1.7724609375
,69.0971983,1.7724609375
,69.1312351,1.7626953125
,69.1538644,1.7529296875
,69.1586693,1.7333984375
,69.2038875,1.7236328125
,69.204279,1.708984375
,69.220995,1.69921875
,69.2360817,1.6796875
,69.2701024,1.6796875
,69.2921645,1.669921875
,69.2993219,1.669921875
,69.3447473,1.6650390625
,69.3451501,1.6455078125
,69.3614893,1.6357421875
,69.3803946,1.62109375
,69.422601,1.6162109375
,69.4229983,1.611328125
,69.4684147,1.5869140625
,69.4687105,1.6162109375
,69.4780608,1.669921875
,69.4992534,1.7138671875
,69.5466504,1.7578125
,69.5470456,1.787109375
,69.5614459,1.81640625
,69.5968635,1.8310546875
,69.6019701,1.85546875
,69.638669,1.875
,69.6389366,1.884765625
,69.6603226,1.9091796875
,69.698537,1.9140625
,69.6989206,1.923828125
,69.7341678,1.9091796875
,69.7547816,1.8994140625
,69.7593577,1.884765625
,69.8063813,1.875
,69.8066251,1.8505859375
,69.8371963,1.85546875
,69.8374381,1.8408203125
,69.8735798,1.8310546875
,69.8801709,1.8017578125
,69.9147347,1.796875
,69.9220292,1.77734375
,69.9411214,1.7822265625
,69.991209,1.7724609375
,69.9916354,1.7578125
,69.99824,1.7529296875
,70.0369804,1.7431640625
,70.0576118,1.73828125
,70.0604722,1.728515625
,70.0983318,1.71875
,70.100219,1.708984375
,70.1458734,1.69921875
,70.1463409,1.6796875
,70.1655705,1.6796875
,70.1800113,1.669921875
,70.2252006,1.669921875
,70.2254505,1.6650390625
,70.2421542,1.6552734375
,70.2614964,1.650390625
,70.3049802,1.630859375
,70.3053616,1.630859375
,70.3233313,1.6162109375
,70.3677007,1.6162109375
,70.3679495,1.611328125
,70.3795723,1.650390625
,70.4159889,1.6796875
,70.4205822,1.728515625
,70.4557042,1.7578125
,70.460611,1.796875
,70.4959481,1.8212890625
,70.5155782,1.845703125
,70.5204673,1.8603515625
,70.540091,1.8896484375
,70.5756399,1.904296875
,70.5801327,1.9287109375
,70.6159378,1.93359375
,70.6212965,1.9287109375
,70.656624,1.9140625
,70.6771566,1.8994140625
,70.6843444,1.8896484375
,70.6986005,1.8701171875
,70.7331831,1.8701171875
,70.7537395,1.865234375
,70.7582771,1.85546875
,70.7947879,1.8408203125
,70.8151989,1.826171875
,70.8226625,1.806640625
,70.864063,1.796875
,70.8645795,1.77734375
,70.8787156,1.77734375
,70.9140143,1.7724609375
,70.919202,1.7578125
,70.9581305,1.7431640625
,70.9609784,1.7333984375
,71.0049144,1.728515625
,71.0053142,1.7138671875
,71.0330878,1.7041015625
,71.0440314,1.689453125
,71.0651579,1.640625
,71.0795186,1.6015625
,71.1297795,1.630859375
,71.1301755,1.6357421875
,71.1603419,1.6455078125
,71.1609986,1.640625
,71.1985557,1.6357421875
,71.2037724,1.62109375
,71.2524241,1.630859375
,71.2528852,1.640625
,71.259427,1.6650390625
,71.2826425,1.708984375
,71.3167777,1.7431640625
,71.321282,1.7822265625
,71.3618709,1.796875
,71.3621695,1.8212890625
,71.3975438,1.8310546875
,71.4023537,1.8505859375
,71.4202103,1.8505859375
,71.4399752,1.875
,71.4875461,1.8896484375
,71.4879439,1.9091796875
,71.5182332,1.904296875
,71.5227619,1.904296875
,71.5650534,1.8994140625
,71.5653966,1.884765625
,71.5857095,1.875
,71.6016378,1.8603515625
,71.620942,1.8603515625
,71.6581651,1.8505859375
,71.6633481,1.8408203125
,71.6844132,1.826171875
,71.7032579,1.8115234375
,71.7506554,1.787109375
,71.7509079,1.77734375
,71.7591913,1.7578125
,71.7960919,1.7578125
,71.8174374,1.7431640625
,71.8228305,1.73828125
,71.8597002,1.7138671875
,71.8600073,1.7138671875
,71.9049308,1.69921875
,71.905314,1.6845703125
,71.9262979,1.669921875
,71.9452264,1.6552734375
,71.9860458,1.6455078125
,71.9863539,1.630859375
,72.0005361,1.640625
,72.0465874,1.6357421875
,72.047,1.630859375
,72.0627548,1.6162109375
,72.1115445,1.611328125
,72.1119595,1.6015625
,72.1244696,1.5966796875
,72.1415228,1.6015625
,72.1882294,1.640625
,72.1888187,1.689453125
,72.2174463,1.7138671875
,72.2222888,1.7431640625
,72.2581681,1.7626953125
,72.2634951,1.7919921875
,72.3121838,1.806640625
,72.3125865,1.8310546875
,72.3209581,1.845703125
,72.3571963,1.875
,72.3619826,1.875
,72.3816151,1.884765625
,72.4165626,1.8701171875
,72.4369646,1.8603515625
,72.4444562,1.845703125
,72.465102,1.8310546875
,72.4810999,1.806640625
,72.5155684,1.826171875
,72.5465919,1.826171875
,72.5469336,1.81640625
,72.5621012,1.8017578125
,72.5983542,1.7919921875
,72.6190691,1.77734375
,72.6237768,1.7626953125
,72.6710633,1.7529296875
,72.6714659,1.7431640625
,72.6808878,1.73828125
,72.7173932,1.728515625
,72.7223384,1.7236328125
,72.7582391,1.7138671875
,72.7634604,1.7041015625
,72.7838524,1.689453125
,72.8205979,1.6845703125
,72.8256116,1.6796875
,72.8737733,1.66015625
,72.8740372,1.650390625
,72.8836092,1.6357421875
,72.902999,1.6455078125
,72.9510017,1.630859375
,72.9513126,1.630859375
,72.9646663,1.6162109375
,72.9862319,1.611328125
,73.0200463,1.5966796875
,73.0248798,1.611328125
,73.0415901,1.62109375
,73.0762367,1.6650390625
,73.0971677,1.7041015625
,73.1048802,1.73828125
,73.1407522,1.7626953125
,73.1425166,1.796875
,73.1781758,1.81640625
,73.1979502,1.8359375
,73.2063753,1.85546875
,73.2219184,1.8701171875
,73.260219,1.8994140625
,73.281329,1.9091796875
,73.283785,1.9140625
,73.3159611,1.9091796875
,73.3385446,1.89453125
,73.345525,1.8798828125
,73.3805585,1.8701171875
,73.4015977,1.85546875
,73.4020428,1.85546875
,73.4386761,1.845703125
,73.4439919,1.8408203125
,73.4950787,1.8310546875
,73.4954838,1.8115234375
,73.5044328,1.796875
,73.5566822,1.7822265625
,73.5569372,1.7919921875
,73.5666472,1.77734375
,73.6029454,1.728515625
,73.6031996,1.71875
,73.6245146,1.728515625
,73.6614581,1.7236328125
,73.6662385,1.7236328125
,73.7017646,1.7138671875
,73.7068792,1.708984375
,73.7270987,1.689453125
,73.7615295,1.6796875
,73.7617947,1.66015625
,73.7976898,1.6796875
,73.8171122,1.6748046875
,73.8235292,1.6650390625
,73.8601826,1.6552734375
,73.8653548,1.6455078125
,73.9001732,1.6357421875
,73.9058446,1.630859375
,73.9411802,1.6357421875
,73.9415792,1.650390625
,73.9801819,1.6943359375
,74.0097555,1.7236328125
,74.0100131,1.7578125
,74.0252677,1.77734375
,74.0601457,1.8115234375
,74.0864789,1.8212890625
,74.0867276,1.8408203125
,74.1343489,1.865234375
,74.1346154,1.8701171875
,74.1428856,1.884765625
,74.1831639,1.8798828125
,74.1834557,1.884765625
,74.2210043,1.865234375
,74.2263707,1.85546875
,74.2619117,1.8310546875
,74.266509,1.81640625
,74.2837233,1.806640625
,74.3237999,1.8115234375
,74.3242415,1.8017578125
,74.3535796,1.796875
,74.3647304,1.7822265625
,74.3832613,1.767578125
,74.4198214,1.7431640625
,74.4416614,1.73828125
,74.4462527,1.728515625
,74.4947305,1.708984375
,74.4950906,1.6943359375
,74.50386,1.6796875
,74.5402589,1.6796875
,74.5449252,1.6748046875
,74.5873831,1.6796875
,74.5876359,1.669921875
,74.6245336,1.6650390625
,74.6249354,1.650390625
,74.6610939,1.6357421875
,74.6819814,1.62109375
,74.6825591,1.6259765625
,74.7279905,1.611328125
,74.728236,1.611328125
,74.7482054,1.611328125
,74.7675973,1.6015625
,74.7861787,1.6015625
,74.8217747,1.62109375
,74.8426874,1.6650390625
,74.843167,1.689453125
,74.8847135,1.73828125
,74.8849826,1.7626953125
,74.904429,1.7919921875
,74.9481593,1.806640625
,74.9485566,1.8359375
,74.9793482,1.8505859375
,74.9886372,1.875
,75.0050597,1.8701171875
,75.0412462,1.8798828125
,75.044199,1.875
,75.0788978,1.875
,75.0843,1.8701171875
,75.120155,1.8505859375
,75.1517774,1.845703125
,75.1520242,1.8310546875
,75.1680307,1.81640625
,75.1841693,1.8017578125
,75.2289104,1.7919921875
,75.2297067,1.7333984375
,75.2454881,1.7431640625
,75.2671769,1.7333984375
,75.2873471,1.7333984375
,75.3229584,1.7236328125
,75.3270461,1.7236328125
,75.363243,1.708984375
,75.3685804,1.7041015625
,75.3895463,1.6943359375
,75.4044165,1.6796875
,75.4388136,1.6845703125
,75.4607509,1.669921875
,75.4650951,1.669921875
,75.4996781,1.6552734375
,75.5202386,1.6455078125
,75.5274356,1.630859375
,75.5638877,1.62109375
,75.564466,1.611328125
,75.6011902,1.6357421875
,75.6055244,1.6357421875
,75.6496016,1.640625
,75.6498502,1.640625
,75.6823883,1.66015625
,75.6883306,1.6796875
,75.7069827,1.7236328125
,75.7442631,1.7578125
,75.7627053,1.7724609375
,75.7676491,1.8017578125
,75.7855753,1.8212890625
,75.8219667,1.8505859375
,75.8518531,1.865234375
,75.8521035,1.8896484375
,75.8677016,1.8994140625
,75.8878441,1.8994140625
,75.9045875,1.8896484375
,75.9400852,1.8896484375
,75.9468403,1.8798828125
,75.9920417,1.875
,75.9923048,1.85546875
,76.0068872,1.8408203125
,76.0552392,1.8310546875
,76.0556473,1.806640625
,76.0693057,1.796875
,76.1050364,1.77734375
,76.110075,1.77734375
,76.1270535,1.7529296875
,76.1633781,1.7578125
,76.1678866,1.7431640625
,76.1880152,1.7333984375
,76.2087248,1.7138671875
,76.2590568,1.7041015625
,76.260047,1.6845703125
,76.2701105,1.6748046875
,76.2844124,1.6552734375
,76.318341,1.6552734375
,76.3394422,1.6455078125
,76.346768,1.6455078125
,76.3966385,1.640625
,76.3968942,1.630859375
,76.4074417,1.6259765625
,76.444932,1.611328125
,76.4496291,1.6064453125
,76.4654122,1.5966796875
,76.4856039,1.611328125
,76.521576,1.630859375
,76.5415457,1.6650390625
,76.5471922,1.689453125
,76.583578,1.7236328125
,76.5881283,1.748046875
,76.6246466,1.7822265625
,76.6251789,1.796875
,76.6631338,1.8359375
,76.6678967,1.8603515625
,76.7086827,1.8701171875
,76.7089388,1.8798828125
,76.7279348,1.875
,76.7662289,1.865234375
,76.7665429,1.845703125
,76.8179916,1.826171875
,76.8185643,1.806640625
,76.8254045,1.806640625
,76.8655491,1.7919921875
,76.8971408,1.7919921875
,76.8975414,1.77734375
,76.9083151,1.767578125
,76.94471,1.7431640625
,76.9730595,1.7236328125
,76.9733061,1.69921875
,77.0061858,1.689453125
,77.0089426,1.6748046875
,77.026937,1.6552734375
,77.0685182,1.6552734375
,77.0687622,1.6455078125
,77.0978939,1.6357421875
,77.1092283,1.6259765625
,77.1441276,1.6259765625
,77.164982,1.6162109375
,77.1715163,1.6064453125
,77.1871471,1.591796875
,77.2252127,1.591796875
,77.2254797,1.58203125
,77.2697803,1.58203125
,77.270259,1.572265625
,77.2897678,1.5673828125
,77.3090053,1.572265625
,77.3452285,1.5673828125
,77.3504967,1.6015625
,77.3658041,1.6259765625
,77.403131,1.6748046875
,77.4097081,1.708984375
,77.4285329,1.748046875
,77.4491396,1.7626953125
,77.4834035,1.787109375
,77.5047997,1.796875
,77.5119348,1.8212890625
,77.5280159,1.8212890625
,77.5628726,1.845703125
,77.5689328,1.845703125
,77.6037152,1.845703125
,77.6077145,1.826171875
,77.6448261,1.8505859375
,77.6479498,1.85546875
,77.683811,1.845703125
,77.7042473,1.8408203125
,77.7101754,1.8310546875
,77.729893,1.77734375
,77.7724025,1.7333984375
,77.7726531,1.7578125
,77.7873813,1.7626953125
,77.8079655,1.7578125
,77.8448727,1.748046875
,77.865078,1.73828125
,77.8706919,1.728515625
,77.9089776,1.71875
,77.9094924,1.7041015625
,77.959771,1.7041015625
,77.9600171,1.7138671875
,77.9694623,1.69921875
,78.0059511,1.689453125
,78.0107621,1.6748046875
,78.051775,1.669921875
,78.0520256,1.650390625
,78.0851288,1.640625
,78.105772,1.6259765625
,78.1085567,1.630859375
,78.1467445,1.6259765625
,78.1471845,1.640625
,78.1849264,1.6455078125
,78.1896704,1.6845703125
,78.2262712,1.71875
,78.2306762,1.7529296875
,78.2492593,1.767578125
,78.3002163,1.81640625
,78.3011369,1.845703125
,78.3081426,1.85546875
,78.3475487,1.8798828125
,78.3477939,1.89453125
,78.3947285,1.904296875
,78.3950493,1.904296875
,78.4238076,1.904296875
,78.42677,1.8896484375
,78.4481468,1.8896484375
,78.482735,1.8798828125
,78.5047372,1.865234375
,78.5095577,1.85546875
,78.5498955,1.845703125
,78.5694351,1.8212890625
,78.5696903,1.8017578125
,78.6108586,1.796875
,78.6111139,1.7724609375
,78.6458556,1.7626953125
,78.6667879,1.7431640625
,78.6696799,1.748046875
,78.7206017,1.73828125
,78.7210047,1.7333984375
,78.7325164,1.7236328125
,78.7517359,1.7138671875
,78.7874993,1.6943359375
,78.7925162,1.6845703125
,78.8066123,1.6650390625
,78.8434029,1.669921875
,78.8644091,1.669921875
,78.8697107,1.6650390625
,78.9056854,1.6455078125
,78.9276356,1.6552734375
,78.9317453,1.6455078125
,78.9668898,1.6357421875
,78.9713802,1.630859375
,79.0067821,1.6162109375
,79.0072348,1.6259765625
,79.0435963,1.630859375
,79.0636492,1.6552734375
,79.0717895,1.6845703125
,79.0930227,1.7236328125
,79.1118821,1.7529296875
,79.1473253,1.77734375
,79.147725,1.787109375
,79.1672837,1.8310546875
,79.203953,1.8505859375
,79.225106,1.8798828125
,79.2300701,1.8994140625
,79.2810612,1.904296875
,79.2813238,1.8994140625
,79.2933817,1.8896484375
,79.3281972,1.8798828125
,79.3359781,1.85546875
,79.3526759,1.8017578125
,79.370191,1.7578125
,79.4207157,1.77734375
,79.4211314,1.7822265625
,79.4294107,1.796875
,79.4651035,1.7822265625
,79.4995114,1.7822265625
,79.4999561,1.767578125
,79.5137104,1.7529296875
,79.5302288,1.7333984375
,79.5501728,1.7431640625
,79.5849656,1.73828125
,79.606088,1.7236328125
,79.6115215,1.7138671875
,79.6316827,1.69921875
,79.6718367,1.689453125
,79.6721221,1.6796875
,79.7185379,1.6796875
,79.7189451,1.6748046875
,79.7303726,1.6796875
,79.7651482,1.6796875
,79.7859432,1.6748046875
,79.7910666,1.66015625
,79.8261291,1.6552734375
,79.8466445,1.6455078125
,79.8515901,1.640625
,79.9046033,1.650390625
,79.9049312,1.66015625
,79.911468,1.69921875
,79.9311351,1.7333984375
,79.9661159,1.77734375
,79.970583,1.7919921875
,80.0035315,1.8115234375
,80.0249529,1.8212890625
,80.0328929,1.8408203125
,80.0491277,1.8408203125
,80.0849517,1.865234375
,80.1052851,1.865234375
,80.1120734,1.865234375
,80.1529779,1.8505859375
,80.1532235,1.8408203125
,80.2006779,1.8212890625
,80.2009288,1.826171875
,80.2160591,1.81640625
,80.2334894,1.796875
,80.2545488,1.7919921875
,80.2718365,1.7822265625
,80.3094104,1.7822265625
,80.3119166,1.7724609375
,80.3478088,1.767578125
,80.355166,1.7529296875
,80.373482,1.73828125
,80.3939177,1.7236328125
,80.4319879,1.708984375
,80.4324098,1.689453125
,80.4497622,1.6943359375
,80.4872241,1.6845703125
,80.4905768,1.6748046875
,80.5414975,1.6748046875
,80.5417861,1.6552734375
,80.5606723,1.6455078125
,80.5741844,1.6259765625
,80.6106919,1.6259765625
,80.6110619,1.6015625
,80.6458805,1.6064453125
,80.6514438,1.6015625
,80.6877714,1.6064453125
,80.6909694,1.591796875
,80.7266052,1.6064453125
,80.7473532,1.6162109375
,80.7547506,1.6552734375
,80.7704944,1.689453125
,80.8069293,1.7431640625
,80.8096388,1.7724609375
,80.84839,1.806640625
,80.8539006,1.8359375
,80.900882,1.8505859375
,80.9011982,1.875
,80.9139981,1.884765625
,80.9497641,1.89453125
,80.9502283,1.89453125
,80.9850452,1.9091796875
,81.0053957,1.8994140625
,81.0131352,1.89453125
,81.0549447,1.8798828125
,81.0551914,1.875
,81.0883593,1.85546875
,81.0941666,1.8505859375
,81.1307566,1.826171875
,81.1351063,1.8115234375
,81.1713579,1.8115234375
,81.1719016,1.7919921875
,81.2104246,1.7919921875
,81.2108205,1.787109375
,81.248805,1.7822265625
,81.2689284,1.7724609375
,81.2741403,1.767578125
,81.3112967,1.748046875
,81.3168858,1.73828125
,81.3334795,1.7236328125
,81.3806184,1.728515625
,81.3811038,1.7236328125
,81.3938385,1.71875
,81.4301495,1.7138671875
,81.4347713,1.708984375
,81.4760302,1.6943359375
,81.4764283,1.69921875
,81.5209879,1.6943359375
,81.5212325,1.6748046875
,81.53256,1.6845703125
,81.5824096,1.6748046875
,81.5826633,1.6796875
,81.5923399,1.669921875
,81.6295614,1.689453125
,81.6590225,1.7041015625
,81.6592346,1.748046875
,81.6715881,1.7724609375
,81.7214439,1.8115234375
,81.7219547,1.8408203125
,81.7337309,1.884765625
,81.7708358,1.9091796875
,81.7756029,1.9287109375
,81.7940841,1.9580078125
,81.8297143,1.9677734375
,81.8498342,1.9775390625
,81.8554695,1.97265625
,81.8951171,1.93359375
,81.8954852,1.9287109375
,81.9251835,1.9384765625
,81.9340723,1.9384765625
,81.968795,1.9384765625
,81.9896488,1.9287109375
,81.9939419,1.93359375
,82.0298279,1.9140625
,82.0637274,1.9140625
,82.0641689,1.8994140625
,82.0719569,1.904296875
,82.1068657,1.884765625
,82.1404106,1.8896484375
,82.1407587,1.8798828125
,82.1564064,1.8603515625
,82.2016858,1.8505859375
,82.2019763,1.8359375
,82.2156809,1.826171875
,82.2486586,1.81640625
,82.2541537,1.8212890625
,82.2750647,1.81640625
,82.3118565,1.8115234375
,82.3122512,1.806640625
,82.3553813,1.7919921875
,82.3557049,1.7822265625
,82.3759482,1.7724609375
,82.3942039,1.7529296875
,82.4130429,1.748046875
,82.4490472,1.7529296875
,82.4697541,1.748046875
,82.4741221,1.7578125
,82.494752,1.7724609375
,82.5303881,1.8115234375
,82.536138,1.8212890625
,82.5767261,1.8408203125
,82.5771539,1.845703125
,82.5928363,1.8701171875
,82.6282217,1.875
,82.6537971,1.884765625
,82.6542325,1.8798828125
,82.6917242,1.875
,82.6968416,1.85546875
,82.74739,1.8408203125
,82.7477919,1.8017578125
,82.7567185,1.796875
,82.7781614,1.7822265625
,82.7949468,1.7578125
,82.8288808,1.7578125
,82.8496077,1.7529296875
,82.8545375,1.73828125
,82.9022357,1.7236328125
,82.9026507,1.71875
,82.9220571,1.7041015625
,82.9378772,1.69921875
,82.9537142,1.689453125
,82.997484,1.6943359375
,82.9978984,1.6943359375
,83.0281113,1.69921875
,83.0340378,1.6943359375
,83.0753623,1.6845703125
,83.0756156,1.69921875
,83.1114533,1.689453125
,83.1323788,1.6845703125
,83.1328805,1.669921875
,83.1536492,1.6796875
,83.2004742,1.6748046875
,83.2007883,1.6748046875
,83.2174341,1.669921875
,83.2517365,1.6748046875
,83.2569358,1.6748046875
,83.2775451,1.6845703125
,83.2936939,1.6845703125
,83.3308342,1.708984375
,83.3335448,1.73828125
,83.3710215,1.77734375
,83.3758188,1.8115234375
,83.3972496,1.8505859375
,83.41533,1.8798828125
,83.4503368,1.8896484375
,83.480623,1.9140625
,83.4808746,1.923828125
,83.496783,1.953125
,83.5143484,1.9091796875
,83.5520024,1.943359375
,83.5546442,1.943359375
,83.5904225,1.9384765625
,83.6099125,1.9189453125
,83.6177847,1.904296875
,83.6538732,1.884765625
,83.6579717,1.8701171875
,83.6934531,1.845703125
,83.6938306,1.8408203125
,83.7321898,1.8359375
,83.7364445,1.81640625
,83.7715906,1.796875
,83.7763958,1.7822265625
,83.8138646,1.77734375
,83.8179841,1.748046875
,83.8544546,1.7333984375
,83.8548543,1.708984375
,83.8930383,1.69921875
,83.8932953,1.6845703125
,83.9321785,1.6748046875
,83.9523712,1.6552734375
,83.9558122,1.640625
,84.0108497,1.62109375
,84.0113207,1.611328125
,84.0157802,1.591796875
,84.035487,1.6015625
,84.0702796,1.6064453125
,84.0911668,1.5869140625
,84.0961887,1.5869140625
,84.1163471,1.572265625
,84.1665676,1.5576171875
,84.1669821,1.5478515625
,84.1966061,1.5478515625
,84.196869,1.54296875
,84.2161152,1.5771484375
,84.2599193,1.611328125
,84.2601677,1.6552734375
,84.2759288,1.6796875
,84.3212646,1.71875
,84.3215873,1.7333984375
,84.3421498,1.7529296875
,84.3571282,1.77734375
,84.3969161,1.7919921875
,84.3973249,1.8017578125
,84.4145231,1.8017578125
,84.4503372,1.8115234375
,84.4779964,1.8017578125
,84.4782427,1.7919921875
,84.5254231,1.7724609375
,84.525674,1.7578125
,84.5378167,1.73828125
,84.5719561,1.7333984375
,84.5934176,1.7138671875
,84.5961163,1.7138671875
,84.6353575,1.7041015625
,84.635645,1.69921875
,84.6711319,1.6796875
,84.6906589,1.669921875
,84.699127,1.66015625
,84.7343543,1.640625
,84.7396381,1.630859375
,84.7549839,1.6162109375
,84.7891257,1.6162109375
,84.8101004,1.6162109375
,84.8170053,1.6162109375
,84.8507472,1.611328125
,84.8716706,1.6015625
,84.8795456,1.5966796875
,84.9258845,1.591796875
,84.9261362,1.58203125
,84.9373099,1.591796875
,84.9729909,1.5869140625
,84.9763042,1.58203125
,85.0127338,1.591796875
,85.0180172,1.58203125
,85.0532879,1.58203125
,85.0806423,1.5869140625
,85.0809704,1.62109375
,85.0941859,1.640625
,85.1438325,1.6943359375
,85.144078,1.7236328125
,85.1645786,1.7529296875
,85.1777955,1.767578125
,85.2241949,1.796875
,85.2245934,1.8017578125
,85.2403089,1.8212890625
,85.2863953,1.826171875
,85.2867212,1.8310546875
,85.2957935,1.81640625
,85.3327393,1.8310546875
,85.3377022,1.826171875
,85.3736482,1.806640625
,85.3793076,1.8017578125
,85.4160449,1.796875
,85.4192245,1.787109375
,85.4552665,1.7724609375
,85.460124,1.7626953125
,85.4749081,1.748046875
,85.5083274,1.748046875
,85.5303161,1.7431640625
,85.5399023,1.7333984375
,85.5827303,1.7236328125
,85.583079,1.7138671875
,85.6007909,1.7041015625
,85.643881,1.6943359375
,85.644128,1.7041015625
,85.655327,1.689453125
,85.6919545,1.7041015625
,85.6965613,1.69921875
,85.7325968,1.7041015625
,85.7524097,1.6943359375
,85.7592345,1.689453125
,85.7973101,1.6796875
,85.7977159,1.6748046875
,85.8451828,1.66015625
,85.8454264,1.6845703125
,85.8557856,1.689453125
,85.8905879,1.69921875
,85.9103536,1.69921875
,85.9171214,1.708984375
,85.9539129,1.71875
,85.9835407,1.7578125
,85.9837862,1.7919921875
,86.0017413,1.81640625
,86.0214714,1.8017578125
,86.0369432,1.787109375
,86.0758874,1.845703125
,86.0959963,1.8798828125
,86.0989612,1.9189453125
,86.1382437,1.93359375
,86.1384986,1.943359375
,86.1770472,1.9384765625
,86.1812191,1.93359375
,86.1980985,1.9189453125
,86.2338537,1.923828125
,86.2364259,1.923828125
,86.2721534,1.923828125
,86.2928808,1.9287109375
,86.3005723,1.9091796875
,86.33772,1.89453125
,86.3408297,1.8798828125
,86.3748639,1.875
,86.3963658,1.85546875
,86.3967672,1.85546875
,86.4317299,1.8408203125
,86.4521484,1.8359375
,86.4608417,1.81640625
,86.4967184,1.8017578125
,86.4991509,1.7822265625
,86.5340138,1.767578125
,86.5558768,1.748046875
,86.5562254,1.7431640625
,86.6010777,1.7236328125
,86.6013809,1.71875
,86.6348563,1.7041015625
,86.6397576,1.689453125
,86.6613271,1.6748046875
,86.7119543,1.66015625
,86.712222,1.6455078125
,86.7175301,1.630859375
,86.7575129,1.6357421875
,86.7579228,1.640625
,86.8062689,1.66015625
,86.8066523,1.6845703125
,86.8202545,1.71875
,86.8416069,1.748046875
,86.8601222,1.787109375
,86.8948054,1.806640625
,86.9158806,1.8310546875
,86.9227586,1.8603515625
,86.9399824,1.8701171875
,86.9751772,1.8994140625
,86.978515,1.9091796875
,87.02244,1.9189453125
,87.0227641,1.9189453125
,87.0410984,1.9091796875
,87.0757859,1.89453125
,87.097,1.8896484375
,87.0974082,1.875
,87.1468047,1.8896484375
,87.1472025,1.8896484375
,87.1773444,1.8994140625
,87.1777396,1.8896484375
,87.2232294,1.884765625
,87.22354,1.875
,87.2436204,1.875
,87.2857611,1.865234375
,87.2861708,1.8505859375
,87.2984752,1.865234375
,87.3360714,1.8603515625
,87.3406263,1.8603515625
,87.377244,1.85546875
,87.3827186,1.85546875
,87.4268967,1.845703125
,87.4271422,1.8359375
,87.4382319,1.8212890625
,87.4755289,1.8212890625
,87.4785092,1.8115234375
,87.5154917,1.8017578125
,87.5204116,1.787109375
,87.557259,1.7724609375
,87.5620485,1.767578125
,87.6119997,1.73828125
,87.6122556,1.7236328125
,87.6177014,1.708984375
,87.6552144,1.728515625
,87.6600254,1.6943359375
,87.6958683,1.7431640625
,87.6991251,1.767578125
,87.7208175,1.7919921875
,87.7557872,1.8017578125
,87.7819317,1.81640625
,87.7821767,1.81640625
,87.8184087,1.826171875
,87.8187372,1.8212890625
,87.8597069,1.8359375
,87.8601014,1.8310546875
,87.8894468,1.8408203125
,87.9018077,1.8359375
,87.9385725,1.8212890625
,87.9433932,1.806640625
,87.9621707,1.7919921875
,87.9830321,1.7822265625
,88.0006852,1.7626953125
,88.0461577,1.767578125
,88.0465513,1.7529296875
,88.0609074,1.7431640625
,88.097756,1.7333984375
,88.1219052,1.7138671875
,88.1221531,1.69921875
,88.1568867,1.69921875
,88.1589187,1.6845703125
,88.1959533,1.6796875
,88.200698,1.6845703125
,88.2349346,1.669921875
,88.2411856,1.6650390625
,88.2623993,1.6455078125
,88.2984893,1.6455078125
,88.3015456,1.630859375
,88.3422556,1.6259765625
,88.3424955,1.6064453125
,88.3727722,1.611328125
,88.3808531,1.6015625
,88.4016968,1.6015625
,88.4382801,1.5869140625
,88.4433989,1.5869140625
,88.462555,1.58203125
,88.4983965,1.58203125
,88.5185596,1.5869140625
,88.5248544,1.5771484375
,88.5600932,1.6162109375
,88.5603337,1.640625
,88.6083378,1.6748046875
,88.6086663,1.6943359375
,88.6221758,1.7138671875
,88.6588826,1.71875
,88.6616175,1.728515625
,88.6986206,1.7236328125
,88.733036,1.7236328125
,88.7333288,1.708984375
,88.7422861,1.7041015625
,88.7791918,1.689453125
,88.779511,1.6796875
,88.8250477,1.6650390625
,88.8254334,1.650390625
,88.8428212,1.640625
,88.8773618,1.62109375
,88.8846064,1.611328125
,88.9010717,1.591796875
,88.9377816,1.6015625
,88.9409528,1.5966796875
,88.9767642,1.5966796875
,88.9806834,1.591796875
,89.0155946,1.5966796875
,89.0349848,1.591796875
,89.0432952,1.5966796875
,89.0622416,1.591796875
,89.1057936,1.611328125
,89.1060911,1.630859375
,89.1238833,1.6552734375
,89.1420371,1.669921875
,89.1789683,1.69921875
,89.1842048,1.7236328125
,89.2304545,1.7431640625
,89.230694,1.767578125
,89.2402052,1.7822265625
,89.2749362,1.81640625
,89.2958568,1.8359375
,89.300996,1.8701171875
,89.3363614,1.8896484375
,89.3695446,1.9287109375
,89.369798,1.9775390625
,89.3833997,2.03125
,89.4322543,2.0703125
,89.4326589,2.119140625
,89.4401928,2.138671875
,89.4789594,2.1826171875
,89.4824358,2.216796875
,89.5165311,2.2265625
,89.5367963,2.236328125
,89.5430398,2.2314453125
,89.5773163,2.2216796875
,89.6003601,2.1923828125
,89.6051634,2.158203125
,89.6217015,2.119140625
,89.6686581,2.109375
,89.6688927,2.0947265625
,89.6831423,2.0947265625
,89.7185739,2.08984375
,89.7238948,2.080078125
,89.7449236,2.0703125
,89.780599,2.0654296875
,89.7810069,2.0458984375
,89.824061,2.0458984375
,89.8244342,2.0361328125
,89.8432946,2.0166015625
,89.8873246,1.9970703125
,89.8875664,1.9775390625
,89.9044733,1.962890625
,89.9488587,1.9482421875
,89.9491101,1.953125
,89.9604007,1.953125
,89.9981276,1.9677734375
,90.002224,1.97265625
,90.0415358,1.9677734375
,90.0417887,1.962890625
,90.074952,1.9482421875
,90.0950796,1.93359375
,90.1030606,1.923828125
,90.1401236,1.9140625
,90.1659215,1.89453125
,90.1663204,1.8505859375
,90.1827821,1.806640625
,90.2273028,1.845703125
,90.2276956,1.8701171875
,90.2433738,1.9140625
,90.2886792,1.943359375
,90.2889211,1.9775390625
,90.3213789,1.9873046875
,90.326324,2.001953125
,90.3430106,1.9921875
,90.3830107,2.01171875
,90.3832496,2.0068359375
,90.4190375,2.01171875
,90.4240125,2.0068359375
,90.4455773,2.0166015625
,90.4813123,2.01171875
,90.4842541,1.9873046875
,90.5189066,1.9580078125
,90.5381128,1.9384765625
,90.5428374,1.923828125
,90.5645058,1.9091796875
,90.601865,1.89453125
,90.6021282,1.875
,90.6370521,1.8603515625
,90.6586705,1.8408203125
,90.6636261,1.81640625
,90.6993635,1.7919921875
,90.7038343,1.77734375
,90.7237232,1.7529296875
,90.7624349,1.71875
,90.7626806,1.69921875
,90.8013744,1.6552734375
,90.8044854,1.6259765625
,90.8405071,1.5869140625
,90.8613463,1.5625
,90.8616044,1.5185546875
,90.9044218,1.4990234375
,90.9046951,1.46484375
,90.9349883,1.4404296875
,90.9446169,1.40625
,90.9817057,1.3818359375
,90.9863118,1.34765625
,91.0052557,1.318359375
,91.0418019,1.2841796875
,91.0467939,1.2548828125
,91.0636649,1.2255859375
,91.0974801,1.23046875
,91.1179702,1.2451171875
,91.1236003,1.259765625
,91.1589663,1.2841796875
,91.1793546,1.30859375
,91.1848523,1.337890625
,91.2185752,1.34765625
,91.2398737,1.3720703125
,91.2404589,1.3916015625
,91.2910072,1.42578125
,91.2912467,1.4453125
,91.3228534,1.46484375
,91.3232417,1.474609375
,91.3692694,1.4794921875
,91.36961,1.4697265625
,91.398795,1.4697265625
,91.4053432,1.4697265625
,91.4235223,1.4599609375
,91.4584392,1.46484375
,91.4633773,1.4697265625
,91.4983108,1.4794921875
,91.5196645,1.4697265625
,91.5274474,1.46484375
,91.5645242,1.4501953125
,91.5648609,1.4453125
,91.5854821,1.435546875
,91.6049057,1.4404296875
,91.6260874,1.435546875
,91.6466443,1.435546875
,91.6952642,1.4306640625
,91.6956565,1.42578125
,91.7057594,1.416015625
,91.7434218,1.42578125
,91.7489092,1.42578125
,91.7632664,1.416015625
,91.7997047,1.42578125
,91.8049797,1.376953125
,91.8519208,1.3916015625
,91.8521621,1.4013671875
,91.8662584,1.4111328125
,91.9120302,1.40625
,91.9122858,1.4111328125
,91.9289908,1.4111328125
,91.9651957,1.4111328125
,91.9656029,1.42578125
,92.0059167,1.484375
,92.0062468,1.5185546875
,92.0419664,1.5625
,92.04585,1.5966796875
,92.0818211,1.6162109375
,92.1170049,1.6357421875
,92.1174004,1.650390625
,92.1284391,1.6748046875
,92.14445,1.6845703125
,92.1924846,1.7138671875
,92.1927421,1.7236328125
,92.2055656,1.7333984375
,92.2432012,1.71875
,92.2455995,1.7236328125
,92.2818985,1.7041015625
,92.2879877,1.69921875
,92.3046699,1.689453125
,92.3419953,1.6943359375
,92.3463844,1.6845703125
,92.3828132,1.689453125
,92.3871658,1.6845703125
,92.4061957,1.6748046875
,92.4427726,1.6650390625
,92.4479887,1.6552734375
,92.4835872,1.6455078125
,92.484563,1.6357421875
,92.5035921,1.6455078125
,92.5384427,1.6455078125
,92.5692434,1.640625
,92.5696364,1.630859375
,92.5864624,1.6259765625
,92.6215969,1.6162109375
,92.6430569,1.611328125
,92.6475353,1.5966796875
,92.6686441,1.54296875
,92.7034985,1.513671875
,92.7037422,1.5185546875
,92.7407254,1.5380859375
,92.7730149,1.5380859375
,92.7734224,1.552734375
,92.7876068,1.5380859375
,92.835616,1.54296875
,92.8360153,1.533203125
,92.8488254,1.54296875
,92.8658075,1.5576171875
,92.9132921,1.6064453125
,92.9137064,1.630859375
,92.9271254,1.6650390625
,92.9476096,1.6796875
,92.9683797,1.69921875
,93.0022865,1.708984375
,93.0228657,1.7431640625
,93.0280861,1.7626953125
,93.043441,1.7724609375
,93.0826744,1.787109375
,93.1037652,1.7919921875
,93.1066571,1.7919921875
,93.1273333,1.77734375
,93.1636844,1.7724609375
,93.1680279,1.7626953125
,93.2084377,1.7529296875
,93.208832,1.748046875
,93.2280013,1.7529296875
,93.2628659,1.7529296875
,93.2653384,1.7578125
,93.3008223,1.7529296875
,93.3220624,1.7529296875
,93.3267355,1.7578125
,93.3635645,1.73828125
,93.3690095,1.73828125
,93.3844773,1.7236328125
,93.4194498,1.728515625
,93.4400083,1.7236328125
,93.445901,1.71875
,93.485887,1.7041015625
,93.4914546,1.6943359375
,93.5085492,1.6796875
,93.5429126,1.669921875
,93.5630843,1.66015625
,93.5712771,1.650390625
,93.5867576,1.6357421875
,93.6228056,1.6357421875
,93.6254481,1.6259765625
,93.6633167,1.6259765625
,93.6686557,1.62109375
,93.7037059,1.611328125
,93.7099048,1.611328125
,93.7455243,1.62109375
,93.7501586,1.6455078125
,93.76532,1.6748046875
,93.8127297,1.7138671875
,93.8131371,1.73828125
,93.8288756,1.7578125
,93.8745927,1.767578125
,93.8749879,1.77734375
,93.891447,1.7822265625
,93.9267716,1.7919921875
,93.927341,1.787109375
,93.9623668,1.7919921875
,93.9654675,1.7919921875
,94.0015543,1.7724609375
,94.0289354,1.7626953125
,94.0292532,1.7578125
,94.0780304,1.7626953125
,94.0784403,1.7529296875
,94.0902308,1.7431640625
,94.10581,1.728515625
,94.1415071,1.7236328125
,94.1456928,1.7138671875
,94.1811352,1.708984375
,94.2008176,1.689453125
,94.2087639,1.6845703125
,94.2438669,1.669921875
,94.2488607,1.6552734375
,94.2681234,1.640625
,94.2900309,1.6552734375
,94.3112105,1.611328125
,94.3278199,1.5673828125
,94.3470934,1.591796875
,94.3821164,1.6064453125
,94.4018075,1.6162109375
,94.409257,1.6162109375
,94.4452583,1.6162109375
,94.4502606,1.611328125
,94.4957755,1.6064453125
,94.4964826,1.5966796875
,94.5075378,1.611328125
,94.5437496,1.6015625
,94.5482582,1.62109375
,94.5818265,1.611328125
,94.6018407,1.630859375
,94.6092391,1.6552734375
,94.6435181,1.6796875
,94.664213,1.7138671875
,94.6671195,1.7333984375
,94.7030013,1.767578125
,94.7069529,1.787109375
,94.7462565,1.806640625
,94.7679982,1.8115234375
,94.7683923,1.8310546875
,94.8050193,1.8359375
,94.8249158,1.845703125
,94.8285189,1.8359375
,94.8472272,1.8408203125
,94.886678,1.8310546875
,94.8870739,1.826171875
,94.9240463,1.8115234375
,94.9494055,1.81640625
,94.9496609,1.806640625
,94.9848044,1.796875
,94.9911855,1.787109375
,95.006987,1.7724609375
,95.0584932,1.77734375
,95.0588309,1.7724609375
,95.068201,1.77734375
,95.0904682,1.7724609375
,95.1351837,1.7626953125
,95.1354295,1.7529296875
,95.1499463,1.7431640625
,95.1976106,1.7236328125
,95.1978531,1.71875
,95.2183672,1.7041015625
,95.2284954,1.7041015625
,95.2766599,1.708984375
,95.2769872,1.6943359375
,95.2903763,1.689453125
,95.3393539,1.6748046875
,95.3396426,1.669921875
,95.3516357,1.66015625
,95.4028246,1.650390625
,95.4030665,1.6357421875
,95.4097618,1.640625
,95.4446256,1.6357421875
,95.4501059,1.650390625
,95.4862859,1.6552734375
,95.4893528,1.6943359375
,95.5267077,1.7236328125
,95.5473478,1.7626953125
,95.5478527,1.7822265625
,95.589387,1.8359375
,95.5896501,1.865234375
,95.6247542,1.8896484375
,95.6294496,1.9091796875
,95.664964,1.923828125
,95.6866947,1.9287109375
,95.6918726,1.9287109375
,95.7426677,1.9287109375
,95.7429442,1.9140625
,95.7478329,1.9091796875
,95.7846698,1.89453125
,95.7896969,1.8798828125
,95.8272749,1.865234375
,95.8301388,1.865234375
,95.8696884,1.8505859375
,95.8992737,1.8359375
,95.8995913,1.8359375
,95.9073287,1.8115234375
,95.9425735,1.8115234375
,95.9641259,1.8017578125
,95.9712315,1.8017578125
,96.0082763,1.787109375
,96.0085191,1.7724609375
,96.0565438,1.7529296875
,96.056935,1.7431640625
,96.0867929,1.728515625
,96.0927145,1.728515625
,96.1090457,1.7138671875
,96.1460956,1.7138671875
,96.1514201,1.708984375
,96.1941857,1.6943359375
,96.1946041,1.6796875
,96.2128821,1.6845703125
,96.2475437,1.669921875
,96.2528148,1.650390625
,96.2910617,1.640625
,96.2914757,1.62109375
,96.3104411,1.62109375
,96.3505574,1.6162109375
,96.3509392,1.62109375
,96.3875748,1.6357421875
,96.3919516,1.66015625
,96.4281023,1.6845703125
,96.431591,1.708984375
,96.4488787,1.71875
,96.4827491,1.7529296875
,96.5037441,1.767578125
,96.5111193,1.787109375
,96.5518766,1.8115234375
,96.5525582,1.81640625
,96.5720447,1.8212890625
,96.6075755,1.8115234375
,96.6130309,1.8212890625
,96.6273378,1.8017578125
,96.6625959,1.8017578125
,96.6828607,1.7919921875
,96.6906654,1.7919921875
,96.7113207,1.7822265625
,96.7485293,1.77734375
,96.7531746,1.767578125
,96.7887693,1.7626953125
,96.7918247,1.748046875
,96.8143808,1.69921875
,96.8306111,1.66015625
,96.8665686,1.6943359375
,96.8937214,1.708984375
,96.8940453,1.708984375
,96.9119426,1.7138671875
,96.9486938,1.708984375
,96.9541032,1.7041015625
,96.9902531,1.689453125
,96.9908688,1.689453125
,97.0099232,1.669921875
,97.0501884,1.6748046875
,97.0504431,1.6650390625
,97.0856779,1.6552734375
,97.1073787,1.6455078125
,97.1132206,1.6455078125
,97.158657,1.6357421875
,97.1590469,1.630859375
,97.1748912,1.6357421875
,97.1906232,1.6162109375
,97.2349511,1.62109375
,97.2353409,1.6259765625
,97.2651292,1.6455078125
,97.2737681,1.66015625
,97.3071192,1.689453125
,97.3125774,1.708984375
,97.3609729,1.7333984375
,97.3613681,1.748046875
,97.3694069,1.77734375
,97.4056923,1.7919921875
,97.4104903,1.806640625
,97.4545667,1.8115234375
,97.4548033,1.8212890625
,97.4737062,1.8115234375
,97.5098697,1.8115234375
,97.5124739,1.8017578125
,97.5306564,1.7822265625
,97.5655963,1.7822265625
,97.5932758,1.7724609375
,97.593608,1.767578125
,97.6118616,1.7578125
,97.6569807,1.7529296875
,97.6573694,1.7431640625
,97.6869921,1.728515625
,97.6934579,1.71875
,97.7158808,1.69921875
,97.7321465,1.6845703125
,97.7661388,1.689453125
,97.7721442,1.6845703125
,97.8099133,1.6796875
,97.8103033,1.6748046875
,97.8557298,1.66015625
,97.8559901,1.650390625
,97.8763957,1.640625
,97.8951979,1.6357421875
,97.9116754,1.6162109375
,97.9488035,1.6259765625
,97.9522777,1.62109375
,97.9893727,1.6162109375
,97.9941407,1.6064453125
,98.0311689,1.6064453125
,98.0346592,1.591796875
,98.0734085,1.5869140625
,98.0736536,1.5771484375
,98.0912386,1.5869140625
,98.1286387,1.591796875
,98.1329107,1.6357421875
,98.1679669,1.669921875
,98.1725742,1.7138671875
,98.2068379,1.748046875
,98.2269262,1.767578125
,98.2338451,1.787109375
,98.2522913,1.8017578125
,98.2931325,1.8359375
,98.2935211,1.85546875
,98.3303029,1.875
,98.3306984,1.8798828125
,98.3705134,1.8798828125
,98.4014101,1.875
,98.4018696,1.8701171875
,98.4111817,1.85546875
,98.4467081,1.85546875
,98.4663903,1.806640625
,98.4723456,1.7578125
,98.5252035,1.7822265625
,98.5254442,1.787109375
,98.5347845,1.7919921875
,98.5557433,1.787109375
,98.5742482,1.7822265625
,98.6112319,1.7626953125
,98.6163185,1.7578125
,98.6326751,1.73828125
,98.6686285,1.7529296875
,98.6730151,1.73828125
,98.7113274,1.73828125
,98.7135725,1.7236328125
,98.7510057,1.71875
,98.7558047,1.69921875
,98.791667,1.69921875
,98.7964655,1.689453125
,98.8133583,1.6748046875
,98.8517272,1.6748046875
,98.8520684,1.669921875
,98.8977217,1.66015625
,98.8979606,1.650390625
,98.9171528,1.650390625
,98.9360206,1.6357421875
,98.9771758,1.6259765625
,98.9775905,1.6162109375
,98.9935861,1.62109375
,99.0392062,1.6259765625
,99.0395217,1.650390625
,99.0537591,1.6796875
,99.1005085,1.708984375
,99.1007545,1.7431640625
,99.1154301,1.7578125
,99.1511191,1.7724609375
,99.1514096,1.787109375
,99.1881962,1.8212890625
,99.1928923,1.8359375
,99.2414579,1.8505859375
,99.241701,1.8603515625
,99.271165,1.865234375
,99.274247,1.8505859375
,99.3188788,1.8408203125
,99.3191181,1.826171875
,99.3372005,1.81640625
,99.3536058,1.7919921875
,99.39613,1.787109375
,99.3963698,1.7724609375
