Time,PPG_Signal
0.43016,2.3681640625
0.4327337,2.373046875
0.4514006,2.4072265625
0.4707784,2.5146484375
0.5064013,2.607421875
0.526683,2.7099609375
0.5340107,2.79296875
0.5846055,2.861328125
0.5849324,2.900390625
0.5938175,2.939453125
0.6118118,2.9296875
0.6466637,2.919921875
0.650116,2.8857421875
0.6933895,2.841796875
0.6936395,2.7880859375
0.7283753,2.763671875
0.7331571,2.734375
0.766717,2.705078125
0.7881231,2.67578125
0.7884667,2.6513671875
0.8322973,2.6220703125
0.8325831,2.5927734375
0.8530598,2.5634765625
0.8867091,2.529296875
0.8915503,2.4951171875
0.9251801,2.4609375
0.9472258,2.4267578125
0.9548812,2.3974609375
0.9887746,2.34375
0.9906381,2.2900390625
1.0240845,2.2900390625
1.0452829,2.28515625
1.0508716,2.275390625
1.0960802,2.275390625
1.0964799,2.2998046875
1.1169992,2.3876953125
1.1356692,2.4853515625
1.1551425,2.6123046875
1.1702762,2.705078125
1.2048629,2.802734375
1.2259651,2.861328125
1.2328069,2.9150390625
1.2815816,2.9345703125
1.28199,2.939453125
1.3024423,2.9052734375
1.316168,2.861328125
1.331689,2.802734375
1.3664717,2.7734375
1.3704679,2.7490234375
1.4026166,2.7197265625
1.4246729,2.6953125
1.4338639,2.666015625
1.4830513,2.6416015625
1.4833195,2.607421875
1.5049742,2.587890625
1.5121936,2.5439453125
1.5621691,2.5244140625
1.5624195,2.4951171875
1.5734871,2.4609375
1.5939685,2.4267578125
1.6368504,2.40234375
1.637153,2.3779296875
1.6568625,2.3486328125
1.6753429,2.32421875
1.6917528,2.2900390625
1.7263935,2.2705078125
1.7464762,2.2705078125
1.754065,2.314453125
1.7927046,2.392578125
1.7929737,2.509765625
1.8274798,2.6171875
1.8485338,2.724609375
1.8568424,2.7978515625
1.8935453,2.87109375
1.8939589,2.8955078125
1.9337007,2.9248046875
1.9340905,2.91015625
1.9795004,2.8857421875
1.9798422,2.8369140625
1.9958725,2.8076171875
2.0416083,2.7783203125
2.0427383,2.7392578125
2.0552065,2.7099609375
2.0720694,2.6806640625
2.1080049,2.65625
2.1134067,2.626953125
2.1330106,2.59765625
2.1683542,2.568359375
2.1879156,2.5341796875
2.197036,2.5048828125
2.2412595,2.4658203125
2.2415098,2.44140625
2.2532914,2.431640625
2.2891537,2.4072265625
2.2935145,2.3876953125
2.3273551,2.3779296875
2.349067,2.353515625
2.3551823,2.3388671875
2.390496,2.314453125
2.3958681,2.32421875
2.4121557,2.3486328125
2.456768,2.4365234375
2.4571693,2.5390625
2.4777604,2.6513671875
2.4960119,2.7392578125
2.5334851,2.83203125
2.5338282,2.880859375
2.5827514,2.9150390625
2.5830187,2.9150390625
2.6025528,2.8564453125
2.6144612,2.783203125
2.6625547,2.7685546875
2.6628141,2.7392578125
2.6741455,2.7099609375
2.7236723,2.685546875
2.7239179,2.6611328125
2.744021,2.6416015625
2.7575838,2.6123046875
2.792499,2.587890625
2.7928003,2.55859375
2.8267441,2.5341796875
2.8469408,2.5048828125
2.8543747,2.4755859375
2.8878026,2.4462890625
2.9093307,2.4169921875
2.9154122,2.392578125
2.956852,2.3681640625
2.9571742,2.3486328125
2.9736876,2.3193359375
3.0175192,2.3095703125
3.0178114,2.2900390625
3.0380247,2.2998046875
3.0561217,2.3046875
3.0761027,2.3681640625
3.1273024,2.4560546875
3.1276372,2.5732421875
3.1342201,2.6708984375
3.1745221,2.7783203125
3.1748416,2.841796875
3.1950139,2.8955078125
3.2299501,2.9150390625
3.2502338,2.9150390625
3.2560332,2.880859375
3.2939052,2.8466796875
3.2979582,2.802734375
3.3138529,2.75390625
3.3608589,2.724609375
3.3610992,2.6953125
3.3809452,2.6708984375
3.3952607,2.6416015625
3.4379024,2.6123046875
3.4381455,2.578125
3.4566202,2.5439453125
3.4926136,2.5
3.4975607,2.4560546875
3.514148,2.4169921875
3.549751,2.4072265625
3.5557479,2.3828125
3.5926908,2.3583984375
3.5971586,2.3388671875
3.6318158,2.3095703125
3.6358002,2.2900390625
3.6717737,2.2607421875
3.701525,2.24609375
3.7019407,2.236328125
3.7154845,2.2802734375
3.7630963,2.3583984375
3.7634003,2.4853515625
3.7775027,2.59765625
3.7979067,2.71484375
3.842045,2.79296875
3.8426724,2.8564453125
3.8541683,2.890625
3.890232,2.9150390625
3.8945461,2.91015625
3.9321318,2.8857421875
3.9370722,2.841796875
3.9729741,2.79296875
3.97709,2.75390625
4.0121372,2.71484375
4.0305172,2.685546875
4.0347562,2.6513671875
4.0697107,2.63671875
4.0745703,2.6025390625
4.1102749,2.5732421875
4.1313699,2.5439453125
4.1365088,2.509765625
4.171202,2.470703125
4.1932071,2.431640625
4.1987607,2.392578125
4.218223,2.32421875
4.2612577,2.2705078125
4.2616896,2.2607421875
4.2812749,2.265625
4.2977205,2.2509765625
4.3329621,2.2509765625
4.3372936,2.24609375
4.3728029,2.2509765625
4.3952876,2.2998046875
4.4010451,2.392578125
4.4153459,2.5
4.4638884,2.6220703125
4.4641298,2.7197265625
4.4941982,2.8076171875
4.496277,2.8564453125
4.542677,2.890625
4.5432491,2.890625
4.5743176,2.890625
4.5796465,2.8564453125
4.5949513,2.8125
4.6292896,2.783203125
4.6490435,2.7490234375
4.6577125,2.724609375
4.692802,2.6904296875
4.6971268,2.666015625
4.7317679,2.63671875
4.7528398,2.59765625
4.753137,2.5634765625
4.7891813,2.5341796875
4.8097376,2.5
4.8178746,2.4755859375
4.836506,2.4365234375
4.8721794,2.40234375
4.880353,2.373046875
4.8999123,2.3388671875
4.9488545,2.3193359375
4.9492499,2.28515625
4.9561055,2.2802734375
4.9913564,2.255859375
4.9963442,2.255859375
5.0303636,2.2705078125
5.0506725,2.3486328125
5.0590556,2.44140625
5.1041859,2.568359375
5.1049772,2.666015625
5.1192359,2.75390625
5.1360387,2.8076171875
5.170112,2.8564453125
5.1917566,2.87109375
5.1984587,2.8759765625
5.2448339,2.841796875
5.2456233,2.7978515625
5.2587654,2.75390625
5.3061594,2.71484375
5.3064039,2.6806640625
5.3172713,2.65625
5.3515444,2.6416015625
5.3559769,2.6220703125
5.3909699,2.6025390625
5.4107013,2.568359375
5.4185514,2.529296875
5.4528987,2.490234375
5.4734965,2.4560546875
5.4764598,2.421875
5.5126972,2.392578125
5.5181025,2.3681640625
5.5555003,2.333984375
5.555891,2.314453125
5.6026792,2.2900390625
5.6029216,2.2802734375
5.633436,2.255859375
5.6408107,2.24609375
5.6556504,2.2412109375
5.6913701,2.314453125
5.7130369,2.4072265625
5.7170928,2.5341796875
5.7567252,2.6416015625
5.7569634,2.744140625
5.779594,2.8125
5.8133828,2.87109375
5.8349962,2.900390625
5.8396851,2.8857421875
5.8760926,2.841796875
5.8766366,2.8173828125
5.9117935,2.7880859375
5.9336984,2.75390625
5.9401784,2.724609375
5.9608098,2.6953125
5.9963949,2.67578125
6.0004084,2.646484375
6.0351577,2.6220703125
6.0354068,2.5830078125
6.0696132,2.5537109375
6.0906953,2.5146484375
6.0984378,2.490234375
6.1320974,2.4560546875
6.151695,2.4267578125
6.1606029,2.392578125
6.1974159,2.3583984375
6.2002688,2.3388671875
6.2170442,2.3046875
6.2552197,2.2900390625
6.2594097,2.265625
6.2960961,2.24609375
6.2988733,2.236328125
6.3338789,2.255859375
6.3415177,2.3095703125
6.3922193,2.421875
6.3926002,2.529296875
6.3976461,2.6513671875
6.4345214,2.7392578125
6.4375083,2.8076171875
6.4729164,2.8466796875
6.4932674,2.880859375
6.5004149,2.880859375
6.540598,2.8515625
6.5409911,2.8076171875
6.5567239,2.7490234375
6.6021114,2.71484375
6.6024291,2.6953125
6.6335999,2.6806640625
6.6384866,2.6611328125
6.6742797,2.63671875
6.680125,2.607421875
6.7137644,2.5732421875
6.7345995,2.5390625
6.741608,2.5048828125
6.757412,2.470703125
6.8044486,2.451171875
6.8048458,2.431640625
6.8345985,2.4072265625
6.8393063,2.392578125
6.8818313,2.3681640625
6.8820725,2.36328125
6.9104728,2.3486328125
6.9219036,2.333984375
6.937826,2.3193359375
6.9887576,2.32421875
6.9890083,2.3486328125
6.9980487,2.4267578125
7.0358943,2.5146484375
7.0411067,2.607421875
7.081743,2.685546875
7.0820632,2.7490234375
7.098839,2.7880859375
7.1340609,2.8369140625
7.1412105,2.8515625
7.1606721,2.83203125
7.1964884,2.79296875
7.2006031,2.744140625
7.236461,2.7001953125
7.2417081,2.65625
7.2810661,2.626953125
7.2813162,2.59765625
7.3290796,2.5732421875
7.329348,2.548828125
7.3407758,2.5146484375
7.3763203,2.4853515625
7.380905,2.4560546875
7.4162833,2.4169921875
7.4213509,2.3876953125
7.4570179,2.36328125
7.4821738,2.333984375
7.4824162,2.2607421875
7.5150199,2.2509765625
7.520347,2.255859375
7.5394261,2.236328125
7.574736,2.2314453125
7.5949032,2.20703125
7.6021131,2.2265625
7.639182,2.2509765625
7.6439012,2.333984375
7.660754,2.4169921875
7.6810534,2.5390625
7.7003451,2.6513671875
7.7451778,2.763671875
7.7455658,2.8369140625
7.7601935,2.91015625
7.8061514,2.94921875
7.8065429,2.9638671875
7.8242581,2.958984375
7.8406949,2.9248046875
7.8603418,2.8955078125
7.8964846,2.8662109375
7.900714,2.8466796875
7.9353552,2.8271484375
7.962751,2.802734375
7.962988,2.7734375
7.9982161,2.744140625
7.9984687,2.71484375
8.0403301,2.6953125
8.0406569,2.6611328125
8.0606362,2.626953125
8.1025003,2.5927734375
8.1029355,2.5537109375
8.1375209,2.5341796875
8.1438909,2.5
8.162023,2.4755859375
8.1800482,2.4462890625
8.2145345,2.421875
8.21909,2.40234375
8.2545435,2.392578125
8.2774486,2.3779296875
8.2816164,2.412109375
8.3199881,2.4755859375
8.3203261,2.587890625
8.3668699,2.6806640625
8.3670894,2.7783203125
8.3883974,2.8369140625
8.4023982,2.9052734375
8.4202496,2.939453125
8.4584698,2.94921875
8.4606862,2.9296875
8.5050658,2.8955078125
8.5054098,2.841796875
8.5264075,2.79296875
8.5452607,2.75390625
8.5598801,2.7197265625
8.5983216,2.6953125
8.5985251,2.666015625
8.6439369,2.6318359375
8.6442623,2.6025390625
8.6657218,2.578125
8.6829389,2.5439453125
8.7243411,2.5048828125
8.7246064,2.4755859375
8.73979,2.431640625
8.7604465,2.4072265625
8.7998133,2.3779296875
8.8024568,2.353515625
8.8388331,2.3193359375
8.8414852,2.2998046875
8.8788727,2.265625
8.8851757,2.24609375
8.9015466,2.2265625
8.937307,2.24609375
8.9396452,2.28515625
8.9750791,2.3779296875
8.9963853,2.4853515625
9.0017511,2.6025390625
9.0396425,2.685546875
9.0447622,2.7734375
9.0635204,2.8271484375
9.0864951,2.8564453125
9.104137,2.83203125
9.1217581,2.7783203125
9.1570637,2.7685546875
9.1627081,2.7392578125
9.1983476,2.7197265625
9.2039621,2.6953125
9.2397625,2.67578125
9.2451045,2.646484375
9.2814321,2.6171875
9.2817657,2.587890625
9.3177145,2.5732421875
9.3224019,2.5439453125
9.3723021,2.51953125
9.3725425,2.490234375
9.384008,2.4462890625
9.4344008,2.421875
9.4345989,2.3876953125
9.4439283,2.373046875
9.4624597,2.3388671875
9.4824942,2.32421875
9.5044305,2.294921875
9.5240742,2.275390625
9.5438277,2.255859375
9.5799846,2.2509765625
9.6044064,2.2509765625
9.6046104,2.2998046875
9.619725,2.3828125
9.6545335,2.5048828125
9.6754156,2.6123046875
9.6830842,2.724609375
9.7181085,2.8076171875
9.7437687,2.8515625
9.7443592,2.8857421875
9.7917454,2.8857421875
9.792033,2.8662109375
9.8230725,2.822265625
9.8234274,2.7880859375
9.8435737,2.744140625
9.8636207,2.7099609375
9.9013735,2.6708984375
9.9016917,2.646484375
9.9464746,2.6123046875
9.946803,2.587890625
9.9655619,2.5537109375
9.9861368,2.51953125
10.0239054,2.4853515625
10.0241588,2.44140625
10.0716284,2.421875
10.0719767,2.3974609375
10.0834343,2.373046875
10.1225449,2.3388671875
10.1228955,2.314453125
10.1639633,2.2802734375
10.16448,2.2607421875
10.1851864,2.24609375
10.2036075,2.2509765625
10.2230036,2.2412109375
10.2606461,2.265625
10.2648616,2.3193359375
10.3073105,2.431640625
10.3075875,2.5390625
10.3261214,2.65625
10.3637737,2.75390625
10.3640704,2.8173828125
10.383543,2.87109375
10.4043614,2.8955078125
10.4255184,2.900390625
10.445647,2.8759765625
10.4930323,2.841796875
10.493427,2.7978515625
10.505078,2.7587890625
10.5232059,2.7197265625
10.543228,2.685546875
10.5787167,2.65625
10.5826972,2.6318359375
10.6187173,2.59765625
10.6503405,2.5732421875
10.6506293,2.5439453125
10.6647376,2.4951171875
10.7108214,2.470703125
10.7110592,2.4462890625
10.7268107,2.40234375
10.7431016,2.3486328125
10.7793086,2.3583984375
10.7833767,2.34375
10.8183046,2.34375
10.8378889,2.32421875
10.8445255,2.314453125
10.8828808,2.294921875
10.9123305,2.294921875
10.9125859,2.3046875
10.9226476,2.373046875
10.9605689,2.4658203125
10.9647236,2.5927734375
11.0070442,2.7001953125
11.0072861,2.7880859375
11.0259707,2.8515625
11.0680037,2.890625
11.0682718,2.9150390625
11.0899365,2.9052734375
11.1046323,2.890625
11.1395246,2.8515625
11.1445673,2.8125
11.1916248,2.7734375
11.1920955,2.7392578125
11.2134215,2.7099609375
11.2261428,2.6904296875
11.2421469,2.6611328125
11.2778075,2.6416015625
11.3010973,2.626953125
11.3062456,2.5927734375
11.3253677,2.568359375
11.3451261,2.529296875
11.3921457,2.5
11.392447,2.4658203125
11.406667,2.431640625
11.4234232,2.392578125
11.4696716,2.3779296875
11.4699104,2.3583984375
11.4844486,2.3486328125
11.5189171,2.3193359375
11.5390659,2.294921875
11.5435832,2.28515625
11.5776084,2.2900390625
11.5973729,2.3291015625
11.6083168,2.4267578125
11.6424286,2.5390625
11.6449958,2.6318359375
11.6812659,2.7294921875
11.6870738,2.7978515625
11.7070434,2.8466796875
11.7416166,2.8759765625
11.7468543,2.8955078125
11.7823091,2.8759765625
11.7873546,2.841796875
11.8035156,2.7978515625
11.8367447,2.7685546875
11.8583013,2.7392578125
11.8647298,2.7197265625
11.9055629,2.6904296875
11.905842,2.65625
11.9262482,2.63671875
11.9609168,2.607421875
11.9824243,2.5732421875
11.9829093,2.529296875
12.0179932,2.509765625
12.0388553,2.4658203125
12.0447523,2.44140625
12.0806669,2.412109375
12.0867226,2.392578125
12.1199468,2.36328125
12.1403324,2.3388671875
12.1438815,2.314453125
12.1813779,2.294921875
12.1845563,2.2802734375
12.236372,2.265625
12.2369166,2.265625
12.2457423,2.333984375
12.2803766,2.431640625
12.300439,2.5439453125
12.3070103,2.666015625
12.3281709,2.75390625
12.3490787,2.7880859375
12.3669253,2.802734375
12.4002781,2.861328125
12.4046794,2.8857421875
12.439542,2.880859375
12.4602875,2.8466796875
12.4673852,2.8076171875
12.5025062,2.763671875
12.530977,2.7392578125
12.5311885,2.7099609375
12.5454797,2.6953125
12.5791717,2.6806640625
12.5989069,2.65625
12.6061292,2.6220703125
12.6401802,2.587890625
12.6627366,2.55859375
12.6681597,2.5146484375
12.7155726,2.48046875
12.7159675,2.451171875
12.7249379,2.4267578125
12.7610736,2.4072265625
12.7818362,2.4072265625
12.7861826,2.3828125
12.8219553,2.36328125
12.8273477,2.3388671875
12.8625987,2.333984375
12.8833006,2.3095703125
12.8861294,2.34375
12.9217283,2.412109375
12.9406048,2.4951171875
12.9456562,2.6171875
12.9813679,2.71484375
13.0117553,2.802734375
13.0119971,2.861328125
13.0293823,2.9052734375
13.0445766,2.9248046875
13.0795439,2.9296875
13.0998964,2.9052734375
13.1043888,2.8662109375
13.1408476,2.822265625
13.1667668,2.783203125
13.1670024,2.744140625
13.2132163,2.7099609375
13.2134588,2.6904296875
13.2353339,2.6513671875
13.2504448,2.626953125
13.2664784,2.5927734375
13.2865706,2.578125
13.3232499,2.5390625
13.3279102,2.5146484375
13.3677672,2.4755859375
13.3681637,2.4462890625
13.4129932,2.412109375
13.4133961,2.392578125
13.4247213,2.3583984375
13.4598058,2.34375
13.47852,2.3291015625
13.4858683,2.3095703125
13.5224393,2.2802734375
13.5428034,2.2900390625
13.5487936,2.32421875
13.5846364,2.392578125
13.5898673,2.5
13.6060857,2.6025390625
13.645959,2.71484375
13.6462228,2.79296875
13.6791071,2.8564453125
13.7011036,2.900390625
13.7076633,2.9150390625
13.7412414,2.9052734375
13.7616038,2.8662109375
13.7667629,2.822265625
13.8019382,2.7978515625
13.8066065,2.763671875
13.8414209,2.7392578125
13.8606147,2.724609375
13.8677947,2.6904296875
13.8879954,2.6611328125
13.9265186,2.626953125
13.930482,2.6025390625
13.9500238,2.5634765625
13.9707731,2.4951171875
13.9871964,2.421875
14.0213421,2.4169921875
14.0428375,2.3974609375
14.0507118,2.3876953125
14.0687628,2.3681640625
14.1033454,2.3486328125
14.1243708,2.3291015625
14.1301333,2.3046875
14.1448608,2.2802734375
14.192139,2.28515625
14.1926715,2.3095703125
14.2084724,2.36328125
14.2421228,2.4755859375
14.2627536,2.578125
14.2698195,2.685546875
14.3036361,2.7734375
14.3239625,2.841796875
14.3267173,2.8857421875
14.3632728,2.919921875
14.3835502,2.919921875
14.3876655,2.8955078125
14.4223159,2.8515625
14.4426933,2.8125
14.4494874,2.7685546875
14.4827277,2.734375
14.5046815,2.71484375
14.5049268,2.685546875
14.5392859,2.666015625
14.5600589,2.6416015625
14.5674687,2.6171875
14.6015832,2.5830078125
14.6235,2.5537109375
14.630594,2.51953125
14.6734715,2.4853515625
14.6737913,2.44140625
14.6880649,2.4267578125
14.7341577,2.40234375
14.7345951,2.3828125
14.7489031,2.353515625
14.7845253,2.333984375
14.7886643,2.314453125
14.8234144,2.32421875
14.8452145,2.3486328125
14.8517299,2.3974609375
14.8873342,2.5
14.9197045,2.6123046875
14.9200993,2.724609375
14.9285137,2.802734375
14.9665893,2.880859375
14.9975013,2.919921875
14.9978939,2.94921875
15.0114832,2.9443359375
15.0467752,2.919921875
15.0470247,2.87109375
15.0837247,2.8369140625
15.086269,2.7978515625
15.1236934,2.7685546875
15.153288,2.7490234375
15.1535281,2.7197265625
15.1701657,2.6904296875
15.2164924,2.6611328125
15.2168887,2.63671875
15.2456847,2.59765625
15.2459956,2.568359375
15.2925397,2.5390625
15.29338,2.5048828125
15.3217209,2.470703125
15.3288884,2.451171875
15.3691072,2.4169921875
15.3714245,2.392578125
15.385981,2.3681640625
15.4236511,2.353515625
15.4293325,2.3388671875
15.4639042,2.3388671875
15.4688435,2.3486328125
15.5038537,2.3876953125
15.525142,2.470703125
15.5293942,2.568359375
15.5643992,2.6708984375
15.5867574,2.7490234375
15.5933548,2.7783203125
15.6081556,2.7880859375
15.6440218,2.841796875
15.6641768,2.861328125
15.6688657,2.841796875
15.7032822,2.8125
15.7238529,2.7685546875
15.7304704,2.7294921875
15.7653921,2.6953125
15.7866542,2.6806640625
15.7869737,2.6513671875
15.830941,2.63671875
15.8312951,2.6123046875
15.8607415,2.5927734375
15.8711107,2.5634765625
15.9066938,2.5390625
15.9264554,2.5
15.9314101,2.4755859375
15.9504644,2.451171875
15.9858914,2.4365234375
15.9887841,2.40234375
16.0327357,2.3779296875
16.032965,2.3486328125
16.0673658,2.3291015625
16.0722002,2.2998046875
16.1063695,2.2998046875
16.1271151,2.3095703125
16.1275102,2.3583984375
16.1618392,2.470703125
16.1822969,2.5830078125
16.1893002,2.6953125
16.2345014,2.7783203125
16.2347398,2.8515625
16.2648597,2.8955078125
16.2737825,2.919921875
16.2894283,2.919921875
16.3256127,2.900390625
16.3308834,2.8662109375
16.3656503,2.83203125
16.3695161,2.79296875
16.4221644,2.7490234375
16.4224091,2.734375
16.4316655,2.6953125
16.4685223,2.6611328125
16.488263,2.6220703125
16.4933145,2.5927734375
16.5112567,2.548828125
16.545905,2.5244140625
16.5507826,2.4853515625
16.5864622,2.4560546875
16.5909677,2.4169921875
16.6246147,2.3876953125
16.6454955,2.3486328125
16.6517604,2.32421875
16.6698655,2.2900390625
16.6904381,2.2802734375
16.7262962,2.255859375
16.7309645,2.2607421875
16.7689808,2.294921875
16.7742983,2.3681640625
16.8084641,2.4853515625
16.8114981,2.59765625
16.8481765,2.7099609375
16.8711973,2.7880859375
16.8715513,2.8759765625
16.9180374,2.9150390625
16.9183378,2.9345703125
16.9331446,2.9296875
16.9788957,2.900390625
16.9793141,2.8515625
16.9925595,2.8125
17.0097168,2.7685546875
17.0458831,2.744140625
17.0488282,2.724609375
17.0846774,2.685546875
17.1200009,2.6611328125
17.1204087,2.626953125
17.1309273,2.59765625
17.1815985,2.55859375
17.1818827,2.5244140625
17.2127538,2.4853515625
17.2132149,2.412109375
17.246336,2.3486328125
17.2515234,2.3486328125
17.2843768,2.333984375
17.3052261,2.32421875
17.3123606,2.3046875
17.3466828,2.2900390625
17.3661525,2.2705078125
17.3746983,2.2802734375
17.4146344,2.314453125
17.4148731,2.373046875
17.4312817,2.4853515625
17.4785136,2.59765625
17.4787782,2.705078125
17.4926246,2.7734375
17.5399328,2.8369140625
17.5403235,2.8662109375
17.5698248,2.8857421875
17.5701224,2.87109375
17.605169,2.841796875
17.6254553,2.802734375
17.6327401,2.763671875
17.6785941,2.724609375
17.6788999,2.6953125
17.6921931,2.6806640625
17.7274007,2.6513671875
17.7487176,2.6220703125
17.7490313,2.587890625
17.7885858,2.568359375
17.8188995,2.5341796875
17.8191387,2.5048828125
17.8334763,2.470703125
17.8689856,2.44140625
17.8739445,2.4169921875
17.9259093,2.40234375
17.9263164,2.373046875
17.9294289,2.36328125
17.9630219,2.353515625
17.981634,2.333984375
17.9916421,2.3193359375
18.0276375,2.3291015625
18.0628933,2.3779296875
18.0634523,2.4560546875
18.0777943,2.568359375
18.0944044,2.666015625
18.1392002,2.763671875
18.139591,2.83203125
18.1682114,2.8955078125
18.1709447,2.919921875
18.2044509,2.9296875
18.2249059,2.9150390625
18.2324473,2.8759765625
18.2692498,2.822265625
18.2906438,2.7783203125
18.2909812,2.734375
18.3258227,2.7099609375
18.3475479,2.6953125
18.3528154,2.6708984375
18.3747012,2.63671875
18.4095931,2.607421875
18.4146175,2.5830078125
18.4506403,2.5439453125
18.4553041,2.509765625
18.4726167,2.470703125
18.5078006,2.4462890625
18.5134114,2.412109375
18.5480978,2.3876953125
18.5535044,2.3583984375
18.604169,2.3388671875
18.6044083,2.314453125
18.6357352,2.2998046875
18.6359796,2.28515625
18.6513879,2.3193359375
18.6867817,2.392578125
18.7144064,2.4951171875
18.7146445,2.6171875
18.7509128,2.724609375
18.7530988,2.8173828125
18.7896057,2.8857421875
18.8218702,2.9345703125
18.8221207,2.958984375
18.8356429,2.919921875
18.853932,2.8662109375
18.8899065,2.8466796875
18.8944593,2.8125
18.9314087,2.7978515625
18.9339216,2.7783203125
18.9699716,2.7587890625
18.9897299,2.744140625
18.9942754,2.7099609375
19.0320661,2.6806640625
19.0579943,2.63671875
19.058386,2.607421875
19.0742628,2.55859375
19.0953636,2.5244140625
19.1309737,2.48046875
19.1358474,2.4560546875
19.1817662,2.421875
19.1820127,2.392578125
19.1910458,2.353515625
19.2309618,2.34375
19.2615091,2.3193359375
19.2617548,2.3095703125
19.2744721,2.2900390625
19.3118006,2.3291015625
19.3160763,2.4072265625
19.3364194,2.5
19.3722451,2.6220703125
19.3728215,2.724609375
19.4117433,2.822265625
19.4121435,2.8857421875
19.462908,2.9443359375
19.4632976,2.96875
19.4946356,2.9638671875
19.4948899,2.9248046875
19.5306959,2.8564453125
19.5336746,2.7978515625
19.5681134,2.763671875
19.5724701,2.724609375
19.60669,2.6953125
19.6269866,2.6806640625
19.6346369,2.6416015625
19.66951,2.607421875
19.6895725,2.5732421875
19.695092,2.5390625
19.7322675,2.4951171875
19.7555553,2.4560546875
19.7558625,2.412109375
19.7903168,2.3828125
19.7929691,2.353515625
19.835083,2.3291015625
19.8353286,2.2998046875
19.8671856,2.28515625
19.8765504,2.2705078125
19.9130213,2.255859375
19.9132752,2.24609375
19.9325815,2.3095703125
19.9757776,2.4072265625
19.9762521,2.51953125
19.9969493,2.646484375
20.0334181,2.7490234375
20.0338356,2.8369140625
20.0819688,2.8955078125
20.0823606,2.9345703125
20.1032363,2.9443359375
20.1147001,2.939453125
20.1488066,2.900390625
20.1697156,2.8515625
20.175326,2.802734375
20.2236129,2.7685546875
20.2238698,2.734375
20.2451025,2.705078125
20.2572314,2.6806640625
20.2751132,2.6416015625
20.2958329,2.6171875
20.3328783,2.5830078125
20.3351004,2.548828125
20.3682481,2.509765625
20.3895708,2.4658203125
20.3968105,2.421875
20.4434496,2.3974609375
20.4436957,2.3681640625
20.4593525,2.3046875
20.4751978,2.24609375
20.508584,2.255859375
20.5301485,2.255859375
20.534114,2.2607421875
20.5826951,2.2705078125
20.5832603,2.333984375
20.6029243,2.44140625
20.618432,2.55859375
20.6532413,2.685546875
20.6535609,2.7880859375
20.6886798,2.890625
20.7102496,2.9443359375
20.7169517,2.9833984375
20.7686107,2.998046875
20.768887,2.9833984375
20.7778465,2.939453125
20.8123395,2.890625
20.8333212,2.841796875
20.8337174,2.8076171875
20.8684021,2.7734375
20.8892801,2.7392578125
20.8964977,2.7099609375
20.9167925,2.666015625
20.9540227,2.6318359375
20.9563218,2.59765625
20.9929354,2.5634765625
20.9950422,2.5244140625
21.0335563,2.5048828125
21.033794,2.470703125
21.0680913,2.4462890625
21.0961515,2.412109375
21.0964072,2.3876953125
21.1302981,2.353515625
21.1502799,2.3291015625
21.1551748,2.3046875
21.1904353,2.2998046875
21.1949938,2.3046875
21.2324668,2.373046875
21.2369416,2.4755859375
21.2716733,2.587890625
21.2780463,2.71484375
21.3269118,2.8125
21.3275959,2.8857421875
21.3385059,2.9296875
21.3728741,2.958984375
21.403968,2.958984375
21.4046491,2.939453125
21.4165212,2.8955078125
21.4686151,2.841796875
21.4690521,2.7978515625
21.47916,2.763671875
21.5279043,2.7294921875
21.5283252,2.705078125
21.5395144,2.67578125
21.5572286,2.626953125
21.6071054,2.6025390625
21.607449,2.568359375
21.616414,2.5341796875
21.6515099,2.4951171875
21.6727034,2.4609375
21.6786068,2.412109375
21.7168562,2.3828125
21.7174659,2.34375
21.7363293,2.3291015625
21.7724419,2.294921875
21.7922495,2.28515625
21.7957706,2.265625
21.8305125,2.2607421875
21.856852,2.2607421875
21.8596352,2.3193359375
21.8931365,2.4072265625
21.9135933,2.509765625
21.9164884,2.63671875
21.9666834,2.7294921875
21.9669261,2.802734375
21.9777166,2.8564453125
22.014698,2.8955078125
22.0189016,2.9052734375
22.0596638,2.880859375
22.0601323,2.8369140625
22.0810246,2.744140625
22.0963326,2.67578125
22.1325376,2.6611328125
22.1368794,2.6416015625
22.1717374,2.6220703125
22.1935522,2.59765625
22.1989644,2.5634765625
22.2465949,2.529296875
22.2468179,2.4853515625
22.2678546,2.4462890625
22.2764724,2.40234375
22.311395,2.3681640625
22.3334499,2.333984375
22.3378481,2.3046875
22.3748901,2.2705078125
22.4036438,2.24609375
22.4038909,2.2216796875
22.4191756,2.216796875
22.4365726,2.20703125
22.4731418,2.2021484375
22.4778851,2.20703125
22.5127678,2.275390625
22.5332242,2.373046875
22.5381797,2.48046875
22.5740373,2.6025390625
22.5791674,2.7001953125
22.6151313,2.783203125
22.6155272,2.83203125
22.652715,2.880859375
22.6828555,2.890625
22.6833876,2.880859375
22.6983631,2.841796875
22.7438943,2.7880859375
22.7441436,2.734375
22.7586923,2.7001953125
22.7937308,2.65625
22.797841,2.6318359375
22.8175645,2.6123046875
22.8535535,2.5830078125
22.8574955,2.5439453125
22.8902755,2.5048828125
22.9116447,2.470703125
22.9188936,2.421875
22.9647351,2.3828125
22.9649746,2.34375
22.9959556,2.3193359375
22.9962016,2.28515625
23.0313381,2.2802734375
23.0516521,2.255859375
23.0594506,2.24609375
23.0950392,2.216796875
23.1007026,2.2216796875
23.1362823,2.216796875
23.1406177,2.2607421875
23.1773546,2.34375
23.1776233,2.4462890625
23.2111405,2.5732421875
23.2311112,2.685546875
23.2379636,2.783203125
23.272104,2.841796875
23.2926034,2.8857421875
23.3001824,2.900390625
23.3361526,2.890625
23.3550081,2.8515625
23.3575435,2.8125
23.3927922,2.763671875
23.4137645,2.7294921875
23.4200596,2.6904296875
23.4545779,2.6611328125
23.4617221,2.63671875
23.4987395,2.6025390625
23.4991529,2.568359375
23.5372934,2.51953125
23.537724,2.4951171875
23.5729559,2.451171875
23.5935146,2.421875
23.5987461,2.3876953125
23.6463063,2.3583984375
23.6466951,2.3193359375
23.6773834,2.294921875
23.6777593,2.255859375
23.723215,2.2509765625
23.7235532,2.1826171875
23.7379668,2.2119140625
23.7723091,2.2119140625
23.7929094,2.236328125
23.79909,2.3046875
23.8476514,2.3876953125
23.8478912,2.4951171875
23.8627699,2.5927734375
23.9109473,2.6806640625
23.9113419,2.744140625
23.9198984,2.7978515625
23.9557396,2.822265625
23.960021,2.8173828125
24.0024426,2.7880859375
24.0026882,2.7490234375
24.0385131,2.7001953125
24.0407347,2.67578125
24.0586536,2.6416015625
24.0934748,2.6220703125
24.1260188,2.6025390625
24.1262657,2.568359375
24.1394518,2.5341796875
24.1734637,2.4951171875
24.1934143,2.4609375
24.2013693,2.421875
24.2377799,2.3974609375
24.2380986,2.3583984375
24.2813478,2.3486328125
24.2816165,2.3095703125
24.3008259,2.294921875
24.3355425,2.2607421875
24.354975,2.2412109375
24.3604541,2.216796875
24.3935084,2.216796875
24.4147598,2.2119140625
24.4195266,2.2509765625
24.4547038,2.3095703125
24.4619888,2.40234375
24.49638,2.51953125
24.4992652,2.626953125
24.533662,2.7197265625
24.5540484,2.7880859375
24.5610484,2.841796875
24.5954718,2.8662109375
24.6164701,2.87109375
24.6196606,2.841796875
24.6568359,2.802734375
24.6610662,2.75390625
24.7039045,2.71484375
24.7041491,2.6806640625
24.7215654,2.6513671875
24.7562484,2.626953125
24.7765555,2.5927734375
24.7834786,2.5732421875
24.7986402,2.5341796875
24.84422,2.509765625
24.8446242,2.470703125
24.8647905,2.4462890625
24.8829668,2.4072265625
24.9203487,2.3681640625
24.9227763,2.34375
24.9578695,2.3193359375
24.9581113,2.2802734375
24.993288,2.265625
25.0132056,2.2412109375
25.0214769,2.2216796875
25.0576313,2.2021484375
25.0619076,2.2509765625
25.0965499,2.32421875
25.1181258,2.421875
25.1228921,2.5341796875
25.1406492,2.646484375
25.1857514,2.7490234375
25.1860011,2.8271484375
25.2027908,2.8857421875
25.2382931,2.9052734375
25.2428259,2.91015625
25.2920992,2.880859375
25.2924519,2.83203125
25.3049306,2.783203125
25.322673,2.7001953125
25.3584782,2.6318359375
25.358788,2.626953125
25.4014291,2.6220703125
25.4017147,2.6025390625
25.4360298,2.578125
25.4571793,2.5439453125
25.4655869,2.5244140625
25.5131379,2.490234375
25.5135298,2.451171875
25.5200212,2.412109375
25.5592696,2.3876953125
25.5797527,2.3583984375
25.5829586,2.3486328125
25.623401,2.32421875
25.6236443,2.3095703125
25.6690214,2.28515625
25.6692598,2.2705078125
25.6804997,2.24609375
25.7175939,2.2509765625
25.7206762,2.294921875
25.7560819,2.3779296875
25.7620658,2.4951171875
25.7971847,2.59765625
25.8230227,2.705078125
25.8232636,2.7783203125
25.8442496,2.8369140625
25.8590184,2.8662109375
25.8937338,2.8857421875
25.9141861,2.87109375
25.9217038,2.83203125
25.943056,2.7783203125
25.9794772,2.724609375
25.9841517,2.6806640625
26.0188728,2.6513671875
26.0234992,2.6171875
26.0576473,2.5830078125
26.0607774,2.55859375
26.1029723,2.529296875
26.1032184,2.5048828125
26.1235523,2.4755859375
26.1648223,2.4462890625
26.1651542,2.40234375
26.1982726,2.3681640625
26.2029013,2.3388671875
26.236707,2.3193359375
26.257712,2.28515625
26.2603812,2.2705078125
26.2948473,2.2412109375
26.316367,2.2265625
26.3234003,2.20703125
26.3665569,2.216796875
26.3669535,2.24609375
26.3865467,2.314453125
26.42042,2.412109375
26.4206942,2.5048828125
26.4559376,2.626953125
26.4757034,2.71484375
26.4827485,2.783203125
26.5183415,2.822265625
26.5379213,2.841796875
26.5457373,2.8271484375
26.5817211,2.7978515625
26.5821138,2.7490234375
26.6300439,2.71484375
26.6304515,2.6806640625
26.6440547,2.6513671875
26.6916103,2.6318359375
26.6920183,2.6025390625
26.7050936,2.5732421875
26.7405306,2.5341796875
26.7437977,2.5048828125
26.7780902,2.4755859375
26.7805866,2.451171875
26.8163294,2.421875
26.8363463,2.392578125
26.8438372,2.36328125
26.8806027,2.34375
26.8854165,2.3095703125
26.921066,2.28515625
26.9213135,2.255859375
26.9566713,2.2412109375
26.977392,2.1728515625
26.9825575,2.2021484375
27.0026264,2.2314453125
27.0373928,2.3095703125
27.0651942,2.4169921875
27.0655823,2.51953125
27.1018097,2.63671875
27.1035197,2.7392578125
27.1385134,2.8271484375
27.1600254,2.880859375
27.1602676,2.9150390625
27.2065551,2.919921875
27.2067946,2.8955078125
27.2264631,2.8564453125
27.243176,2.8125
27.2790573,2.763671875
27.3139266,2.7294921875
27.3142749,2.705078125
27.3239125,2.666015625
27.3595443,2.6416015625
27.3642305,2.607421875
27.4064832,2.587890625
27.4067306,2.548828125
27.4245514,2.5146484375
27.4607602,2.4658203125
27.4679682,2.4365234375
27.4824707,2.3974609375
27.5189197,2.3828125
27.5239382,2.353515625
27.5592163,2.3388671875
27.592972,2.3046875
27.5933049,2.28515625
27.6057863,2.255859375
27.6554317,2.24609375
27.6558318,2.24609375
27.6630294,2.28515625
27.7021725,2.3876953125
27.7024133,2.5048828125
27.7362249,2.626953125
27.7560568,2.7197265625
27.7638343,2.8125
27.7979163,2.861328125
27.8186283,2.890625
27.8261833,2.8955078125
27.8607419,2.880859375
27.8797124,2.8369140625
27.8823952,2.8076171875
27.9178945,2.763671875
27.9377047,2.734375
27.945361,2.7197265625
27.9803773,2.685546875
27.9841994,2.65625
28.0206744,2.626953125
28.0407997,2.59765625
28.0434948,2.5634765625
28.0776804,2.5439453125
28.0970888,2.509765625
28.1047438,2.4755859375
28.1526046,2.4365234375
28.1529307,2.421875
28.1818838,2.4072265625
28.1859751,2.392578125
28.2199186,2.3681640625
28.2230988,2.353515625
28.2588936,2.333984375
28.2781644,2.32421875
28.2857919,2.3193359375
28.321846,2.3291015625
28.3274565,2.40234375
28.3629763,2.490234375
28.3658258,2.607421875
28.3830018,2.705078125
28.4166622,2.7978515625
28.4383877,2.8515625
28.4456793,2.8955078125
28.493875,2.9052734375
28.4943563,2.890625
28.5161175,2.8515625
28.5271443,2.8076171875
28.5444007,2.7587890625
28.5792818,2.724609375
28.588453,2.65625
28.6061023,2.5927734375
28.6500025,2.587890625
28.6503868,2.578125
28.6669267,2.568359375
28.6870822,2.5439453125
28.7235188,2.5244140625
28.726053,2.4853515625
28.7627912,2.451171875
28.7898039,2.4169921875
28.7900017,2.40234375
28.8055352,2.3779296875
28.85061,2.353515625
28.850874,2.3291015625
28.8653712,2.3046875
28.8992567,2.2705078125
28.9210828,2.2607421875
28.9276205,2.24609375
28.9427689,2.24609375
28.9914142,2.3193359375
28.9917354,2.4169921875
29.0210587,2.5439453125
29.0260186,2.6513671875
29.0636138,2.7587890625
29.0664227,2.83203125
29.1018204,2.8857421875
29.1222608,2.9052734375
29.1248782,2.919921875
29.1626995,2.900390625
29.1681139,2.880859375
29.1859262,2.841796875
29.2208745,2.8076171875
29.2274345,2.783203125
29.2611817,2.744140625
29.2809382,2.7197265625
29.2828672,2.685546875
29.3180314,2.666015625
29.3387826,2.6318359375
29.3456743,2.59765625
29.3961212,2.548828125
29.3965154,2.509765625
29.4093366,2.4658203125
29.4447745,2.44140625
29.4504502,2.40234375
29.4691011,2.3681640625
29.4865054,2.3291015625
29.5215491,2.314453125
29.5288078,2.28515625
29.5464679,2.2802734375
29.5843953,2.265625
29.5885163,2.265625
29.629223,2.3193359375
29.6296196,2.412109375
29.6756638,2.529296875
29.6760567,2.6513671875
29.6851815,2.7685546875
29.7198763,2.8515625
29.7403556,2.9052734375
29.7475094,2.9345703125
29.7829619,2.939453125
29.7870815,2.9150390625
29.8219357,2.8759765625
29.8425966,2.822265625
29.84535,2.783203125
29.8824633,2.75390625
29.8864654,2.71484375
29.9231866,2.6904296875
29.9259226,2.646484375
29.9610451,2.6220703125
29.9812137,2.5830078125
29.9888076,2.548828125
30.006119,2.5048828125
30.0506569,2.48046875
30.0510494,2.4462890625
30.0672302,2.421875
30.103803,2.392578125
30.107945,2.3681640625
30.1440084,2.3388671875
30.1731947,2.3193359375
30.1734463,2.2802734375
30.1903491,2.28515625
30.2103982,2.2216796875
30.227387,2.1875
30.2634534,2.2607421875
30.2679917,2.3583984375
30.3069737,2.48046875
30.3137563,2.587890625
30.3291598,2.705078125
30.369805,2.783203125
30.3700447,2.8466796875
30.3864775,2.87109375
30.4063566,2.890625
30.4409587,2.8759765625
30.4618846,2.841796875
30.4692828,2.79296875
30.5037584,2.7490234375
30.5083198,2.724609375
30.5424326,2.6904296875
30.5624221,2.6611328125
30.5646458,2.626953125
30.5997031,2.607421875
30.6220971,2.5732421875
30.6285741,2.5390625
30.6627412,2.5048828125
30.6847245,2.4658203125
30.6893678,2.421875
30.7253685,2.3974609375
30.7453167,2.3681640625
30.7457089,2.353515625
30.7815004,2.3291015625
30.8039391,2.3046875
30.8079189,2.2705078125
30.8421463,2.255859375
30.8635495,2.24609375
30.8700618,2.2412109375
30.9049052,2.275390625
30.9255718,2.353515625
30.9260729,2.5
30.963012,2.6220703125
30.9906937,2.744140625
30.9910159,2.822265625
31.0090687,2.8857421875
31.0436463,2.91015625
31.0634887,2.919921875
31.0704942,2.900390625
31.1127792,2.861328125
31.1130223,2.8076171875
31.1298552,2.7734375
31.1479841,2.7392578125
31.1899196,2.705078125
31.1901578,2.67578125
31.210107,2.646484375
31.2433192,2.63671875
31.2648037,2.6123046875
31.2710038,2.5830078125
31.2880157,2.5439453125
31.3235688,2.5146484375
31.328207,2.4755859375
31.3648683,2.4462890625
31.3675454,2.4072265625
31.4047604,2.373046875
31.4249485,2.3388671875
31.4296602,2.3095703125
31.4467326,2.2802734375
31.4866546,2.28515625
31.487142,2.275390625
31.5333221,2.275390625
31.5335683,2.32421875
31.5541639,2.4169921875
31.570602,2.548828125
31.6117449,2.65625
31.6121363,2.7734375
31.6271585,2.8466796875
31.6606495,2.919921875
31.6809085,2.94921875
31.6874413,2.958984375
31.7223309,2.9345703125
31.7423724,2.9052734375
31.7488378,2.8515625
31.7979193,2.802734375
31.7981579,2.7685546875
31.8279593,2.724609375
31.8314738,2.65625
31.8486525,2.587890625
31.885472,2.5830078125
31.8922456,2.5634765625
31.911393,2.5537109375
31.9444631,2.5146484375
31.9494246,2.48046875
31.9844656,2.44140625
32.0055767,2.4169921875
32.0058204,2.3828125
32.0400108,2.373046875
32.0600252,2.353515625
32.0680792,2.3291015625
32.1035697,2.294921875
32.1229233,2.2900390625
32.1293753,2.275390625
32.1636655,2.28515625
32.1848655,2.3388671875
32.1865599,2.431640625
32.2222692,2.5537109375
32.2428275,2.6708984375
32.2495504,2.7880859375
32.2850476,2.8564453125
32.3055174,2.91015625
32.3108573,2.939453125
32.3553885,2.939453125
32.3557767,2.91015625
32.3750248,2.880859375
32.3891465,2.822265625
32.4250732,2.7734375
32.4450147,2.7392578125
32.4507987,2.6953125
32.4952531,2.6611328125
32.4956508,2.6220703125
32.5157076,2.59765625
32.5272862,2.5634765625
32.5613372,2.5390625
32.5820675,2.5048828125
32.5891881,2.4755859375
32.6359094,2.4267578125
32.6362352,2.4072265625
32.6661072,2.3681640625
32.6724182,2.34375
32.7074541,2.3095703125
32.7120564,2.28515625
32.730647,2.255859375
32.7724039,2.255859375
32.7727446,2.255859375
32.7913402,2.2705078125
32.8263399,2.3388671875
32.8309235,2.44140625
32.8652238,2.5732421875
32.886322,2.6806640625
32.8917051,2.783203125
32.9090135,2.8466796875
32.9435719,2.900390625
32.9648386,2.919921875
32.9708153,2.91015625
32.9922128,2.8759765625
33.0385642,2.83203125
33.0390475,2.7783203125
33.0526696,2.734375
33.0883933,2.7001953125
33.1152506,2.65625
33.1154915,2.6318359375
33.1293454,2.6025390625
33.1660142,2.578125
33.1923809,2.5439453125
33.1927313,2.509765625
33.2270451,2.470703125
33.2469981,2.431640625
33.2503607,2.392578125
33.2688582,2.3828125
33.3170501,2.3583984375
33.3172983,2.34375
33.3310187,2.3193359375
33.3654591,2.2998046875
33.3857489,2.2705078125
33.3955394,2.2607421875
33.4125109,2.2607421875
33.4345789,2.2900390625
33.452894,2.34375
33.4714281,2.431640625
33.5187533,2.578125
33.5191454,2.7001953125
33.532613,2.8076171875
33.5669424,2.8759765625
33.5717067,2.9248046875
33.6052999,2.939453125
33.6251856,2.9248046875
33.6302192,2.880859375
33.6670056,2.841796875
33.669537,2.7880859375
33.7033521,2.744140625
33.7235522,2.71484375
33.7308266,2.6806640625
33.765425,2.6416015625
33.7866631,2.607421875
33.794219,2.578125
33.8118285,2.529296875
33.8454353,2.5
33.8495457,2.4609375
33.8839997,2.421875
33.9039065,2.3828125
33.9139874,2.3583984375
33.9523847,2.32421875
33.9527076,2.2998046875
33.9876189,2.275390625
33.9898965,2.2607421875
34.0245955,2.2412109375
34.0459141,2.2412109375
34.0509499,2.255859375
34.0872683,2.294921875
34.1079178,2.40234375
34.1127652,2.5244140625
34.1531451,2.6513671875
34.1534743,2.744140625
34.172429,2.841796875
34.2078606,2.8955078125
34.2107278,2.9345703125
34.2450674,2.939453125
34.2643673,2.9150390625
34.2734739,2.8662109375
34.3090117,2.8271484375
34.3142206,2.7734375
34.348086,2.734375
34.368362,2.7001953125
34.3708596,2.6611328125
34.4046463,2.63671875
34.4245515,2.6025390625
34.4322666,2.578125
34.4669425,2.529296875
34.4738709,2.4951171875
34.5081445,2.451171875
34.5302285,2.421875
34.530473,2.3779296875
34.5646519,2.3583984375
34.5859008,2.333984375
34.5925679,2.2998046875
34.6258509,2.275390625
34.6475316,2.2509765625
34.654246,2.2265625
34.701264,2.2314453125
34.7015054,2.24609375
34.7117215,2.2900390625
34.7482334,2.392578125
34.7694298,2.5048828125
34.7740889,2.6318359375
34.8106996,2.7294921875
34.8128446,2.822265625
34.8480222,2.8759765625
34.8719531,2.9052734375
34.8722873,2.9052734375
34.9077168,2.8857421875
34.9121184,2.8466796875
34.949972,2.802734375
34.9697296,2.75390625
34.9716664,2.7099609375
35.0123703,2.6806640625
35.043022,2.63671875
35.0433514,2.607421875
35.0572991,2.5634765625
35.0749581,2.5
35.0908938,2.4267578125
35.1244004,2.421875
35.1456167,2.3974609375
35.1539133,2.3779296875
35.197705,2.34375
35.198265,2.32421875
35.2144596,2.2900390625
35.2590599,2.265625
35.2595643,2.236328125
35.288072,2.2314453125
35.2926881,2.2265625
35.3282131,2.2509765625
35.348399,2.2705078125
35.3535798,2.3291015625
35.389259,2.431640625
35.4094182,2.5390625
35.4145657,2.666015625
35.4610383,2.7685546875
35.4614612,2.87109375
35.4739687,2.9345703125
35.5222025,2.9736328125
35.5224532,2.978515625
35.534333,2.9541015625
35.5714726,2.91015625
35.5759145,2.8564453125
35.5918471,2.8076171875
35.611776,2.763671875
35.6458383,2.734375
35.6665255,2.6904296875
35.6728256,2.65625
35.7069252,2.6123046875
35.72793,2.587890625
35.735674,2.5390625
35.7696235,2.4951171875
35.7911831,2.44140625
35.7918912,2.412109375
35.8270867,2.373046875
35.8471174,2.3486328125
35.8523893,2.314453125
35.8873979,2.2900390625
35.9095,2.2607421875
35.9163856,2.2412109375
35.9367309,2.20703125
35.975546,2.2119140625
35.9759198,2.216796875
36.0222046,2.24609375
36.0226123,2.34375
36.0319208,2.4560546875
36.0671642,2.5830078125
36.0872952,2.6953125
36.0957945,2.79296875
36.1159271,2.8564453125
36.1589788,2.900390625
36.1592444,2.919921875
36.1723356,2.9150390625
36.2224506,2.880859375
36.2226918,2.8369140625
36.2550144,2.783203125
36.2553886,2.7392578125
36.2914564,2.7001953125
36.2964404,2.6611328125
36.3491539,2.626953125
36.3495466,2.5927734375
36.3536756,2.5732421875
36.3890258,2.5439453125
36.3960491,2.5146484375
36.4153027,2.4755859375
36.4501206,2.4365234375
36.4548041,2.3974609375
36.4905692,2.36328125
36.519528,2.3193359375
36.5199203,2.3046875
36.5351305,2.265625
36.5716493,2.2412109375
36.5768296,2.2119140625
36.5963999,2.2021484375
36.6330246,2.2021484375
36.6360469,2.20703125
36.6732899,2.2705078125
36.6751479,2.3583984375
36.719448,2.44140625
36.7196956,2.5048828125
36.7353563,2.63671875
36.7723131,2.724609375
36.7769213,2.7978515625
36.813427,2.822265625
36.8158855,2.83203125
36.8506155,2.8076171875
36.8575162,2.7734375
36.8746613,2.724609375
36.9222517,2.6953125
36.9226418,2.6708984375
36.9418937,2.63671875
36.9550989,2.6025390625
36.9996772,2.568359375
37.0000807,2.5341796875
37.0287068,2.5
37.0394912,2.4609375
37.0550677,2.421875
37.0925468,2.3876953125
37.0954934,2.353515625
37.129166,2.32421875
37.1500007,2.28515625
37.1550175,2.2607421875
37.1891905,2.2265625
37.2104414,2.2021484375
37.2123138,2.1875
37.2634137,2.197265625
37.2636538,2.1923828125
37.2936465,2.1923828125
37.2939647,2.2216796875
37.3408881,2.2900390625
37.3411362,2.3974609375
37.3697729,2.5048828125
37.3770939,2.63671875
37.3947336,2.7294921875
37.4283012,2.8125
37.4331845,2.8564453125
37.4668524,2.8857421875
37.488153,2.8759765625
37.4966962,2.8466796875
37.5330072,2.7978515625
37.5378902,2.7392578125
37.5722808,2.7001953125
37.5767664,2.6513671875
37.6103628,2.6171875
37.6324047,2.578125
37.6364904,2.55859375
37.6720108,2.51953125
37.6774379,2.490234375
37.7143356,2.4462890625
37.7190479,2.4169921875
37.7550343,2.36328125
37.7580451,2.3291015625
37.7744478,2.294921875
37.8091358,2.275390625
37.8294229,2.2509765625
37.8363095,2.2314453125
37.8792845,2.20703125
37.8795812,2.2119140625
37.9003549,2.2021484375
37.9426488,2.1923828125
37.9429023,2.1875
37.9548979,2.2216796875
37.9881468,2.3193359375
38.0097877,2.431640625
38.0160406,2.55859375
38.0525281,2.666015625
38.057532,2.7587890625
38.0939257,2.8125
38.1300916,2.8515625
38.1303343,2.87109375
38.1350458,2.87109375
38.1706736,2.8369140625
38.1757977,2.7880859375
38.2115231,2.7490234375
38.2311435,2.6953125
38.2361243,2.6611328125
38.2868654,2.6220703125
38.2872579,2.5927734375
38.3182255,2.5537109375
38.318441,2.490234375
38.3351293,2.421875
38.3691668,2.4169921875
38.3893833,2.392578125
38.3968997,2.3828125
38.4320167,2.353515625
38.4526332,2.3388671875
38.4578139,2.314453125
38.4931691,2.2900390625
38.5210345,2.265625
38.5213539,2.2607421875
38.5384058,2.24609375
38.5744795,2.2314453125
38.5787186,2.2216796875
38.6144618,2.2265625
38.6201573,2.265625
38.6535922,2.3388671875
38.6586527,2.44140625
38.6764881,2.5390625
38.7116798,2.65625
38.7338048,2.7392578125
38.7381082,2.8076171875
38.7763883,2.841796875
38.7769698,2.8662109375
38.8115244,2.8515625
38.8340305,2.8173828125
38.8421514,2.7685546875
38.8588872,2.7099609375
38.8787809,2.6806640625
38.8973713,2.6513671875
38.9360028,2.6220703125
38.9378579,2.5927734375
38.9830786,2.55859375
38.9833584,2.5244140625
39.001339,2.4853515625
39.0153464,2.4462890625
39.0601582,2.421875
39.0605024,2.3876953125
39.0775771,2.3583984375
39.1114351,2.3291015625
39.1325826,2.3046875
39.1400471,2.275390625
39.1591459,2.2607421875
39.1972009,2.2412109375
39.2023844,2.2119140625
39.2205116,2.2119140625
39.2381271,2.197265625
39.2736261,2.2021484375
39.2784115,2.236328125
39.2997233,2.314453125
39.3200106,2.4169921875
39.3695256,2.5244140625
39.3697839,2.626953125
39.3797526,2.7197265625
39.3953433,2.7880859375
39.4313276,2.861328125
39.4517704,2.8955078125
39.4570983,2.900390625
39.4939232,2.890625
39.5234023,2.8466796875
39.5236795,2.802734375
39.5408292,2.7587890625
39.5758021,2.724609375
39.5760602,2.685546875
39.5975045,2.6611328125
39.6336011,2.63671875
39.6636789,2.6318359375
39.6639606,2.6123046875
39.6787946,2.55859375
39.7141694,2.509765625
39.7403942,2.4658203125
39.7407872,2.421875
39.7741224,2.3876953125
39.7788211,2.36328125
39.8133716,2.34375
39.8201662,2.32421875
39.8561286,2.2900390625
39.8587736,2.2998046875
39.8950104,2.275390625
39.9164063,2.24609375
39.9211093,2.2216796875
39.9413318,2.216796875
39.9585493,2.265625
40.0049397,2.40234375
40.0052644,2.5244140625
40.0190198,2.65625
40.0551176,2.7490234375
40.0600511,2.83203125
40.0960347,2.890625
40.1293613,2.9443359375
40.1297525,2.96875
40.1388197,2.9248046875
40.1741425,2.8857421875
40.1793412,2.83203125
40.2126407,2.7978515625
40.2332972,2.7587890625
40.2408616,2.7197265625
40.2756316,2.6806640625
40.2972327,2.666015625
40.2976949,2.6220703125
40.3453553,2.5830078125
40.3459416,2.587890625
40.3601952,2.587890625
40.4074099,2.548828125
40.4076661,2.509765625
40.4200587,2.4609375
40.4695942,2.451171875
40.4698389,2.412109375
40.4902845,2.3681640625
40.4999363,2.333984375
40.518402,2.314453125
40.5641268,2.2900390625
40.5643645,2.2705078125
40.5837492,2.265625
40.6002827,2.265625
40.6358351,2.32421875
40.656493,2.4169921875
40.6588874,2.5341796875
40.6927089,2.646484375
40.7131278,2.7490234375
40.7202582,2.8125
40.7544048,2.861328125
40.7744664,2.890625
40.781705,2.880859375
40.8159929,2.8564453125
40.8349356,2.8125
40.8423756,2.7685546875
40.8580943,2.71484375
40.8906409,2.6953125
40.9107146,2.666015625
40.922115,2.6416015625
40.9688872,2.6123046875
40.969126,2.59765625
40.9827455,2.5634765625
41.030336,2.5341796875
41.0307273,2.490234375
41.0392024,2.470703125
41.0738997,2.4365234375
41.0954542,2.421875
41.1013854,2.3974609375
41.1220562,2.3681640625
41.1708066,2.333984375
41.1711981,2.3046875
41.1828425,2.28515625
41.1988715,2.255859375
41.2478867,2.24609375
41.2484346,2.24609375
41.2684753,2.275390625
41.2805388,2.3291015625
41.3261147,2.4267578125
41.3263135,2.5341796875
41.3452282,2.6513671875
41.3578581,2.7392578125
41.3934993,2.822265625
41.4155766,2.87109375
41.420317,2.890625
41.4414048,2.8955078125
41.4775929,2.8759765625
41.4823162,2.861328125
41.5249426,2.8173828125
41.5256642,2.7734375
41.5387377,2.7392578125
41.5871893,2.7197265625
41.5875791,2.6416015625
41.6066076,2.63671875
41.6206648,2.6123046875
41.6644077,2.59765625
41.6649231,2.5634765625
41.6967883,2.5390625
41.704722,2.5048828125
41.7408799,2.4755859375
41.7430241,2.451171875
41.7624203,2.4169921875
41.7972457,2.40234375
41.8012799,2.3779296875
41.8498809,2.353515625
41.850121,2.3291015625
41.8622879,2.3095703125
41.9106877,2.28515625
41.9109998,2.28515625
41.9311984,2.3046875
41.9415725,2.392578125
41.9895521,2.5048828125
41.989873,2.63671875
42.0025241,2.734375
42.0393967,2.8271484375
42.0435453,2.890625
42.0805971,2.919921875
42.1009993,2.939453125
42.1013949,2.919921875
42.1216288,2.9052734375
42.1579203,2.861328125
42.1612016,2.822265625
42.204057,2.783203125
42.2042968,2.75390625
42.2238334,2.7197265625
42.2594006,2.685546875
42.2596424,2.6513671875
42.2967359,2.6318359375
42.3013354,2.5927734375
42.3436224,2.55859375
42.344004,2.5146484375
42.3918026,2.490234375
42.3923837,2.4609375
42.4025029,2.421875
42.4388659,2.392578125
42.4691511,2.3583984375
42.4694265,2.3388671875
42.4826881,2.314453125
42.5015873,2.3193359375
42.5462338,2.3095703125
42.5464764,2.3095703125
42.5639011,2.32421875
42.6086262,2.3681640625
42.6089128,2.4462890625
42.6246811,2.5634765625
42.6403297,2.6611328125
42.6758777,2.7685546875
42.6801367,2.8564453125
42.7167592,2.9052734375
42.7366601,2.9345703125
42.7418283,2.9345703125
42.7769595,2.919921875
42.7976496,2.880859375
42.802504,2.8466796875
42.8374749,2.783203125
42.8427486,2.744140625
42.8795999,2.705078125
42.8830916,2.6806640625
42.9039078,2.646484375
42.9382645,2.6123046875
42.9434746,2.5732421875
42.9643845,2.5390625
42.9822352,2.4951171875
43.0021567,2.4755859375
43.0441839,2.4462890625
43.0445277,2.412109375
43.0618207,2.3876953125
43.0961163,2.36328125
43.1172198,2.3388671875
43.1230503,2.3193359375
43.1698058,2.2998046875
43.1700514,2.2802734375
43.189178,2.2705078125
43.2009333,2.2216796875
43.222337,2.2705078125
43.2566569,2.353515625
43.2767202,2.4755859375
43.2830993,2.5927734375
43.3191965,2.705078125
43.3394272,2.7978515625
43.3445748,2.8466796875
43.3792958,2.890625
43.3992214,2.9052734375
43.4011651,2.91015625
43.4363221,2.8759765625
43.4568491,2.83203125
43.4640481,2.783203125
43.498467,2.744140625
43.5199832,2.71484375
43.5267987,2.705078125
43.542634,2.67578125
43.578831,2.666015625
43.582918,2.646484375
43.620255,2.6220703125
43.6230389,2.578125
43.6686518,2.55859375
43.669039,2.5244140625
43.6992288,2.4853515625
43.7043773,2.451171875
43.722403,2.4267578125
43.7567245,2.412109375
43.7771131,2.3876953125
43.7817329,2.373046875
43.8258804,2.3486328125
43.8261937,2.32421875
43.8542835,2.3046875
43.8637381,2.32421875
43.880979,2.3828125
43.9162425,2.4951171875
43.9358904,2.607421875
43.9421343,2.71484375
43.9771729,2.8125
43.9977237,2.87109375
44.0037626,2.91015625
44.0402781,2.9248046875
44.0625333,2.9248046875
44.0664907,2.890625
44.1013934,2.841796875
44.1016595,2.7880859375
44.1234803,2.75390625
44.1666559,2.71484375
44.1668981,2.6904296875
44.1855372,2.666015625
44.2286977,2.6416015625
44.2289376,2.6123046875
44.2636818,2.5830078125
44.2639281,2.5439453125
44.2990748,2.5244140625
44.3042008,2.4951171875
44.3382181,2.4609375
44.3425826,2.4267578125
44.3837199,2.40234375
44.3839617,2.373046875
44.4064295,2.3388671875
44.4270826,2.314453125
44.4446474,2.2900390625
44.4802402,2.28515625
44.4840424,2.2802734375
44.5181864,2.3046875
44.539388,2.353515625
44.544519,2.470703125
44.5853247,2.5830078125
44.5855821,2.7001953125
44.6323858,2.802734375
44.632628,2.8662109375
44.653527,2.919921875
44.6650943,2.9443359375
44.7117389,2.94921875
44.7122737,2.91015625
44.7256672,2.861328125
44.7717624,2.8076171875
44.7723415,2.763671875
44.7839059,2.724609375
44.8192612,2.7001953125
44.8219918,2.6171875
44.861021,2.6025390625
44.8661641,2.5830078125
44.9018903,2.55859375
44.9036975,2.529296875
44.940977,2.4951171875
44.9466394,2.4658203125
44.9808852,2.4267578125
45.0050701,2.40234375
45.0054817,2.3681640625
45.0421469,2.3486328125
45.0453129,2.3291015625
45.0821983,2.3095703125
45.0866916,2.28515625
45.1308701,2.275390625
45.1312597,2.2607421875
45.1776432,2.2802734375
45.178057,2.3388671875
45.1851969,2.4658203125
45.2035677,2.5732421875
45.2401871,2.6953125
45.2707181,2.802734375
45.2711267,2.8662109375
45.2849059,2.91015625
45.3197702,2.9296875
45.3405836,2.9296875
45.3431034,2.890625
45.3795887,2.8515625
45.385818,2.8076171875
45.4229173,2.7734375
45.4231797,2.734375
45.458654,2.7099609375
45.4771089,2.6708984375
45.4875306,2.6416015625
45.5046767,2.6123046875
45.5389823,2.587890625
45.5451754,2.5537109375
45.5805691,2.5390625
45.6136518,2.5146484375
45.6140234,2.48046875
45.6261961,2.4462890625
45.6610691,2.4169921875
45.6820217,2.3779296875
45.6869041,2.353515625
45.7222089,2.3291015625
45.75333,2.2998046875
45.7536225,2.2802734375
45.7662997,2.275390625
45.8144343,2.314453125
45.8147559,2.392578125
45.828155,2.5146484375
45.8624305,2.6318359375
45.8829837,2.7392578125
45.8878454,2.8369140625
45.9032961,2.8857421875
45.9361656,2.939453125
45.9573207,2.9541015625
45.9663935,2.94921875
46.0017657,2.91015625
46.0222044,2.8662109375
46.0271097,2.8173828125
46.0636254,2.7783203125
46.0638622,2.734375
46.0843694,2.7197265625
46.1264744,2.685546875
46.1268119,2.6611328125
46.1467672,2.6318359375
46.1892935,2.59765625
46.1895906,2.548828125
46.2084232,2.51953125
46.2424316,2.4755859375
46.2427298,2.44140625
46.2797848,2.412109375
46.3124792,2.3779296875
46.3128471,2.3486328125
46.3283068,2.32421875
46.3632439,2.2998046875
46.3681138,2.28515625
46.4030487,2.2705078125
46.4243504,2.2705078125
46.4291168,2.2705078125
46.4454681,2.3193359375
46.480976,2.4658203125
46.5022701,2.6025390625
46.5068818,2.724609375
46.5425648,2.8271484375
46.5483918,2.880859375
46.5833727,2.9248046875
46.588622,2.9345703125
46.6221065,2.9248046875
46.6437086,2.880859375
46.6440237,2.841796875
46.6799195,2.79296875
46.7001509,2.7587890625
46.7090372,2.7197265625
46.744559,2.6904296875
46.7519969,2.65625
46.7687612,2.626953125
46.7860371,2.5927734375
46.8229932,2.5634765625
46.8257318,2.51953125
46.8629174,2.490234375
46.8877838,2.4609375
46.8881789,2.4267578125
46.9241424,2.40234375
46.9285859,2.36328125
46.964446,2.333984375
46.9963203,2.3046875
46.9966536,2.2900390625
47.0069389,2.2705078125
47.0564132,2.2509765625
47.0566561,2.255859375
47.0688966,2.3095703125
47.1022032,2.3974609375
47.1221419,2.5341796875
47.1248281,2.646484375
47.1589773,2.7685546875
47.1799435,2.861328125
47.1856288,2.91015625
47.2218807,2.9443359375
47.2414915,2.9443359375
47.251037,2.9296875
47.2684905,2.880859375
47.305074,2.83203125
47.3105763,2.783203125
47.3546687,2.75390625
47.3550693,2.71484375
47.3739028,2.6953125
47.3874566,2.65625
47.4220008,2.626953125
47.4424103,2.5927734375
47.4478221,2.5537109375
47.4834202,2.509765625
47.5045065,2.470703125
47.509621,2.431640625
47.5263968,2.3876953125
47.5725954,2.36328125
47.5729903,2.3388671875
47.5921186,2.314453125
47.6099363,2.294921875
47.6450774,2.28515625
47.6496567,2.265625
47.6839647,2.255859375
47.7043181,2.265625
47.7073693,2.3486328125
47.7418084,2.451171875
47.7756306,2.5927734375
47.7762842,2.705078125
47.7888381,2.8125
47.8228332,2.900390625
47.8440232,2.9443359375
47.8492932,2.9638671875
47.884688,2.958984375
47.8850774,2.939453125
47.9213236,2.8857421875
47.9424341,2.83203125
47.9486614,2.7734375
47.9906634,2.734375
47.9910094,2.6953125
48.0252807,2.6611328125
48.0258635,2.6220703125
48.0682618,2.5927734375
48.068502,2.5
48.0893638,2.4755859375
48.1299319,2.4365234375
48.130176,2.421875
48.1655559,2.3974609375
48.1698912,2.3681640625
48.2079846,2.3486328125
48.2082241,2.32421875
48.2451754,2.2998046875
48.2650464,2.2802734375
48.2674576,2.2607421875
48.3035213,2.2412109375
48.3326739,2.2314453125
48.3330669,2.2314453125
48.3502305,2.265625
48.3844177,2.353515625
48.4052087,2.48046875
48.4055582,2.59765625
48.4421204,2.724609375
48.4632493,2.8271484375
48.4674065,2.880859375
48.5041733,2.919921875
48.5236912,2.9248046875
48.530005,2.91015625
48.5677875,2.861328125
48.5698077,2.8125
48.6141192,2.75390625
48.6143555,2.724609375
48.6282749,2.6904296875
48.6631923,2.67578125
48.6850615,2.646484375
48.6894942,2.626953125
48.724909,2.587890625
48.7468687,2.5537109375
48.7472653,2.5048828125
48.7977807,2.48046875
48.7984533,2.44140625
48.8094679,2.4072265625
48.8439615,2.373046875
48.8645105,2.34375
48.8693796,2.3095703125
48.9035948,2.2802734375
48.9246704,2.2607421875
48.9307828,2.2314453125
48.9705675,2.2119140625
48.9708042,2.20703125
49.0022154,2.24609375
49.0106345,2.32421875
49.0466019,2.4462890625
49.0508736,2.5537109375
49.0858351,2.6806640625
49.0909166,2.79296875
49.1272376,2.8564453125
49.1470399,2.8955078125
49.1500233,2.91015625
49.1685057,2.919921875
49.2169066,2.880859375
49.2171531,2.83203125
49.237321,2.7734375
49.2523669,2.7294921875
49.2873984,2.6904296875
49.2916307,2.666015625
49.310148,2.626953125
49.3449622,2.6025390625
49.348489,2.5732421875
49.3901072,2.5439453125
49.390345,2.5
49.4203741,2.4609375
49.4323435,2.421875
49.482097,2.373046875
49.4824907,2.3388671875
49.4881002,2.3046875
49.5255732,2.2900390625
49.5295479,2.265625
49.5641252,2.2509765625
49.584954,2.2265625
49.5906005,2.216796875
49.625426,2.2119140625
49.6479327,2.2412109375
49.6481984,2.2998046875
49.6844389,2.421875
49.6892904,2.5
49.7260625,2.646484375
49.7302762,2.7783203125
49.7784049,2.861328125
49.778672,2.9248046875
49.7931018,2.94921875
49.8285119,2.9638671875
49.8332829,2.9345703125
49.8735155,2.890625
49.8737546,2.8369140625
49.8908906,2.79296875
49.9356759,2.7490234375
49.9361152,2.724609375
49.9522666,2.6806640625
49.9991281,2.6416015625
49.9994845,2.5927734375
50.0145347,2.548828125
50.030266,2.5
50.0658838,2.470703125
50.070101,2.44140625
50.1056747,2.40234375
50.1104363,2.3779296875
50.1449878,2.3388671875
50.1698809,2.314453125
50.1730805,2.28515625
50.2153147,2.2705078125
50.215708,2.24609375
50.2346958,2.236328125
50.2491975,2.216796875
50.2862061,2.2412109375
50.2909565,2.2802734375
50.3257436,2.373046875
50.3478822,2.4755859375
50.3527476,2.59765625
50.3996848,2.724609375
50.4000796,2.802734375
50.4097927,2.8759765625
50.4469295,2.9150390625
50.4501112,2.9345703125
50.4839974,2.91015625
50.5048759,2.8662109375
50.5109424,2.8125
50.5476109,2.763671875
50.569392,2.71484375
50.5732528,2.685546875
50.5911917,2.6513671875
50.6269961,2.626953125
50.6321472,2.5927734375
50.6677491,2.5634765625
50.6729221,2.5244140625
50.6925045,2.4951171875
50.7398072,2.4609375
50.7401311,2.421875
50.7552041,2.3876953125
50.7717349,2.353515625
50.8160754,2.333984375
50.8163647,2.3095703125
50.8322666,2.314453125
50.8513303,2.2998046875
50.8863954,2.2705078125
50.9069484,2.236328125
50.9138201,2.2216796875
50.9293519,2.236328125
50.964789,2.32421875
50.9850305,2.4365234375
50.9930579,2.5634765625
51.0336654,2.6904296875
51.0339086,2.79296875
51.0793857,2.880859375
51.0796316,2.91015625
51.0945225,2.9248046875
51.1095641,2.9052734375
51.1445865,2.8759765625
51.1731551,2.822265625
51.1733944,2.7734375
51.2096982,2.7197265625
51.2121717,2.6904296875
51.2465443,2.6513671875
51.2665252,2.626953125
51.2691216,2.59765625
51.303508,2.578125
51.3260071,2.490234375
51.3320492,2.4853515625
51.3530545,2.4609375
51.4050429,2.421875
51.4053898,2.392578125
51.4128209,2.3583984375
51.4474258,2.32421875
51.4691533,2.28515625
51.4760807,2.2607421875
51.4910159,2.2265625
51.5127388,2.2216796875
51.5577191,2.216796875
51.5579698,2.2119140625
51.5740285,2.236328125
51.6211753,2.3193359375
51.6215713,2.421875
51.635506,2.5439453125
51.6699857,2.67578125
51.6703904,2.763671875
51.7047618,2.8515625
51.7303943,2.91015625
51.7307217,2.958984375
51.7770236,2.9638671875
51.7772634,2.9443359375
51.8087089,2.890625
51.8139998,2.8369140625
51.8317235,2.7734375
51.8665416,2.7490234375
51.8880541,2.71484375
51.8926424,2.685546875
51.9284489,2.6416015625
51.9601425,2.6123046875
51.9605035,2.55859375
51.9745456,2.529296875
52.0217011,2.490234375
52.0219391,2.451171875
52.0423499,2.421875
52.0523538,2.3876953125
52.0994935,2.3583984375
52.0999219,2.32421875
52.1157324,2.2998046875
52.162972,2.2705078125
52.1633681,2.2412109375
52.1754698,2.2119140625
52.1961564,2.20703125
52.2122529,2.216796875
52.2560119,2.2802734375
52.2562549,2.373046875
52.2863087,2.490234375
52.2958211,2.6220703125
52.3328277,2.7197265625
52.335647,2.8076171875
52.3713601,2.8515625
52.3758367,2.8857421875
52.3947648,2.8857421875
52.4142125,2.87109375
52.4484705,2.83203125
52.4554348,2.7880859375
52.5029136,2.734375
52.5031593,2.7001953125
52.5140373,2.6611328125
52.5521423,2.63671875
52.5523889,2.6025390625
52.5897141,2.5830078125
52.595231,2.5439453125
52.6311051,2.5146484375
52.6350699,2.48046875
52.6730623,2.431640625
52.6753184,2.3974609375
52.7200491,2.3583984375
52.7204394,2.3291015625
52.7394228,2.294921875
52.7534755,2.2802734375
52.7880425,2.2705078125
52.8086415,2.2607421875
52.813461,2.236328125
52.8585828,2.2216796875
52.8590471,2.2119140625
52.878536,2.2509765625
52.890968,2.3291015625
52.9378754,2.4462890625
52.9382721,2.5244140625
52.9686099,2.6025390625
52.9749932,2.7294921875
53.009881,2.802734375
53.0146108,2.861328125
53.0633056,2.880859375
53.0637194,2.880859375
53.0835397,2.83203125
53.0966203,2.783203125
53.1137864,2.724609375
53.157183,2.6904296875
53.1575772,2.646484375
53.1747504,2.6171875
53.2093879,2.587890625
53.2169316,2.5537109375
53.2538184,2.5146484375
53.2576605,2.490234375
53.2989844,2.4560546875
53.2993795,2.412109375
53.3152992,2.3876953125
53.3497412,2.353515625
53.353943,2.3291015625
53.3882073,2.2998046875
53.4079986,2.2802734375
53.4153973,2.24609375
53.4499048,2.216796875
53.4710775,2.20703125
53.4736086,2.2119140625
53.5092486,2.20703125
53.5303674,2.236328125
53.5345737,2.294921875
53.5767076,2.40234375
53.5770556,2.5341796875
53.6109663,2.646484375
53.6153069,2.75390625
53.6333107,2.822265625
53.6701425,2.8857421875
53.6758386,2.9052734375
53.7113654,2.9150390625
53.7161139,2.8857421875
53.7614008,2.8369140625
53.7617193,2.783203125
53.7758559,2.744140625
53.8103487,2.705078125
53.8296966,2.67578125
53.8349039,2.646484375
53.854267,2.626953125
53.8895169,2.587890625
53.9097545,2.5634765625
53.9170081,2.5244140625
53.9534755,2.4755859375
53.9553939,2.4267578125
53.9979029,2.3828125
54.0264516,2.3486328125
54.0267797,2.314453125
54.0329316,2.2900390625
54.0690346,2.2705078125
54.0886504,2.2509765625
54.0977577,2.2216796875
54.1169675,2.2216796875
54.1669166,2.20703125
54.1671738,2.2119140625
54.1740396,2.236328125
54.2079308,2.32421875
54.2289319,2.4462890625
54.2358242,2.5439453125
54.2702694,2.666015625
54.2914438,2.75390625
54.2958169,2.83203125
54.3293461,2.87109375
54.3499156,2.900390625
54.3519376,2.8857421875
54.4012263,2.8662109375
54.4016165,2.8076171875
54.4156606,2.763671875
54.4625765,2.7099609375
54.4628213,2.6806640625
54.476014,2.6416015625
54.5100876,2.607421875
54.5313644,2.5634765625
54.5391913,2.5390625
54.5600174,2.4560546875
54.5752504,2.3828125
54.6093233,2.3779296875
54.6313262,2.3681640625
54.6373204,2.3486328125
54.6798156,2.32421875
54.6800617,2.2998046875
54.7098469,2.28515625
54.7181228,2.2607421875
54.734982,2.24609375
54.7706479,2.2314453125
54.8009034,2.2216796875
54.8012962,2.2265625
54.8186073,2.2265625
54.860877,2.265625
54.8611144,2.3486328125
54.8801195,2.44140625
54.9134613,2.5537109375
54.9141416,2.65625
54.9563132,2.763671875
54.9567088,2.8173828125
55.0016184,2.861328125
55.0020272,2.8662109375
55.0220881,2.8564453125
55.0388268,2.8125
55.0767596,2.763671875
55.0771246,2.7099609375
55.1122362,2.6708984375
55.1171098,2.63671875
55.1372638,2.607421875
55.1874488,2.578125
55.187752,2.5537109375
55.1993554,2.5244140625
55.2349606,2.4853515625
55.2393816,2.4462890625
55.2566638,2.4072265625
55.2905036,2.3828125
55.2959035,2.353515625
55.3446947,2.333984375
55.3449488,2.3095703125
55.3760675,2.28515625
55.3763151,2.2509765625
55.4205656,2.2216796875
55.4208158,2.216796875
55.4420838,2.216796875
55.4565595,2.2021484375
55.4990793,2.2314453125
55.4993195,2.2998046875
55.5272268,2.392578125
55.5390438,2.5146484375
55.57289,2.6220703125
55.5775864,2.7294921875
55.6111916,2.7978515625
55.6312621,2.8564453125
55.6364556,2.87109375
55.6731639,2.890625
55.6989624,2.8662109375
55.6992806,2.822265625
55.7348864,2.7685546875
55.7396656,2.7197265625
55.7770573,2.6806640625
55.7788922,2.646484375
55.8122002,2.6171875
55.8150072,2.607421875
55.8479041,2.587890625
55.8688798,2.55859375
55.8776792,2.5244140625
55.9163643,2.48046875
55.9174149,2.44140625
55.953468,2.3974609375
55.9743786,2.3681640625
55.9770685,2.333984375
56.0134347,2.314453125
56.0175292,2.294921875
56.0519259,2.275390625
56.0726975,2.2509765625
56.0777704,2.236328125
56.1125557,2.2119140625
56.1324221,2.216796875
56.1389115,2.2412109375
56.16165,2.3046875
56.1809573,2.373046875
56.1988913,2.4560546875
56.245614,2.6025390625
56.2458738,2.71484375
56.2582895,2.8125
56.2954794,2.861328125
56.3000409,2.8955078125
56.3351334,2.900390625
56.3406593,2.8857421875
56.3571879,2.8369140625
56.4009683,2.802734375
56.4013595,2.7587890625
56.4192946,2.7294921875
56.4542157,2.6904296875
56.4589323,2.666015625
56.494625,2.63671875
56.4992878,2.59765625
56.5335054,2.568359375
56.5548975,2.529296875
56.5564733,2.5
56.5908834,2.4560546875
56.6127278,2.4365234375
56.6193007,2.40234375
56.6661566,2.3779296875
56.6665198,2.353515625
56.6956817,2.3291015625
56.6959421,2.3046875
56.7438401,2.3046875
56.744188,2.28515625
56.7727963,2.265625
56.7784659,2.255859375
56.8113797,2.2705078125
56.832621,2.34375
56.8417165,2.4365234375
56.8610341,2.5732421875
56.8786816,2.67578125
56.9310004,2.783203125
56.9319625,2.841796875
56.9369499,2.8955078125
56.9751563,2.900390625
56.9799552,2.890625
57.022534,2.841796875
57.022794,2.79296875
57.0537545,2.734375
57.0626643,2.705078125
57.079497,2.6806640625
57.1006697,2.6513671875
57.1196922,2.6171875
57.1404102,2.5830078125
57.1774351,2.548828125
57.177637,2.5146484375
57.2242164,2.48046875
57.2244766,2.4462890625
57.2440218,2.412109375
57.2571853,2.3779296875
57.2929751,2.3583984375
57.3120234,2.333984375
57.3198478,2.3095703125
57.3572643,2.28515625
57.3596976,2.275390625
57.399608,2.255859375
57.3999457,2.28515625
57.4367937,2.2607421875
57.4392499,2.2412109375
57.4759818,2.3388671875
57.4786601,2.421875
57.5114819,2.5390625
57.5340417,2.6416015625
57.54078,2.7490234375
57.5793732,2.8173828125
57.579615,2.8759765625
57.6141087,2.8955078125
57.6168487,2.9150390625
57.6519731,2.890625
57.672589,2.8564453125
57.6792729,2.802734375
57.7187721,2.7587890625
57.7390865,2.71484375
57.7422153,2.685546875
57.7784732,2.6513671875
57.7836677,2.6220703125
57.8039475,2.55859375
57.8193416,2.490234375
57.8543246,2.490234375
57.8750351,2.4755859375
57.8800967,2.4658203125
57.914715,2.4365234375
57.9356547,2.4169921875
57.9417447,2.392578125
57.9841753,2.373046875
57.984521,2.3388671875
58.0138499,2.32421875
58.0209853,2.3046875
58.0583611,2.2900390625
58.0610644,2.2802734375
58.0949511,2.255859375
58.1157888,2.2607421875
58.1233647,2.2998046875
58.1698059,2.4072265625
58.1700556,2.5146484375
58.1812411,2.646484375
58.2163416,2.7392578125
58.2226541,2.8271484375
58.243055,2.87109375
58.2793672,2.9052734375
58.2795788,2.900390625
58.3140323,2.8759765625
58.3342178,2.83203125
58.3382326,2.7880859375
58.3716573,2.7392578125
58.3922117,2.7099609375
58.4031893,2.6806640625
58.4220535,2.6416015625
58.443343,2.6123046875
58.47972,2.5830078125
58.479972,2.55859375
58.5270577,2.5244140625
58.5272974,2.5
58.5408464,2.4658203125
58.5757979,2.421875
58.596026,2.3828125
58.6001542,2.3486328125
58.6368255,2.3193359375
58.6587515,2.2998046875
58.663884,2.28515625
58.7131183,2.2607421875
58.7133346,2.236328125
58.721856,2.20703125
58.7420476,2.2265625
58.7628721,2.2509765625
58.7840401,2.3291015625
58.8045171,2.4169921875
58.8400429,2.529296875
58.8421008,2.626953125
58.8768842,2.71484375
58.8978041,2.7685546875
58.9003847,2.8271484375
58.9350233,2.8466796875
58.942421,2.8466796875
58.9623746,2.8125
58.9977681,2.7685546875
59.0227754,2.724609375
59.0230964,2.6904296875
59.0600692,2.6611328125
59.0603807,2.626953125
59.0938724,2.607421875
59.1149857,2.578125
59.1214955,2.548828125
59.1573556,2.51953125
59.1790948,2.490234375
59.1838956,2.4560546875
59.2040405,2.421875
59.2195299,2.3828125
59.2529881,2.373046875
59.2729532,2.3486328125
59.2815097,2.3388671875
59.3208346,2.3193359375
59.3420987,2.2998046875
59.3424698,2.28515625
59.3843844,2.2607421875
59.3847254,2.255859375
59.4040682,2.255859375
59.4245371,2.275390625
59.4424177,2.3291015625
59.4780512,2.4755859375
59.482034,2.5927734375
59.5220421,2.705078125
59.5517842,2.7685546875
59.5520901,2.822265625
59.5635193,2.841796875
59.6152676,2.8515625
59.6156614,2.8271484375
59.6227065,2.7978515625
59.6580063,2.763671875
59.6605629,2.7392578125
59.6954043,2.705078125
59.7233508,2.67578125
59.7236684,2.65625
59.7684483,2.6220703125
59.7686917,2.5927734375
59.7889586,2.5634765625
59.8020137,2.5390625
59.8457138,2.509765625
59.8459526,2.48046875
59.8665406,2.451171875
59.8840225,2.421875
59.9245496,2.3974609375
59.9248125,2.392578125
59.9552305,2.373046875
59.9625261,2.3681640625
59.9976978,2.3681640625
60.0028004,2.3486328125
60.0421188,2.34375
60.0427133,2.34375
60.087781,2.40234375
60.0880257,2.48046875
60.1086971,2.5927734375
60.1210594,2.685546875
60.1557035,2.7978515625
60.1757764,2.8662109375
60.1841403,2.9345703125
60.2042305,2.9541015625
60.2386991,2.958984375
60.2438696,2.9345703125
60.2791488,2.8857421875
60.2998133,2.8271484375
60.3049599,2.7978515625
60.3414529,2.75390625
60.3719909,2.71484375
60.3723916,2.6953125
60.3840546,2.666015625
60.433336,2.6318359375
60.4335835,2.607421875
60.4436335,2.6171875
60.4802256,2.578125
60.5013224,2.5341796875
60.5018426,2.4951171875
60.5373941,2.4609375
60.543335,2.4267578125
60.5795629,2.4072265625
60.5840437,2.3828125
60.634452,2.3828125
60.6346945,2.3828125
60.6454756,2.34375
60.6804232,2.314453125
60.7018678,2.3046875
60.7022246,2.36328125
60.7443237,2.44140625
60.7447144,2.5537109375
60.7763949,2.6513671875
60.7859496,2.744140625
60.821541,2.802734375
60.8269748,2.87109375
60.8422939,2.919921875
60.8784386,2.9541015625
60.8824739,2.9345703125
60.9170018,2.8857421875
60.9393644,2.83203125
60.9437467,2.8173828125
60.9923843,2.7978515625
60.9932937,2.763671875
61.0142256,2.734375
61.0281185,2.6953125
61.0476989,2.63671875
61.0634352,2.568359375
61.0987514,2.55859375
61.103381,2.5439453125
61.1379071,2.5439453125
61.1621222,2.5048828125
61.1641541,2.470703125
61.2095066,2.431640625
61.2097171,2.4072265625
61.2412909,2.373046875
61.2414958,2.353515625
61.2874032,2.34375
61.2876103,2.314453125
61.3085867,2.2998046875
61.3258164,2.3095703125
61.3658913,2.36328125
61.366242,2.4462890625
61.4129803,2.55859375
61.4133434,2.6611328125
61.4440138,2.7685546875
61.4444253,2.8466796875
61.4906505,2.9052734375
61.4910568,2.9248046875
61.5056571,2.9296875
61.5263283,2.9052734375
61.5626353,2.8662109375
61.5629857,2.8125
61.5991897,2.783203125
61.6267365,2.7490234375
61.626975,2.7197265625
61.6609287,2.6904296875
61.6650598,2.6513671875
61.7055591,2.6171875
61.7058129,2.5830078125
61.7518861,2.5634765625
61.7521978,2.51953125
61.7826709,2.4951171875
61.7828951,2.4755859375
61.8288598,2.4658203125
61.8292608,2.451171875
61.8500903,2.4267578125
61.8676068,2.3974609375
61.9066833,2.36328125
61.9069788,2.34375
61.9417858,2.3193359375
61.9679705,2.2998046875
61.9683578,2.3095703125
61.984335,2.40234375
62.0315701,2.5048828125
62.0322277,2.6318359375
62.0515373,2.734375
62.0650548,2.8369140625
62.1014349,2.900390625
62.1251844,2.958984375
62.1255966,2.9736328125
62.1711968,2.978515625
62.1714426,2.9443359375
62.1846896,2.900390625
62.2346284,2.8466796875
62.2349117,2.8173828125
62.246268,2.7783203125
62.283236,2.744140625
62.3118714,2.705078125
62.3122773,2.666015625
62.3261532,2.6318359375
62.3452827,2.59765625
62.3813786,2.5634765625
62.3862345,2.5244140625
62.4379444,2.4853515625
62.4381999,2.4462890625
62.4491844,2.412109375
62.4639042,2.3779296875
62.5147482,2.3681640625
62.5149974,2.3486328125
62.5263718,2.32421875
62.5638375,2.3095703125
62.5641494,2.2802734375
62.6002935,2.265625
62.6214051,2.275390625
62.6263875,2.3388671875
62.6609944,2.4267578125
62.6677665,2.509765625
62.7025299,2.5830078125
62.7059481,2.705078125
62.7458543,2.7783203125
62.7461067,2.8466796875
62.7920116,2.87109375
62.7925206,2.880859375
62.8079867,2.861328125
62.8539951,2.822265625
62.8542132,2.763671875
62.8653643,2.744140625
62.9020912,2.71484375
62.9225059,2.6904296875
62.9272603,2.666015625
62.96175,2.646484375
62.966249,2.6123046875
62.99979,2.578125
63.0213213,2.5537109375
63.026444,2.51953125
63.0725044,2.490234375
63.0732417,2.4609375
63.0847052,2.431640625
63.1329816,2.4072265625
63.1332273,2.3828125
63.1551955,2.3583984375
63.1686108,2.3388671875
63.2117925,2.32421875
63.2120373,2.2998046875
63.225839,2.2998046875
63.2719034,2.32421875
63.2722718,2.392578125
63.285159,2.4853515625
63.3357235,2.607421875
63.3360574,2.71484375
63.3610967,2.79296875
63.3633569,2.841796875
63.4086136,2.8955078125
63.4088996,2.91015625
63.4283458,2.91015625
63.4631303,2.87109375
63.4672216,2.8173828125
63.5041262,2.763671875
63.5082672,2.734375
63.549385,2.7001953125
63.5496916,2.6611328125
63.5941317,2.6318359375
63.5943686,2.59765625
63.6063683,2.5732421875
63.6564659,2.5390625
63.6566735,2.509765625
63.6685065,2.4755859375
63.7042752,2.44140625
63.7085928,2.40234375
63.748037,2.3681640625
63.7483431,2.333984375
63.7835483,2.3291015625
63.7865462,2.3046875
63.8221719,2.2900390625
63.8423269,2.2802734375
63.8490031,2.255859375
63.8875273,2.2509765625
63.8877307,2.2705078125
63.9232196,2.3486328125
63.9449083,2.4462890625
63.9451529,2.5830078125
63.9976352,2.6904296875
63.9978407,2.7880859375
64.0088641,2.8515625
64.0599596,2.91015625
64.060183,2.9296875
64.0707683,2.9345703125
64.0868562,2.900390625
64.1078683,2.87109375
64.1546476,2.8271484375
64.1548565,2.7978515625
64.1682995,2.763671875
64.2151577,2.734375
64.2153589,2.705078125
64.2274702,2.6708984375
64.2635863,2.6416015625
64.2940711,2.6123046875
64.2943065,2.5439453125
64.3079847,2.470703125
64.3429497,2.4609375
64.3482489,2.44140625
64.3831621,2.421875
64.4047097,2.3974609375
64.4098153,2.3828125
64.4496412,2.3583984375
64.449926,2.333984375
64.4968078,2.3193359375
64.4970188,2.28515625
64.5262707,2.2900390625
64.5286799,2.32421875
64.572772,2.4072265625
64.573111,2.4951171875
64.5892677,2.607421875
64.626241,2.7001953125
64.630944,2.7880859375
64.6458158,2.841796875
64.6814792,2.9052734375
64.7031794,2.9248046875
64.7087046,2.9150390625
64.7590869,2.8759765625
64.7594475,2.8271484375
64.7690964,2.7685546875
64.8067875,2.7392578125
64.8117773,2.7099609375
64.8289555,2.67578125
64.8488463,2.65625
64.8689635,2.626953125
64.9139853,2.5927734375
64.9144531,2.55859375
64.9291381,2.5390625
64.9644351,2.5
64.9693009,2.4609375
64.9860198,2.4365234375
65.0232146,2.412109375
65.041695,2.392578125
65.0466449,2.3828125
65.0841991,2.353515625
65.1154051,2.333984375
65.1159239,2.32421875
65.1304667,2.2998046875
65.1803176,2.2900390625
65.1806782,2.3046875
65.2002289,2.373046875
65.2089889,2.4609375
65.2574914,2.578125
65.2579673,2.666015625
65.2692707,2.75390625
65.3189823,2.8076171875
65.319301,2.8564453125
65.3299222,2.861328125
65.3816316,2.8564453125
65.3819589,2.8125
65.388104,2.7783203125
65.4265889,2.734375
65.4488991,2.71484375
65.449103,2.685546875
65.4907275,2.65625
65.4910931,2.626953125
65.520357,2.5927734375
65.5309148,2.55859375
65.54907,2.5244140625
65.5676587,2.5048828125
65.6151974,2.48046875
65.6153953,2.451171875
65.6286623,2.421875
65.6660594,2.392578125
65.6705252,2.3681640625
65.7089774,2.353515625
65.7092347,2.32421875
65.7392316,2.3046875
65.7500942,2.3046875
65.7715179,2.28515625
65.790203,2.28515625
65.8324151,2.314453125
65.8326183,2.40234375
65.8675588,2.4951171875
65.8694768,2.6171875
65.9118964,2.71484375
65.9122039,2.763671875
65.9449306,2.7880859375
65.9481712,2.8564453125
65.9831877,2.880859375
66.0035115,2.880859375
66.0110174,2.8515625
66.0515328,2.8125
66.0518371,2.7685546875
66.0716629,2.7587890625
66.1088292,2.7392578125
66.109153,2.7099609375
66.1445701,2.7001953125
66.1743798,2.6806640625
66.1746047,2.6513671875
66.191799,2.6171875
66.2118821,2.587890625
66.2532899,2.5439453125
66.2534929,2.5048828125
66.2700383,2.4658203125
66.3164156,2.4462890625
66.316613,2.4169921875
66.3317909,2.3974609375
66.3517854,2.373046875
66.3727094,2.3486328125
66.4080697,2.3291015625
66.4105653,2.3046875
66.4466643,2.3095703125
66.4733079,2.34375
66.4735812,2.451171875
66.4913522,2.5634765625
66.5267957,2.685546875
66.5310697,2.7734375
66.5665117,2.8515625
66.5737924,2.900390625
66.612036,2.9443359375
66.6122323,2.9443359375
66.6303,2.9345703125
66.6743694,2.8857421875
66.6748178,2.83203125
66.6907065,2.7880859375
66.7297777,2.75390625
66.7301188,2.7197265625
66.7665183,2.685546875
66.7875256,2.6513671875
66.7947487,2.607421875
66.8305735,2.5732421875
66.8307695,2.529296875
66.8809039,2.5048828125
66.8812121,2.4755859375
66.8917797,2.451171875
66.9430774,2.412109375
66.943379,2.3828125
66.953275,2.3486328125
66.9905347,2.3291015625
66.9908478,2.3046875
67.0364178,2.294921875
67.0366138,2.275390625
67.0514358,2.2509765625
67.0993308,2.2509765625
67.0996657,2.294921875
67.111336,2.392578125
67.1611442,2.5048828125
67.1616563,2.626953125
67.1917199,2.724609375
67.1919765,2.8076171875
67.2388971,2.8564453125
67.2391703,2.8955078125
67.2504464,2.890625
67.2852591,2.87109375
67.3076455,2.822265625
67.3145731,2.7734375
67.3301443,2.724609375
67.37763,2.71484375
67.3780583,2.7001953125
67.3908872,2.6708984375
67.4282132,2.6416015625
67.4322464,2.607421875
67.466764,2.5634765625
67.4866767,2.5244140625
67.4936506,2.490234375
67.5132988,2.451171875
67.5473113,2.3828125
67.5502039,2.32421875
67.5856957,2.3291015625
67.6059298,2.3193359375
67.610868,2.314453125
67.6555613,2.3046875
67.6557592,2.294921875
67.6867648,2.294921875
67.6941641,2.28515625
67.7292653,2.2998046875
67.7487963,2.3486328125
67.7511,2.4560546875
67.7901583,2.5634765625
67.7904007,2.6904296875
67.826281,2.783203125
67.8455887,2.861328125
67.855236,2.900390625
67.8986958,2.9443359375
67.8990881,2.9345703125
67.9123604,2.9150390625
67.9461473,2.87109375
67.9531928,2.8271484375
67.9892737,2.7734375
67.9918752,2.744140625
68.0265912,2.71484375
68.0472077,2.67578125
68.0550521,2.63671875
68.0691407,2.59765625
68.102588,2.568359375
68.1218272,2.5390625
68.1327573,2.5146484375
68.1665259,2.490234375
68.1866479,2.4560546875
68.1939508,2.4267578125
68.2289885,2.392578125
68.2496698,2.36328125
68.2526363,2.353515625
68.2869861,2.3291015625
68.3146693,2.3046875
68.3149159,2.2900390625
68.3343878,2.2705078125
68.3765643,2.294921875
68.3769265,2.353515625
68.3947761,2.4755859375
68.4155438,2.587890625
68.4622718,2.7001953125
68.462676,2.783203125
68.4731766,2.87109375
68.5089339,2.91015625
68.5149687,2.939453125
68.5334603,2.9248046875
68.5688991,2.900390625
68.5892113,2.8466796875
68.5942253,2.7978515625
68.6111363,2.7392578125
68.645132,2.724609375
68.6791974,2.6953125
68.6794365,2.666015625
68.6949353,2.6318359375
68.7307717,2.5927734375
68.7348213,2.5537109375
68.7550074,2.5048828125
68.7914336,2.470703125
68.7919851,2.4267578125
68.819089,2.3974609375
68.832871,2.3583984375
68.8803484,2.3291015625
68.8805871,2.294921875
68.9005042,2.2705078125
68.9145449,2.2509765625
68.948119,2.2314453125
68.9682093,2.2119140625
68.9705586,2.2119140625
69.0073748,2.265625
69.0351278,2.333984375
69.0353894,2.451171875
69.0544549,2.55859375
69.0979501,2.67578125
69.0981893,2.7587890625
69.1295231,2.8271484375
69.136995,2.861328125
69.1562377,2.861328125
69.1717394,2.8173828125
69.2095352,2.8076171875
69.2141728,2.7685546875
69.2506374,2.7294921875
69.2551731,2.685546875
69.2918432,2.666015625
69.2966603,2.6416015625
69.3461249,2.6123046875
69.3464229,2.5830078125
69.3531558,2.5439453125
69.3917522,2.5146484375
69.3923394,2.48046875
69.4386556,2.4462890625
69.4389918,2.412109375
69.4682962,2.3828125
69.4751709,2.3388671875
69.5099173,2.3095703125
69.5300187,2.275390625
69.5326097,2.265625
69.5698601,2.2412109375
69.5753181,2.2314453125
69.6118682,2.2216796875
69.6160214,2.2265625
69.6500578,2.2607421875
69.6559891,2.3291015625
69.6912095,2.44140625
69.712412,2.5439453125
69.7126637,2.6708984375
69.7620695,2.763671875
69.762462,2.8369140625
69.783976,2.8759765625
69.7948655,2.8955078125
69.8402807,2.8759765625
69.8406736,2.83203125
69.8540307,2.7783203125
69.8735496,2.734375
69.916278,2.7001953125
69.9165231,2.6806640625
69.9507453,2.6611328125
69.9556196,2.6171875
69.9890815,2.5830078125
70.0101406,2.548828125
70.0175147,2.509765625
70.054727,2.470703125
70.0549691,2.4365234375
70.0731118,2.392578125
70.1083503,2.373046875
70.1292952,2.36328125
70.1356979,2.3388671875
70.1792513,2.3046875
70.1797445,2.2900390625
70.1978553,2.275390625
70.2405289,2.265625
70.2407799,2.2607421875
70.2547799,2.2509765625
70.2885265,2.3046875
70.3109446,2.3828125
70.3159726,2.509765625
70.3640783,2.626953125
70.3643143,2.7392578125
70.394583,2.8173828125
70.3963978,2.880859375
70.4298443,2.9052734375
70.433745,2.9345703125
70.4671478,2.919921875
70.4879976,2.8857421875
70.495245,2.8271484375
70.536137,2.7734375
70.5365274,2.7197265625
70.5578711,2.6953125
70.5942057,2.65625
70.5944499,2.6220703125
70.6297431,2.6025390625
70.6347891,2.568359375
70.6708812,2.5341796875
70.6755495,2.5
70.713954,2.4658203125
70.714363,2.421875
70.7527503,2.392578125
70.7722352,2.3583984375
70.7762299,2.2900390625
70.8106489,2.2265625
70.8157448,2.236328125
70.8534548,2.2314453125
70.855259,2.2216796875
70.8947163,2.2412109375
70.8950419,2.2509765625
70.929718,2.314453125
70.9489765,2.40234375
70.9586222,2.51953125
70.9742162,2.6318359375
71.0069324,2.7490234375
71.0272348,2.822265625
71.0357222,2.8759765625
71.0707632,2.9052734375
71.0901856,2.9150390625
71.0977441,2.8857421875
71.1326091,2.841796875
71.1518582,2.7783203125
71.1545152,2.7392578125
71.18872,2.6953125
71.2093687,2.685546875
71.2169325,2.6513671875
71.2526685,2.6220703125
71.2572302,2.5830078125
71.2928734,2.548828125
71.2970332,2.5048828125
71.3153268,2.4658203125
71.3527831,2.44140625
71.3554969,2.412109375
71.3911136,2.3779296875
71.3956851,2.3388671875
71.4327488,2.3046875
71.4559262,2.2705078125
71.458846,2.255859375
71.4749246,2.2314453125
71.5113452,2.2314453125
71.5154729,2.2412109375
71.5618888,2.2509765625
71.5621429,2.3095703125
71.583101,2.3828125
71.5983996,2.4951171875
71.6348243,2.59765625
71.6365488,2.7001953125
71.6707631,2.7587890625
71.7008833,2.8125
71.7011325,2.822265625
71.7147173,2.83203125
71.7527276,2.802734375
71.7574222,2.7587890625
71.7921567,2.7001953125
71.8127327,2.6611328125
71.8169212,2.626953125
71.8541544,2.6025390625
71.8879271,2.5732421875
71.8882437,2.5439453125
71.8948925,2.5244140625
71.9350079,2.4951171875
71.9553993,2.470703125
71.9579728,2.431640625
71.9926172,2.40234375
72.0135097,2.3681640625
72.0176712,2.333984375
72.0348082,2.3046875
72.068556,2.28515625
72.0903299,2.2607421875
72.0972051,2.2509765625
72.1367626,2.2216796875
72.1371241,2.2119140625
72.1570629,2.2216796875
72.1983692,2.2412109375
72.19883,2.3046875
72.219129,2.40234375
72.2348822,2.5390625
72.2687977,2.65625
72.2889301,2.763671875
72.2985575,2.8271484375
72.3333779,2.8759765625
72.3384988,2.890625
72.3853683,2.8955078125
72.3856503,2.8564453125
72.4005926,2.7734375
72.4169416,2.6904296875
72.4513844,2.6708984375
72.4717495,2.646484375
72.4771833,2.646484375
72.5136728,2.6220703125
72.5403695,2.5927734375
72.5407595,2.568359375
72.5757177,2.529296875
72.5808956,2.4951171875
72.5975486,2.4609375
72.6329826,2.4365234375
72.6378564,2.40234375
72.6711488,2.3681640625
72.6918624,2.3486328125
72.6991736,2.314453125
72.7353286,2.28515625
72.7586299,2.275390625
72.7591928,2.2412109375
72.7765765,2.2216796875
72.8118101,2.2412109375
72.832902,2.2705078125
72.8377749,2.3583984375
72.8720203,2.4560546875
72.8924797,2.5732421875
72.900678,2.6806640625
72.9362722,2.7734375
72.9365187,2.83203125
72.9708725,2.8857421875
72.9934553,2.8955078125
72.9979709,2.8955078125
73.0355463,2.841796875
73.0394754,2.7783203125
73.0749931,2.71484375
73.0961631,2.6611328125
73.0964194,2.607421875
73.1308719,2.587890625
73.1502279,2.55859375
73.1572798,2.51953125
73.1933245,2.48046875
73.2232792,2.44140625
73.2241995,2.40234375
73.2402707,2.373046875
73.2841779,2.34375
73.2844564,2.314453125
73.300317,2.2802734375
73.317217,2.2412109375
73.3541183,2.2265625
73.3777123,2.2216796875
73.3779521,2.216796875
73.414125,2.20703125
73.4377235,2.1923828125
73.4401884,2.2021484375
73.4748871,2.236328125
73.4998853,2.3193359375
73.5001427,2.421875
73.5341532,2.5439453125
73.539048,2.646484375
73.5742594,2.7392578125
73.5789656,2.7880859375
73.6270257,2.8271484375
73.6274132,2.8369140625
73.6560987,2.8271484375
73.6563455,2.7685546875
73.7037762,2.724609375
73.7041546,2.6708984375
73.7261133,2.63671875
73.7398996,2.607421875
73.7820193,2.587890625
73.7823577,2.5537109375
73.8171357,2.51953125
73.8200283,2.4951171875
73.8370927,2.4560546875
73.8725891,2.431640625
73.8942588,2.4072265625
73.8993556,2.3779296875
73.9195633,2.34375
73.9567205,2.314453125
73.9855921,2.28515625
73.9858425,2.2509765625
74.0020188,2.2265625
74.0222096,2.1875
74.0382306,2.1435546875
74.0773324,2.1728515625
74.0972771,2.2021484375
74.0998623,2.2509765625
74.1348341,2.3486328125
74.1560887,2.451171875
74.1605413,2.568359375
74.2022101,2.666015625
74.2024502,2.7490234375
74.2317227,2.802734375
74.2383157,2.841796875
74.273916,2.8515625
74.2949304,2.8515625
74.3011992,2.8125
74.3369757,2.7734375
74.3423486,2.7197265625
74.376773,2.6806640625
74.3771786,2.63671875
74.411812,2.6220703125
74.4339698,2.59765625
74.4381298,2.568359375
74.4721203,2.5341796875
74.4925091,2.490234375
74.5012883,2.4462890625
74.5378478,2.4072265625
74.5420263,2.3828125
74.5585355,2.3486328125
74.5927286,2.3291015625
74.6145898,2.3046875
74.6217352,2.2802734375
74.6399263,2.2509765625
74.683851,2.2314453125
74.6841306,2.2119140625
74.7119785,2.216796875
74.721069,2.236328125
74.7561919,2.2900390625
74.7594325,2.40234375
74.7932011,2.509765625
74.815484,2.6513671875
74.8219889,2.7490234375
74.8567824,2.8271484375
74.862112,2.8759765625
74.896799,2.91015625
74.9301669,2.900390625
74.930507,2.880859375
74.9389527,2.83203125
74.9909027,2.7978515625
74.9913971,2.7490234375
75.0201273,2.71484375
75.0203762,2.6806640625
75.0560626,2.65625
75.0833333,2.626953125
75.0835766,2.5927734375
75.1028536,2.55859375
75.1189846,2.509765625
75.1604073,2.4755859375
75.1607592,2.431640625
75.1807494,2.3974609375
75.2136843,2.3583984375
75.2341119,2.333984375
75.2445406,2.2900390625
75.2849092,2.255859375
75.2851499,2.2265625
75.3001932,2.2314453125
75.334417,2.2265625
75.3552533,2.2314453125
75.3606486,2.2509765625
75.3939482,2.294921875
75.4150348,2.3876953125
75.4237532,2.4951171875
75.4442115,2.6171875
75.4594546,2.7099609375
75.4964608,2.7978515625
75.4997256,2.8466796875
75.5351733,2.8759765625
75.565575,2.8759765625
75.5658884,2.861328125
75.5828666,2.8076171875
75.6286263,2.7587890625
75.6289433,2.7099609375
75.6583696,2.63671875
75.6602623,2.568359375
75.705185,2.5732421875
75.7055743,2.568359375
75.7222954,2.5439453125
75.7562238,2.529296875
75.7610352,2.4951171875
75.7961145,2.4658203125
75.8321785,2.4267578125
75.8325697,2.4072265625
75.8409731,2.373046875
75.8761496,2.353515625
75.8804698,2.3388671875
75.9258155,2.314453125
75.926132,2.2900390625
75.9570479,2.2705078125
75.9640394,2.2412109375
75.9990417,2.2265625
76.019223,2.236328125
76.0216231,2.2705078125
76.055759,2.3583984375
76.0758601,2.4658203125
76.0810091,2.5830078125
76.1276838,2.685546875
76.1280998,2.7783203125
76.1571337,2.83203125
76.1647853,2.8662109375
76.1798073,2.861328125
76.2194246,2.8515625
76.2200065,2.802734375
76.2547284,2.7587890625
76.2744206,2.7099609375
76.2819487,2.6708984375
76.3167905,2.6318359375
76.3430555,2.6318359375
76.3434174,2.6171875
76.3614423,2.587890625
76.396417,2.578125
76.4181001,2.5537109375
76.4227568,2.5244140625
76.4600157,2.490234375
76.4624653,2.4560546875
76.5015895,2.4267578125
76.5019088,2.3974609375
76.5481843,2.3681640625
76.5485703,2.3388671875
76.5782956,2.3095703125
76.5824493,2.3046875
76.617815,2.2900390625
76.6215984,2.2705078125
76.6584836,2.294921875
76.6863863,2.3388671875
76.6866359,2.4365234375
76.7206077,2.5390625
76.7263136,2.666015625
76.742732,2.7490234375
76.7766634,2.83203125
76.7808196,2.8759765625
76.816691,2.9052734375
76.8372979,2.900390625
76.8450066,2.8857421875
76.8887629,2.8369140625
76.889155,2.7880859375
76.9023221,2.7392578125
76.9373262,2.705078125
76.9443102,2.666015625
76.9630915,2.646484375
77.0131159,2.6220703125
77.0133623,2.5830078125
77.0234977,2.5439453125
77.0608239,2.5
77.0826397,2.4609375
77.0830358,2.4169921875
77.1172909,2.392578125
77.1232383,2.3681640625
77.1598178,2.34375
77.163996,2.314453125
77.1979573,2.2900390625
77.2188616,2.255859375
77.2235869,2.2314453125
77.2575728,2.2119140625
77.2661173,2.177734375
77.3087886,2.1923828125
77.3090067,2.2607421875
77.3289622,2.392578125
77.3436747,2.509765625
77.378865,2.6513671875
77.3983257,2.7587890625
77.4036781,2.8369140625
77.4414445,2.8857421875
77.4455028,2.91015625
77.4613388,2.8955078125
77.4957047,2.8759765625
77.5180738,2.822265625
77.5255207,2.7734375
77.561054,2.7294921875
77.5628603,2.7001953125
77.5975514,2.6611328125
77.618823,2.646484375
77.6269737,2.6171875
77.6428354,2.578125
77.6775924,2.5537109375
77.698549,2.5244140625
77.7055041,2.4951171875
77.7252298,2.4560546875
77.7750309,2.4267578125
77.775331,2.392578125
77.7875102,2.36328125
77.8018719,2.333984375
77.8376514,2.3193359375
77.8692477,2.2900390625
77.8696613,2.28515625
77.8854476,2.265625
77.9214469,2.255859375
77.9261732,2.28515625
77.9616634,2.34375
77.9662145,2.4560546875
77.982319,2.5634765625
78.0181426,2.685546875
78.023131,2.7685546875
78.0592261,2.83203125
78.0641772,2.87109375
78.0975541,2.8857421875
78.1179497,2.8662109375
78.1249749,2.83203125
78.1605542,2.7734375
78.180748,2.724609375
78.1809841,2.6806640625
78.2158831,2.646484375
78.2360644,2.6123046875
78.2435977,2.59765625
78.2799702,2.5634765625
78.3117945,2.5341796875
78.3122497,2.5
78.3280936,2.4609375
78.3656054,2.431640625
78.3660433,2.40234375
78.3827534,2.392578125
78.4214215,2.373046875
78.4237697,2.3486328125
78.4677843,2.3291015625
78.4681032,2.2998046875
78.4980038,2.2705078125
78.5062126,2.255859375
78.5220945,2.236328125
78.5564654,2.236328125
78.5758732,2.2998046875
78.5835581,2.3876953125
78.6194233,2.5146484375
78.6398297,2.626953125
78.6452171,2.7392578125
78.678012,2.8125
78.6990557,2.87109375
78.7036887,2.8955078125
78.7233072,2.919921875
78.7632853,2.890625
78.7636721,2.861328125
78.8081323,2.8076171875
78.8086781,2.763671875
78.8282099,2.7294921875
78.8696384,2.7001953125
78.8700295,2.666015625
78.8888171,2.6123046875
78.9243865,2.55859375
78.9249863,2.5390625
78.9594307,2.529296875
78.9796197,2.5048828125
78.9858102,2.48046875
79.0210946,2.451171875
79.0263729,2.4267578125
79.0623191,2.40234375
79.0831246,2.3681640625
79.0834729,2.3388671875
79.1186697,2.314453125
79.1499481,2.2900390625
79.1503671,2.2802734375
79.1673383,2.255859375
79.2032457,2.255859375
79.2056811,2.3193359375
79.2409935,2.412109375
79.2726229,2.5341796875
79.2729096,2.646484375
79.2858893,2.7587890625
79.3067337,2.8271484375
79.3271981,2.8759765625
79.3620826,2.8955078125
79.3670632,2.8955078125
79.4145579,2.8564453125
79.4148118,2.8271484375
79.4448196,2.7783203125
79.4451032,2.7490234375
79.4796235,2.7197265625
79.4839846,2.6953125
79.5197027,2.666015625
79.5545687,2.6513671875
79.5549591,2.6220703125
79.5687496,2.578125
79.6038006,2.5390625
79.6042197,2.4951171875
79.6388791,2.4658203125
79.6591002,2.44140625
79.6652559,2.4169921875
79.7021159,2.3828125
79.7228739,2.3583984375
79.7282035,2.3291015625
79.7626511,2.3046875
79.7675018,2.2802734375
79.8015582,2.2705078125
79.8229028,2.255859375
79.8257799,2.28515625
79.8598316,2.373046875
79.879986,2.4755859375
79.8855359,2.587890625
79.9243016,2.685546875
79.9552555,2.7734375
79.9555989,2.8173828125
79.9704818,2.8466796875
79.9869501,2.8466796875
80.0319397,2.83203125
80.0321785,2.7880859375
80.0475001,2.744140625
80.0951131,2.6904296875
80.0955309,2.65625
80.1077198,2.6220703125
80.1424589,2.5927734375
80.1623919,2.5537109375
80.1644443,2.5439453125
80.2016291,2.51953125
80.2064566,2.4853515625
80.2422062,2.4609375
80.2467067,2.4267578125
80.2953393,2.3974609375
80.2958261,2.36328125
80.3149839,2.3388671875
80.3237343,2.2998046875
80.3589335,2.2802734375
80.3870938,2.255859375
80.387496,2.2314453125
80.4351977,2.216796875
80.4354349,2.2314453125
80.4551052,2.24609375
80.4681307,2.3095703125
80.5134774,2.421875
80.5136854,2.5244140625
80.5309099,2.6171875
80.5453985,2.7197265625
80.5823632,2.822265625
80.6083804,2.8662109375
80.6086757,2.8955078125
80.6534692,2.900390625
80.653711,2.87109375
80.66976,2.822265625
80.7045344,2.7783203125
80.7049813,2.734375
80.7416947,2.7099609375
80.7629898,2.6904296875
80.7675325,2.666015625
80.8087176,2.63671875
80.8089656,2.6123046875
80.8301681,2.5830078125
80.8694249,2.5439453125
80.8696665,2.509765625
80.8858125,2.470703125
80.9333401,2.4462890625
80.9337082,2.421875
80.9643378,2.4072265625
80.9690528,2.3779296875
80.9884004,2.3486328125
81.0261445,2.32421875
81.0559429,2.3046875
81.0562848,2.275390625
81.064962,2.275390625
81.1182668,2.2900390625
81.118613,2.36328125
81.1273043,2.4853515625
81.1617802,2.6025390625
81.1965116,2.724609375
81.1967569,2.8125
81.2100582,2.8857421875
81.2450006,2.9150390625
81.2452466,2.9443359375
81.2814478,2.9443359375
81.3061213,2.9150390625
81.306783,2.8564453125
81.3441446,2.8076171875
81.3495264,2.75390625
81.3991718,2.7197265625
81.399499,2.6806640625
81.4118293,2.6513671875
81.428402,2.6123046875
81.4476067,2.6025390625
81.4847478,2.5830078125
81.487191,2.5439453125
81.5217563,2.509765625
81.5432191,2.470703125
81.550838,2.431640625
81.5870596,2.3876953125
81.5910676,2.353515625
81.6096216,2.32421875
81.6472337,2.3095703125
81.6475037,2.28515625
81.6844799,2.2705078125
81.689705,2.2509765625
81.7413705,2.2509765625
81.7416296,2.275390625
81.7512743,2.3583984375
81.7867273,2.4853515625
81.786969,2.6025390625
81.8084671,2.724609375
81.8430111,2.802734375
81.8642707,2.8759765625
81.8696638,2.9052734375
81.9097154,2.919921875
81.9101241,2.900390625
81.9457357,2.8564453125
81.9460306,2.7978515625
81.9685725,2.7490234375
81.9893209,2.705078125
82.0253099,2.685546875
82.0278298,2.6513671875
82.0617061,2.6220703125
82.0818441,2.587890625
82.0898106,2.5634765625
82.1239359,2.5244140625
82.1449136,2.490234375
82.1517038,2.431640625
82.1683622,2.412109375
82.213123,2.40234375
82.2134627,2.3779296875
82.2432072,2.353515625
82.2506538,2.3291015625
82.2881034,2.3046875
82.2898303,2.2802734375
82.3248504,2.265625
82.3467715,2.24609375
82.3470153,2.2509765625
82.3815541,2.28515625
82.4016685,2.373046875
82.4112593,2.5
82.4311114,2.6220703125
82.4752981,2.734375
82.4756733,2.822265625
82.5095262,2.8955078125
82.5099191,2.9296875
82.5452395,2.9541015625
82.5492862,2.939453125
82.5859751,2.9052734375
82.6154659,2.8564453125
82.615805,2.8125
82.631335,2.763671875
82.6761748,2.7294921875
82.6769359,2.6953125
82.6889638,2.67578125
82.7094502,2.6416015625
82.7459015,2.626953125
82.7500037,2.59765625
82.7855323,2.5537109375
82.8058015,2.51953125
82.8109431,2.48046875
82.8447051,2.44140625
82.8797225,2.4169921875
82.8799635,2.4072265625
82.8899599,2.3828125
82.940791,2.353515625
82.941226,2.32421875
82.9499568,2.3046875
82.9850648,2.28515625
83.0047321,2.2900390625
83.0112163,2.3193359375
83.0456155,2.4072265625
83.0667512,2.5439453125
83.0685958,2.6708984375
83.1054662,2.79296875
83.1097617,2.880859375
83.1579993,2.9541015625
83.1583343,2.9833984375
83.1893867,2.998046875
83.1939053,2.978515625
83.213439,2.9345703125
83.2301861,2.880859375
83.2650382,2.8515625
83.2698615,2.8076171875
83.3045648,2.763671875
83.3252118,2.724609375
83.3320553,2.6904296875
83.375921,2.646484375
83.3761611,2.6123046875
83.3949909,2.5732421875
83.4107879,2.5244140625
83.4453247,2.490234375
83.4507184,2.4560546875
83.4865668,2.4267578125
83.4904407,2.3974609375
83.5311579,2.3779296875
83.5609803,2.3486328125
83.5612238,2.32421875
83.5698558,2.294921875
83.6074674,2.28515625
83.6095516,2.265625
83.6431965,2.2705078125
83.6653233,2.28515625
83.6725068,2.373046875
83.7083889,2.4951171875
83.714048,2.6123046875
83.7325423,2.7294921875
83.7554822,2.8173828125
83.7897562,2.8564453125
83.7900712,2.900390625
83.8259712,2.939453125
83.8450265,2.9296875
83.8513246,2.8955078125
83.8876262,2.841796875
83.9175927,2.7978515625
83.9179975,2.744140625
83.9343326,2.705078125
83.9494156,2.6708984375
83.9857962,2.646484375
84.0105744,2.6123046875
84.0108791,2.5927734375
84.0563979,2.5634765625
84.0567927,2.5146484375
84.0881635,2.4853515625
84.0945849,2.451171875
84.1330334,2.4169921875
84.133285,2.3779296875
84.1492763,2.3583984375
84.1848202,2.333984375
84.205732,2.3046875
84.2132852,2.28515625
84.2530251,2.2705078125
84.2533222,2.255859375
84.2881757,2.255859375
84.2884892,2.2607421875
84.3110003,2.333984375
84.3470639,2.4560546875
84.3522511,2.5732421875
84.3852928,2.7001953125
84.4065232,2.79296875
84.4111346,2.8759765625
84.4454922,2.91015625
84.4677377,2.9345703125
84.4679843,2.9248046875
84.5170027,2.900390625
84.5175081,2.8466796875
84.5313317,2.8173828125
84.5688617,2.7734375
84.5716208,2.75390625
84.6064436,2.7197265625
84.6280321,2.6904296875
84.634865,2.6513671875
84.6714791,2.6220703125
84.6918789,2.5830078125
84.6925164,2.5341796875
84.7266296,2.5048828125
84.7328269,2.470703125
84.7813828,2.4365234375
84.7816659,2.4072265625
84.7930574,2.3828125
84.830847,2.3583984375
84.8334786,2.3291015625
84.8504264,2.2998046875
84.8884908,2.28515625
84.9100248,2.265625
84.9104265,2.2412109375
84.9503361,2.24609375
84.96936,2.2998046875
84.9732693,2.4169921875
85.010272,2.5244140625
85.0426595,2.65625
85.0429649,2.75390625
85.0513621,2.8564453125
85.0869581,2.900390625
85.0913869,2.939453125
85.1275402,2.9345703125
85.1539396,2.9150390625
85.1541669,2.861328125
85.1741924,2.8076171875
85.1905996,2.7490234375
85.2290022,2.7197265625
85.233227,2.6904296875
85.2774263,2.65625
85.2776659,2.6220703125
85.2950731,2.59765625
85.3302622,2.568359375
85.3351156,2.51953125
85.3549616,2.48046875
85.3749279,2.4365234375
85.4094912,2.3583984375
85.4310464,2.333984375
85.4314498,2.314453125
85.4663597,2.294921875
85.4874332,2.2802734375
85.4948718,2.2607421875
85.5427455,2.2412109375
85.5430727,2.216796875
85.5562387,2.2265625
85.5727331,2.2265625
85.6055601,2.28515625
85.6282911,2.3876953125
85.6330404,2.4951171875
85.6722426,2.6220703125
85.6726402,2.724609375
85.7084703,2.8076171875
85.7280013,2.8564453125
85.7355202,2.8955078125
85.7517622,2.9052734375
85.7858292,2.900390625
85.8068643,2.8564453125
85.813353,2.8076171875
85.8472884,2.75390625
85.8683143,2.705078125
85.8731716,2.6708984375
85.9096406,2.63671875
85.9299021,2.5927734375
85.9323856,2.568359375
85.9785358,2.5341796875
85.9788107,2.490234375
85.9938193,2.4560546875
86.029405,2.4169921875
86.0566311,2.3828125
86.0571077,2.34375
86.0762127,2.32421875
86.0920756,2.2900390625
86.1289327,2.2705078125
86.1334606,2.255859375
86.1683963,2.236328125
86.1897494,2.2119140625
86.1960968,2.2216796875
86.2313702,2.2119140625
86.2354697,2.2265625
86.2698935,2.2802734375
86.2902521,2.3583984375
86.2960064,2.4609375
86.3129413,2.55859375
86.3499634,2.6708984375
86.3815717,2.7490234375
86.3823417,2.8125
86.3947691,2.841796875
86.4289571,2.8515625
86.4500934,2.822265625
86.4573992,2.783203125
86.4736339,2.7294921875
86.5180527,2.705078125
86.5184576,2.6806640625
86.5354929,2.65625
86.5558177,2.6220703125
86.5902199,2.6220703125
86.5956713,2.59765625
86.6280515,2.5634765625
86.6494166,2.5341796875
86.6519259,2.5
86.6887586,2.4658203125
86.7216391,2.4267578125
86.7219585,2.40234375
86.7351236,2.3779296875
86.7841213,2.3486328125
86.7844702,2.3193359375
86.8139655,2.2900390625
86.8142124,2.275390625
86.8488003,2.265625
86.8536836,2.255859375
86.8904033,2.2607421875
86.8946469,2.2802734375
86.9330039,2.32421875
86.9332449,2.421875
86.9776895,2.51953125
86.9780052,2.6318359375
86.9974401,2.71484375
87.0311287,2.7490234375
87.0526956,2.79296875
87.0552776,2.8369140625
87.1023923,2.8466796875
87.1027746,2.83203125
87.1167527,2.79296875
87.1524347,2.7587890625
87.1564812,2.7197265625
87.1923607,2.6904296875
87.2254008,2.6611328125
87.225642,2.6513671875
87.2340889,2.626953125
87.2686234,2.5927734375
87.2904726,2.55859375
87.2975589,2.5244140625
87.3336845,2.490234375
87.3367324,2.4560546875
87.371108,2.421875
87.3935492,2.3876953125
87.3941522,2.3681640625
87.4426862,2.353515625
87.4430909,2.3291015625
87.4562554,2.3046875
87.5034086,2.2900390625
87.503651,2.265625
87.5340063,2.2412109375
87.5389192,2.236328125
87.5538025,2.24609375
87.5881789,2.3291015625
87.6084126,2.431640625
87.6150613,2.5634765625
87.6502275,2.6611328125
87.6699173,2.7587890625
87.67684,2.8173828125
87.7107521,2.861328125
87.7325262,2.87109375
87.7356969,2.880859375
87.7724462,2.8466796875
87.7743676,2.8125
87.812114,2.7685546875
87.8168127,2.7294921875
87.8531338,2.6953125
87.8571338,2.67578125
87.8933082,2.646484375
87.9239442,2.607421875
87.9245073,2.578125
87.9359372,2.5390625
87.9852847,2.5146484375
87.9855424,2.48046875
87.9976735,2.4462890625
88.0475958,2.4072265625
88.048011,2.3779296875
88.0579736,2.3583984375
88.0933599,2.3388671875
88.1148948,2.3046875
88.1152883,2.2998046875
88.1522544,2.28515625
88.1563306,2.2705078125
88.2011298,2.265625
88.201379,2.24609375
88.2224878,2.255859375
88.2387717,2.3046875
88.2784272,2.4072265625
88.2788884,2.509765625
88.2939487,2.6220703125
88.3295579,2.7099609375
88.3497424,2.783203125
88.3568319,2.8173828125
88.3911136,2.8466796875
88.4128599,2.841796875
88.4196615,2.8173828125
88.4351664,2.7685546875
88.4839363,2.7294921875
88.4842541,2.6953125
88.5140384,2.67578125
88.5163209,2.6513671875
88.550915,2.6171875
88.5716746,2.5927734375
88.5791598,2.5634765625
88.6123162,2.5341796875
88.6330014,2.5
88.6388913,2.4755859375
88.6564296,2.4462890625
88.6907683,2.4169921875
88.7115261,2.392578125
88.7186625,2.36328125
88.7534998,2.34375
88.7593689,2.32421875
88.7931997,2.2998046875
88.8143006,2.2802734375
88.8191856,2.2705078125
88.8358064,2.2412109375
88.8755564,2.236328125
88.875967,2.255859375
88.9129878,2.314453125
88.9349978,2.3974609375
88.9396961,2.509765625
88.9753589,2.6123046875
88.9800995,2.7099609375
88.9973249,2.7685546875
89.0174891,2.8271484375
89.0585235,2.8564453125
89.0587834,2.861328125
89.1051139,2.8369140625
89.1055009,2.7978515625
89.1181679,2.75390625
89.1536684,2.7294921875
89.1753108,2.7099609375
89.1758491,2.6708984375
89.2162795,2.65625
89.2457158,2.6318359375
89.246008,2.6025390625
89.2594534,2.5634765625
89.2937946,2.5341796875
89.2985971,2.4951171875
89.3392478,2.4609375
89.3394878,2.4169921875
89.3719808,2.3876953125
89.3763078,2.36328125
89.4122897,2.3486328125
89.4462675,2.32421875
89.4467282,2.3046875
89.4592716,2.294921875
89.510001,2.2705078125
89.5103872,2.255859375
89.521525,2.2265625
89.5565525,2.2314453125
89.5567987,2.2607421875
89.5936321,2.353515625
89.5979286,2.4658203125
89.6356621,2.59765625
89.6402293,2.685546875
89.6595611,2.7734375
89.6945301,2.8271484375
89.7158438,2.8662109375
89.716193,2.87109375
89.7371836,2.87109375
89.7750436,2.83203125
89.7798066,2.802734375
89.7990871,2.7587890625
89.8353255,2.7197265625
89.8409452,2.6904296875
89.8825482,2.6611328125
89.8828652,2.6220703125
89.8973175,2.5830078125
89.9313952,2.55859375
89.9525247,2.529296875
89.9571186,2.5
89.9929877,2.4658203125
90.0149334,2.421875
90.0193219,2.3779296875
90.0544988,2.3486328125
90.0827042,2.3291015625
90.0830932,2.3291015625
90.0982762,2.333984375
90.1331844,2.3095703125
90.1540919,2.28515625
90.1587873,2.2509765625
90.1918268,2.2412109375
90.2134427,2.236328125
90.2223919,2.265625
90.2583286,2.3193359375
90.2635214,2.4267578125
90.2796913,2.5146484375
90.3148467,2.6171875
90.3190076,2.6904296875
90.3556764,2.75390625
90.3583552,2.7880859375
90.3948594,2.8076171875
90.4265522,2.79296875
90.4267888,2.7685546875
90.4429314,2.7197265625
90.4585381,2.67578125
90.4948685,2.65625
90.4991173,2.63671875
90.535997,2.6171875
90.5399162,2.59765625
90.5750139,2.5732421875
90.594768,2.5439453125
90.6029111,2.5146484375
90.6192471,2.470703125
90.6556022,2.451171875
90.658383,2.421875
90.6929302,2.4072265625
90.7136587,2.3974609375
90.721263,2.3779296875
90.7681372,2.36328125
90.7683751,2.333984375
90.7825205,2.314453125
90.7966544,2.28515625
90.8457979,2.2900390625
90.8460345,2.2705078125
90.8673711,2.2607421875
90.8803887,2.265625
90.9154112,2.3291015625
90.9366897,2.412109375
90.942977,2.5341796875
90.9578183,2.626953125
90.992167,2.724609375
91.0133827,2.7783203125
91.0198064,2.8125
91.0548295,2.8271484375
91.0606612,2.8271484375
91.0815441,2.802734375
91.1265759,2.7587890625
91.1269422,2.71484375
91.142657,2.67578125
91.187176,2.63671875
91.1874192,2.607421875
91.2078147,2.5927734375
91.2200929,2.568359375
91.2550802,2.548828125
91.2762475,2.5244140625
91.2811288,2.490234375
91.3160751,2.4609375
91.3372878,2.431640625
91.3391059,2.392578125
91.3749899,2.3779296875
91.3955496,2.36328125
91.3998745,2.3388671875
91.4371855,2.314453125
91.4420063,2.2900390625
91.4777385,2.2802734375
91.481964,2.255859375
91.5160155,2.24609375
91.5448167,2.2314453125
91.5452729,2.255859375
91.5598569,2.3046875
91.6069689,2.40234375
91.607357,2.5
91.6283223,2.59765625
91.6420094,2.67578125
91.6811803,2.7392578125
91.6815996,2.7783203125
91.6995159,2.83203125
91.7466037,2.8515625
91.7468639,2.83203125
91.7622641,2.802734375
91.8080707,2.7587890625
91.8084858,2.724609375
91.821609,2.6904296875
91.8589702,2.6611328125
91.8635291,2.626953125
91.8971747,2.607421875
91.9178425,2.5732421875
91.9207496,2.5439453125
91.9563686,2.5
91.961288,2.4609375
91.9986336,2.4169921875
92.0010041,2.3876953125
92.0406289,2.36328125
92.0410874,2.3291015625
92.0769925,2.3095703125
92.0970694,2.275390625
92.0988327,2.265625
92.1348925,2.2412109375
92.1571543,2.2216796875
92.1623371,2.216796875
92.2049793,2.216796875
92.205228,2.2216796875
92.2414054,2.265625
92.2418743,2.3291015625
92.2616585,2.431640625
92.299798,2.51953125
92.3000707,2.6171875
92.3462924,2.6806640625
92.346534,2.734375
92.3627099,2.7685546875
92.3964876,2.7685546875
92.4172104,2.7587890625
92.4196787,2.724609375
92.4536386,2.6953125
92.4738176,2.666015625
92.4814295,2.63671875
92.5025447,2.6123046875
92.5463866,2.6025390625
92.5467786,2.578125
92.5806932,2.548828125
92.58101,2.5146484375
92.6231229,2.5
92.6235122,2.470703125
92.6444228,2.44140625
92.661361,2.421875
92.7012336,2.392578125
92.7016724,2.3828125
92.7217673,2.373046875
92.7648086,2.3779296875
92.7651249,2.3583984375
92.7841713,2.353515625
92.8018115,2.3388671875
92.8358857,2.333984375
92.8559929,2.32421875
92.8610265,2.3388671875
92.8965369,2.36328125
92.9170434,2.4365234375
92.924911,2.509765625
92.9454477,2.6025390625
92.96075,2.6611328125
92.9975869,2.7490234375
93.0019227,2.8076171875
93.0377199,2.8369140625
93.0429795,2.8564453125
93.0783771,2.841796875
93.082971,2.8076171875
93.1189662,2.7685546875
93.1390015,2.7294921875
93.1393795,2.6953125
93.1734832,2.67578125
93.1954497,2.65625
93.2035399,2.6318359375
93.2383314,2.6025390625
93.2440111,2.587890625
93.2801827,2.55859375
93.2846022,2.529296875
93.3193116,2.5
93.3390683,2.4560546875
93.3413826,2.4267578125
93.3761819,2.3974609375
93.3968203,2.3828125
93.4015693,2.353515625
93.4344711,2.3291015625
93.4549451,2.294921875
93.4629643,2.2802734375
93.4997054,2.255859375
93.5211758,2.2509765625
93.5216176,2.24609375
93.560082,2.294921875
93.5603196,2.36328125
93.6067349,2.4609375
93.6071412,2.548828125
93.6388466,2.646484375
93.6449594,2.724609375
93.6848438,2.7685546875
93.685081,2.8076171875
93.705401,2.8173828125
93.7237429,2.822265625
93.7600402,2.7880859375
93.7630944,2.75390625
93.809618,2.7197265625
93.8098663,2.6953125
93.8249764,2.6708984375
93.8604025,2.6513671875
93.8606705,2.6220703125
93.8814472,2.6123046875
93.9194253,2.5830078125
93.9217691,2.55859375
93.9582291,2.529296875
93.9808312,2.4951171875
93.9862978,2.4609375
94.0214399,2.4267578125
94.0281975,2.3974609375
94.0439296,2.3681640625
94.0792835,2.353515625
94.0817924,2.3388671875
94.1177057,2.314453125
94.1388152,2.2900390625
94.142875,2.275390625
94.1646464,2.2509765625
94.2006687,2.24609375
94.2010718,2.275390625
94.2353133,2.353515625
94.2562486,2.451171875
94.2642655,2.5537109375
94.3092101,2.6416015625
94.3095586,2.705078125
94.3245599,2.75390625
94.3709841,2.7734375
94.3713783,2.79296875
94.4006202,2.7783203125
94.4068195,2.7490234375
94.423013,2.705078125
94.4571943,2.6806640625
94.4778672,2.65625
94.486072,2.626953125
94.5259728,2.5927734375
94.5267871,2.578125
94.5437215,2.5439453125
94.5796023,2.51953125
94.6008649,2.4951171875
94.6032925,2.451171875
94.6387892,2.4169921875
94.6629831,2.392578125
94.665856,2.3681640625
94.7097499,2.3388671875
94.7101299,2.314453125
94.725234,2.2900390625
94.7712902,2.2705078125
94.7716876,2.24609375
94.8016119,2.255859375
94.8041307,2.2412109375
94.8503092,2.2314453125
94.8506392,2.2265625
94.8657367,2.2607421875
94.9104353,2.314453125
94.910674,2.412109375
94.9304437,2.4951171875
94.9419911,2.5537109375
94.9772439,2.626953125
94.9962041,2.67578125
95.0042775,2.705078125
95.0418006,2.724609375
95.0443052,2.7294921875
95.080334,2.7099609375
95.101043,2.67578125
95.106655,2.646484375
95.1441971,2.6171875
95.1446066,2.5927734375
95.1906736,2.587890625
95.190947,2.5732421875
95.203411,2.548828125
95.2388168,2.5341796875
95.2683946,2.5
95.2688465,2.470703125
95.2869228,2.431640625
95.3213743,2.4169921875
95.3420528,2.3876953125
95.3442656,2.3876953125
95.3808018,2.3681640625
95.384224,2.3583984375
95.4258457,2.333984375
95.4261117,2.333984375
95.4617857,2.3193359375
95.4673493,2.3046875
95.4839372,2.28515625
95.5178568,2.3046875
95.5378075,2.3388671875
95.5456904,2.4169921875
95.5817147,2.4951171875
95.5864294,2.55859375
95.6226401,2.6220703125
95.6253067,2.67578125
95.6604476,2.71484375
95.6803368,2.7392578125
95.6850158,2.763671875
95.7216455,2.763671875
95.725001,2.7392578125
95.7621151,2.7099609375
95.7973196,2.685546875
95.7975957,2.6611328125
95.8080351,2.646484375
95.8234795,2.6171875
95.873228,2.607421875
95.8734658,2.5537109375
95.8859566,2.48046875
95.9210954,2.4853515625
95.9268428,2.4658203125
95.9623314,2.4560546875
95.9834431,2.431640625
95.9880599,2.40234375
96.0292251,2.3779296875
96.0296169,2.36328125
96.0459055,2.3388671875
96.0914764,2.3388671875
96.0918385,2.32421875
96.1063615,2.3095703125
96.1427147,2.28515625
96.1471849,2.2802734375
96.1837461,2.2900390625
96.1885124,2.3486328125
96.2251344,2.4365234375
96.2255943,2.5146484375
96.2609655,2.6123046875
96.2653982,2.666015625
96.3009027,2.7197265625
96.3228779,2.75390625
96.327403,2.7880859375
96.3632982,2.7880859375
96.3686557,2.7734375
96.3843762,2.7392578125
96.4309933,2.705078125
96.4313338,2.67578125
96.4468988,2.666015625
96.4924375,2.63671875
96.4928065,2.6123046875
96.508717,2.5927734375
96.5435078,2.55859375
96.5477532,2.5244140625
96.5817493,2.4951171875
96.5863725,2.48046875
96.6207016,2.451171875
96.6270443,2.431640625
96.6645476,2.40234375
96.6672585,2.3779296875
96.7057575,2.3583984375
96.7060752,2.34375
96.7430716,2.3193359375
96.7646675,2.2998046875
96.7650698,2.275390625
96.8064349,2.275390625
96.8066763,2.265625
96.8357433,2.3193359375
96.8475807,2.3876953125
96.8969759,2.4658203125
96.8973662,2.5537109375
96.9176659,2.63671875
96.9296539,2.7001953125
96.9467177,2.7392578125
96.9906251,2.783203125
96.9910219,2.7978515625
97.008654,2.7880859375
97.0448621,2.763671875
97.0494741,2.7294921875
97.1005839,2.6953125
97.1008861,2.6904296875
97.1068279,2.6708984375
97.1458544,2.6611328125
97.1461008,2.6513671875
97.1930281,2.6220703125
97.193348,2.59765625
97.2132852,2.5732421875
97.2269106,2.5537109375
97.2627939,2.51953125
97.2839845,2.490234375
97.2869229,2.4658203125
97.3226129,2.4462890625
97.3256293,2.4267578125
97.3596046,2.4169921875
97.3806109,2.40234375
97.3900114,2.3876953125
97.438126,2.3779296875
97.4385329,2.36328125
97.4471301,2.34375
97.4851096,2.3681640625
97.4918555,2.4267578125
97.5081648,2.4462890625
97.5453802,2.548828125
97.5504157,2.626953125
97.5685328,2.705078125
97.6040655,2.7490234375
97.6085919,2.79296875
97.6435538,2.8125
97.6636767,2.8173828125
97.6660204,2.79296875
97.7010497,2.7685546875
97.721883,2.7392578125
97.7270302,2.71484375
97.7678465,2.6904296875
97.7967876,2.6708984375
97.7970255,2.65625
97.8092947,2.6220703125
97.8428185,2.6025390625
97.8631095,2.5830078125
97.8658354,2.587890625
97.900474,2.5634765625
97.919862,2.5390625
97.9293012,2.5048828125
97.964959,2.4853515625
97.969941,2.4560546875
97.9896794,2.44140625
98.0079296,2.4072265625
98.0472583,2.392578125
98.0475744,2.3779296875
98.0829082,2.36328125
98.1049431,2.333984375
98.1096434,2.3486328125
98.1466411,2.392578125
98.1491971,2.4560546875
98.1847873,2.5439453125
98.2060136,2.6220703125
98.2064234,2.6953125
98.2484892,2.7587890625
98.2488074,2.8125
98.2693301,2.83203125
98.3042854,2.8369140625
98.3246236,2.8271484375
98.3291926,2.7978515625
98.3629332,2.7490234375
98.383514,2.7197265625
98.3860714,2.685546875
98.4234071,2.666015625
98.4435033,2.65625
98.4483542,2.6220703125
98.4846323,2.587890625
98.4894504,2.5634765625
98.5250728,2.5439453125
98.5299774,2.5048828125
98.5770216,2.4755859375
98.5777071,2.44140625
98.5876347,2.421875
98.6231636,2.392578125
98.6539868,2.3779296875
98.654226,2.34375
98.6708741,2.3193359375
98.71556,2.2900390625
98.7157985,2.275390625
98.728321,2.24609375
98.7773085,2.2705078125
98.7775443,2.314453125
98.7886873,2.3779296875
98.8246252,2.470703125
98.8549351,2.55859375
98.855337,2.6416015625
98.8697449,2.7001953125
98.9030025,2.744140625
98.9252757,2.7734375
98.9257045,2.7978515625
98.965634,2.7880859375
98.99528,2.7734375
98.9955333,2.7490234375
99.0106221,2.7294921875
99.0460819,2.7001953125
99.0524373,2.6806640625
99.0709253,2.6611328125
99.0926966,2.626953125
99.1123817,2.5634765625
99.1298677,2.5048828125
99.1505722,2.509765625
99.1836873,2.4951171875
99.190669,2.4755859375
99.2272641,2.44140625
99.2579779,2.421875
99.2582643,2.40234375
99.2721028,2.3876953125
99.2886138,2.36328125
99.3214402,2.353515625
99.3425899,2.3388671875
99.3496755,2.3388671875
99.3965063,2.3388671875
99.3967582,2.353515625
99.4103898,2.392578125
99.4449794,2.451171875
99.4659973,2.5390625
99.4679439,2.6171875
99.5018607,2.6904296875
99.5222582,2.7490234375
99.5298375,2.79296875
99.5689129,2.8125
99.5881322,2.8125
99.595533,2.7880859375
99.6127456,2.7587890625
99.6284875,2.7197265625
99.6658871,2.705078125
99.6705769,2.6806640625
99.7105627,2.6611328125
99.7108054,2.646484375
99.7447393,2.6123046875
99.7715191,2.5830078125
99.771822,2.55859375
99.8189705,2.5390625
99.8192434,2.509765625
99.8498731,2.4951171875
99.8502237,2.4755859375
99.8834799,2.4560546875
99.9043714,2.4267578125
99.9122158,2.4169921875
99.9466846,2.392578125
99.9514353,2.3681640625
99.9855907,2.34375
100.0056307,2.32421875
100.0083403,2.2998046875
100.0449113,2.3193359375
100.0686508,2.3828125
100.0690444,2.4609375
100.113837,2.568359375
100.1142375,2.65625
100.1348921,2.7392578125
100.1538056,2.7978515625
100.1879917,2.8466796875
100.1882387,2.861328125
100.2230764,2.8857421875
100.2440399,2.87109375
100.2504577,2.8369140625
100.2883043,2.79296875
100.2927685,2.763671875
100.326647,2.724609375
100.335036,2.6953125
100.3539711,2.6806640625
100.3699802,2.6513671875
100.4110574,2.626953125
100.4113173,2.5927734375
100.4459811,2.5634765625
100.4657999,2.5244140625
100.4732382,2.4951171875
100.5076501,2.4560546875
100.5120713,2.4267578125
100.5292544,2.3876953125
100.567279,2.3828125
100.587977,2.3583984375
100.5901986,2.34375
100.6282014,2.3193359375
100.6305951,2.3095703125
100.6694913,2.2900390625
100.6750461,2.314453125
100.694087,2.373046875
100.7150656,2.4462890625
100.7339597,2.509765625
100.7522305,2.568359375
100.7989689,2.6708984375
100.799221,2.7392578125
100.8119017,2.802734375
100.8613828,2.8271484375
100.8617005,2.8369140625
100.8747961,2.8173828125
100.9089975,2.783203125
100.9092494,2.7490234375
100.9425116,2.7587890625
100.9622904,2.75390625
100.9716764,2.7392578125
101.0061374,2.7197265625
101.0261065,2.685546875
101.033079,2.666015625
101.0680469,2.63671875
101.0900123,2.6171875
101.0904506,2.578125
101.1257286,2.5634765625
101.1453609,2.529296875
101.1536184,2.5
101.172422,2.4609375
101.2214953,2.44140625
101.2217429,2.4072265625
101.2530073,2.3876953125
101.2534027,2.3583984375
101.2716931,2.353515625
