fs,t,y
52.25664375529999,0.35268789999999983,1.3037109375
,0.3963063,1.298828125
,0.39669160000000003,1.30859375
,0.4141267000000002,1.337890625
,0.4338967,1.4013671875
,0.4734889999999998,1.494140625
,0.47380239999999985,1.5869140625
,0.4934512,1.6943359375
,0.5111591999999998,1.7724609375
,0.5472031999999998,1.8701171875
,0.5531375000000001,1.962890625
,0.5979242,2.0263671875
,0.5981608999999999,2.08984375
,0.6133763000000001,2.1435546875
,0.6527566999999999,2.1875
,0.6531498,2.1923828125
,0.6903402999999999,2.1826171875
,0.7228221000000001,2.158203125
,0.7230610999999998,2.1435546875
,0.7320763000000001,2.119140625
,0.7685159000000001,2.1044921875
,0.7887631000000002,2.0751953125
,0.7943655000000001,2.05078125
,0.8460778000000002,2.01171875
,0.8463261000000002,1.9677734375
,0.8517762000000002,1.9189453125
,0.8926523,1.8994140625
,0.8928902999999999,1.8701171875
,0.9285497999999999,1.826171875
,0.9338378,1.7919921875
,0.9545815000000002,1.7529296875
,1.0022579,1.7138671875
,1.0028895000000002,1.6748046875
,1.0143423999999999,1.6455078125
,1.0360413,1.6015625
,1.0567525,1.5283203125
,1.0722491,1.4697265625
,1.1067849,1.4794921875
,1.1262048999999998,1.474609375
,1.1331965,1.474609375
,1.1699098,1.4501953125
,1.1768524,1.4306640625
,1.1958332,1.4111328125
,1.2305269,1.3818359375
,1.2357068,1.3623046875
,1.2516547,1.3525390625
,1.2856008,1.4013671875
,1.3072727,1.46484375
,1.3147183,1.5625
,1.3496868000000002,1.6552734375
,1.3544277999999998,1.7529296875
,1.3924165,1.8359375
,1.4139539,1.9287109375
,1.4144017,2.001953125
,1.4482352,2.08984375
,1.4533223999999998,2.1533203125
,1.5032448,2.20703125
,1.5035650999999999,2.216796875
,1.516225,2.2216796875
,1.5350232,2.197265625
,1.5818661,2.158203125
,1.5822194,2.1240234375
,1.5933568999999999,2.08984375
,1.6442850999999998,2.0703125
,1.6446029000000002,2.041015625
,1.6544735,2.0263671875
,1.7062626,1.9921875
,1.706652,1.953125
,1.7151179,1.904296875
,1.7661737999999998,1.8603515625
,1.7664745000000002,1.81640625
,1.7722380000000002,1.787109375
,1.8133827999999999,1.748046875
,1.8137686999999998,1.7138671875
,1.8616195000000002,1.6845703125
,1.8619617000000002,1.650390625
,1.8912897000000002,1.62109375
,1.8975130999999998,1.58203125
,1.9386625,1.5576171875
,1.9388709999999998,1.5234375
,1.9565288,1.4990234375
,1.9739984000000002,1.46484375
,2.0117272,1.4501953125
,2.0127463,1.4208984375
,2.050155,1.416015625
,2.0557333,1.3916015625
,2.0932698,1.3916015625
,2.0960527000000004,1.40625
,2.1307742999999997,1.455078125
,2.1509932999999997,1.5185546875
,2.1533983,1.6357421875
,2.1888262999999997,1.7431640625
,2.1946703000000003,1.8212890625
,2.2156865000000003,1.904296875
,2.2653863000000003,1.97265625
,2.2657777,2.0361328125
,2.2769008,2.08984375
,2.3280364000000002,2.1337890625
,2.3283522000000003,2.1484375
,2.3351318,2.1533203125
,2.3540266,2.138671875
,2.3887923000000004,2.1142578125
,2.4097524999999997,2.0849609375
,2.4174347000000003,2.0703125
,2.4685740999999997,2.041015625
,2.4689316999999997,2.01171875
,2.4778601,1.982421875
,2.4938687,1.9384765625
,2.5288971,1.9091796875
,2.5332345,1.8701171875
,2.5699004,1.8408203125
,2.5930638000000004,1.7919921875
,2.5976374,1.7626953125
,2.6167365,1.71875
,2.6375903999999997,1.6845703125
,2.65278,1.6552734375
,2.7026888,1.6552734375
,2.7029278999999997,1.640625
,2.7330701,1.630859375
,2.7333100000000004,1.611328125
,2.7675489000000004,1.591796875
,2.7887994000000003,1.5625
,2.7942269,1.54296875
,2.8310193000000003,1.5185546875
,2.8514597000000004,1.4892578125
,2.8575065000000004,1.4697265625
,2.8757848,1.4404296875
,2.9111491999999997,1.4306640625
,2.915319,1.4306640625
,2.9525365,1.46484375
,2.9579084,1.5185546875
,2.9968138,1.6064453125
,2.9970627,1.6943359375
,3.0324567,1.796875
,3.0611046999999996,1.8798828125
,3.0614982,1.982421875
,3.0753351999999996,2.060546875
,3.1114333,2.1435546875
,3.1165963000000003,2.216796875
,3.15182,2.2607421875
,3.1572753999999996,2.294921875
,3.1938651,2.2998046875
,3.2003423,2.294921875
,3.2141897000000004,2.265625
,3.2487215999999997,2.2509765625
,3.2693589999999997,2.2216796875
,3.2774767999999996,2.2021484375
,3.3109373,2.16796875
,3.3160836,2.138671875
,3.3525188999999997,2.0947265625
,3.3580666,2.05078125
,3.3737741000000003,2.0068359375
,3.4087664999999996,1.97265625
,3.4160443000000003,1.93359375
,3.4624299,1.904296875
,3.4628178,1.8701171875
,3.4760957,1.8310546875
,3.5247117,1.7919921875
,3.525113,1.7529296875
,3.5380984,1.71875
,3.5591305999999996,1.6796875
,3.5786920999999996,1.6162109375
,3.5957803000000004,1.5576171875
,3.6299834000000004,1.5625
,3.6515497999999997,1.5478515625
,3.6581406999999997,1.5283203125
,3.6944100000000004,1.4990234375
,3.694974,1.484375
,3.7443536,1.455078125
,3.7447432000000003,1.4306640625
,3.7741295,1.416015625
,3.7743751999999997,1.40625
,3.8099467000000002,1.4453125
,3.8300888000000004,1.50390625
,3.8371354,1.5966796875
,3.8735361,1.6845703125
,3.8767560000000003,1.7822265625
,3.9113170000000004,1.865234375
,3.9309288000000002,1.9482421875
,3.934183,2.0166015625
,3.955412,2.0947265625
,3.9913207,2.158203125
,4.0119212,2.20703125
,4.016627,2.2216796875
,4.0524761,2.2216796875
,4.0738562,2.1923828125
,4.0784239,2.1630859375
,4.115884,2.12890625
,4.1161576,2.0947265625
,4.1374082,2.0849609375
,4.1572247,2.05078125
,4.1947059,2.021484375
,4.1949472,1.9873046875
,4.2419089,1.953125
,4.2421507,1.9140625
,4.2727019,1.875
,4.2730914,1.8310546875
,4.3088668,1.796875
,4.3292822,1.7578125
,4.3365842,1.728515625
,4.3571021,1.6943359375
,4.395076,1.66015625
,4.3990668,1.6357421875
,4.4193754,1.6015625
,4.4592074,1.572265625
,4.4595056,1.54296875
,4.4946749,1.5185546875
,4.4949701,1.4892578125
,4.5297578,1.474609375
,4.5512013,1.4501953125
,4.5592517,1.4306640625
,4.5973529,1.4013671875
,4.5975911,1.38671875
,4.6447866,1.3818359375
,4.6450452,1.4208984375
,4.6648357,1.484375
,4.67786,1.5869140625
,4.7141147,1.6748046875
,4.7196591,1.796875
,4.7380557,1.8896484375
,4.7770799,1.962890625
,4.777326,2.0361328125
,4.7983459,2.08984375
,4.8404711,2.1337890625
,4.8408604,2.1533203125
,4.8603104,2.1728515625
,4.8770969,2.1630859375
,4.8975986,2.1435546875
,4.9333145,2.119140625
,4.9540627,2.08984375
,4.9590817,2.0654296875
,4.9955901,2.041015625
,4.9958352,2.0068359375
,5.0331493,1.9775390625
,5.0355661,1.9580078125
,5.0731386,1.9140625
,5.094247,1.875
,5.0979702,1.8310546875
,5.1325613,1.796875
,5.1524318,1.7529296875
,5.1590337,1.7236328125
,5.1778576,1.6845703125
,5.2268049,1.669921875
,5.2270117,1.640625
,5.2373365,1.630859375
,5.2898767,1.5966796875
,5.2900794,1.5771484375
,5.29843,1.5576171875
,5.3354176,1.5380859375
,5.3395205,1.5087890625
,5.3844109,1.4892578125
,5.3847957,1.4599609375
,5.4153661,1.42578125
,5.4157551,1.40625
,5.4535327,1.38671875
,5.4739584,1.376953125
,5.4791121,1.3818359375
,5.5249576,1.42578125
,5.5253447,1.4990234375
,5.5398046,1.5966796875
,5.5580291,1.6845703125
,5.602776,1.796875
,5.603234,1.8896484375
,5.6174536,1.9873046875
,5.6535306,2.0556640625
,5.674615,2.1337890625
,5.6795613,2.197265625
,5.7285866,2.2314453125
,5.7289524,2.255859375
,5.7381906,2.2509765625
,5.7751986,2.2509765625
,5.7779207,2.2265625
,5.8218029,2.2021484375
,5.822153,2.16796875
,5.8396822,2.1435546875
,5.8834009,2.1044921875
,5.8838,2.0703125
,5.904638,2.0263671875
,5.9195479,1.9921875
,5.938177,1.953125
,5.9747669,1.9091796875
,5.9791428,1.865234375
,6.01524,1.8310546875
,6.020394899999999,1.7919921875
,6.055113199999999,1.748046875
,6.0608801,1.7138671875
,6.076567000000001,1.6748046875
,6.1197953,1.66015625
,6.120186500000001,1.630859375
,6.165990300000001,1.611328125
,6.166426400000001,1.58203125
,6.1799032,1.5478515625
,6.217444199999999,1.5185546875
,6.2220628,1.484375
,6.2584789,1.4453125
,6.260248799999999,1.42578125
,6.2762636,1.396484375
,6.321054999999999,1.38671875
,6.321293000000001,1.38671875
,6.3524739,1.4013671875
,6.3594074,1.4501953125
,6.3947916,1.533203125
,6.4141756,1.630859375
,6.4224716,1.7431640625
,6.4570227,1.8701171875
,6.4574122,1.93359375
,6.4919121,2.0166015625
,6.514181600000001,2.0654296875
,6.5202536,2.109375
,6.5685222,2.138671875
,6.5689174999999995,2.1533203125
,6.5822766999999995,2.1435546875
,6.6302184,2.119140625
,6.630605900000001,2.080078125
,6.6395383,2.0703125
,6.675852000000001,2.05078125
,6.6804203,2.0263671875
,6.7224691,1.9921875
,6.7227145,1.9580078125
,6.739681300000001,1.923828125
,6.7753078,1.8896484375
,6.796261100000001,1.8603515625
,6.7993915000000005,1.826171875
,6.8339374,1.806640625
,6.8395311,1.767578125
,6.858364099999999,1.7333984375
,6.8953883000000005,1.6943359375
,6.925717799999999,1.669921875
,6.926034100000001,1.6357421875
,6.9411442999999995,1.6015625
,6.975517699999999,1.58203125
,6.9962154000000005,1.552734375
,7.0026584,1.484375
,7.0203264999999995,1.4208984375
,7.0560993,1.4404296875
,7.059124199999999,1.4306640625
,7.081042,1.416015625
,7.117006399999999,1.38671875
,7.121383399999999,1.376953125
,7.1580025,1.357421875
,7.162852300000001,1.3623046875
,7.179869999999999,1.38671875
,7.2203593,1.4697265625
,7.2207512000000005,1.5625
,7.2657738,1.6650390625
,7.2661531,1.7529296875
,7.2816966,1.8603515625
,7.3187768,1.9482421875
,7.324083099999999,2.01171875
,7.374731000000001,2.080078125
,7.3751207999999995,2.12890625
,7.3785878,2.1875
,7.4208079,2.197265625
,7.4211747,2.197265625
,7.441220899999999,2.1826171875
,7.484384199999999,2.158203125
,7.4848208,2.1240234375
,7.503464900000001,2.08984375
,7.5193452999999995,2.060546875
,7.557238399999999,2.05078125
,7.5575399,2.0166015625
,7.607487900000001,1.982421875
,7.607740700000001,1.9482421875
,7.6271699,1.9091796875
,7.641489999999999,1.865234375
,7.686302899999999,1.81640625
,7.6865422,1.7822265625
,7.6992928,1.748046875
,7.7476310999999995,1.71875
,7.7479645999999995,1.6845703125
,7.7588407,1.6552734375
,7.7937593,1.6357421875
,7.813266499999999,1.6162109375
,7.823097300000001,1.5869140625
,7.8565918,1.5625
,7.8768028,1.6064453125
,7.8818383999999995,1.5185546875
,7.9012101999999995,1.494140625
,7.9374158,1.474609375
,7.9430496999999995,1.4306640625
,7.9620821,1.4111328125
,8.0025751,1.38671875
,8.0029649,1.3671875
,8.0486737,1.376953125
,8.0490664,1.4453125
,8.063723,1.5380859375
,8.0785855,1.6259765625
,8.1161474,1.748046875
,8.121471,1.8359375
,8.1574459,1.923828125
,8.1634284,1.9873046875
,8.1836653,2.0654296875
,8.2195989,2.109375
,8.2213974,2.1630859375
,8.2579337,2.1826171875
,8.2785376,2.1826171875
,8.280683,2.1728515625
,8.3152679,2.1484375
,8.3365521,2.12890625
,8.3419925,2.1044921875
,8.3896091,2.0703125
,8.3898711,2.03125
,8.4026296,1.9970703125
,8.4200298,1.9580078125
,8.4681093,1.93359375
,8.4683477,1.8896484375
,8.4882463,1.85546875
,8.5003563,1.81640625
,8.5360644,1.7724609375
,8.5564015,1.728515625
,8.5634941,1.6943359375
,8.5991103,1.669921875
,8.5993583,1.630859375
,8.6353215,1.6162109375
,8.6562111,1.591796875
,8.6613247,1.572265625
,8.6822203,1.5380859375
,8.7189766,1.513671875
,8.7235372,1.4794921875
,8.7602405,1.455078125
,8.7628868,1.416015625
,8.7998903,1.38671875
,8.8002817,1.3623046875
,8.82137,1.3818359375
,8.8593958,1.3916015625
,8.8628572,1.435546875
,8.9077228,1.513671875
,8.9080692,1.6015625
,8.9243045,1.689453125
,8.9690071,1.77734375
,8.9692837,1.85546875
,8.9829937,1.9189453125
,9.0322217,1.9970703125
,9.032625,2.0556640625
,9.0424236,2.0947265625
,9.0622155,2.119140625
,9.1107998,2.1240234375
,9.1110444,2.099609375
,9.1321176,2.080078125
,9.1432412,2.0556640625
,9.1784441,2.0361328125
,9.1817742,2.01171875
,9.2206198,1.9921875
,9.2225799,1.9677734375
,9.2557686,1.9287109375
,9.2765749,1.89453125
,9.283853,1.8505859375
,9.3301751,1.8115234375
,9.3304107,1.7724609375
,9.3427247,1.748046875
,9.3919822,1.7138671875
,9.3923785,1.689453125
,9.4033541,1.6552734375
,9.454155,1.6259765625
,9.4545901,1.5966796875
,9.4654768,1.58203125
,9.4805173,1.552734375
,9.5167254,1.5380859375
,9.5364431,1.4990234375
,9.5429678,1.4501953125
,9.5626833,1.4453125
,9.5974916,1.4208984375
,9.6041212,1.3916015625
,9.6554658,1.396484375
,9.6557085,1.3818359375
,9.665714,1.3720703125
,9.7188024,1.3623046875
,9.7192027,1.4599609375
,9.7239637,1.5625
,9.7427093,1.650390625
,9.7782716,1.73828125
,9.7835765,1.8359375
,9.819666,1.923828125
,9.8248328,1.9873046875
,9.8727633,2.05078125
,9.8730954,2.1435546875
,9.8936894,2.1875
,9.903888,2.2216796875
,9.9502431,2.2119140625
,9.9506418,2.20703125
,9.9642733,2.1826171875
,9.9997191,2.1533203125
,10.0051461,2.0947265625
,10.0425988,2.08984375
,10.042991,2.0458984375
,10.0918554,2.021484375
,10.0921633,1.9677734375
,10.1040411,1.962890625
,10.1538561,1.9140625
,10.1544616,1.875
,10.1652642,1.81640625
,10.2002438,1.7919921875
,10.2055341,1.748046875
,10.2212467,1.7041015625
,10.2633048,1.66015625
,10.2637019,1.650390625
,10.2944372,1.62109375
,10.3040587,1.591796875
,10.3399095,1.54296875
,10.360605,1.5380859375
,10.3650686,1.5185546875
,10.3862547,1.484375
,10.4058376,1.4013671875
,10.4242218,1.357421875
,10.4661563,1.357421875
,10.466395,1.3427734375
,10.4845379,1.30859375
,10.5039591,1.337890625
,10.5389848,1.3427734375
,10.5616499,1.4013671875
,10.5650946,1.455078125
,10.6096631,1.5771484375
,10.6100555,1.6748046875
,10.6242074,1.787109375
,10.6718531,1.865234375
,10.6722524,1.9677734375
,10.701395,2.03125
,10.7054388,2.099609375
,10.7490585,2.1435546875
,10.7494475,2.1875
,10.7638863,2.1875
,10.7840785,2.1826171875
,10.8279673,2.1630859375
,10.8283593,2.12890625
,10.8449383,2.08984375
,10.8793149,2.0654296875
,10.8999867,2.05078125
,10.9053487,2.03125
,10.9395056,2.001953125
,10.9607783,1.9580078125
,10.9637092,1.9287109375
,11.0119681,1.8896484375
,11.0122374,1.845703125
,11.0256127,1.796875
,11.061722,1.7626953125
,11.0663541,1.7236328125
,11.1059908,1.6748046875
,11.1063162,1.650390625
,11.1245309,1.6357421875
,11.1434943,1.62109375
,11.1801576,1.572265625
,11.1855883,1.5576171875
,11.231843,1.513671875
,11.2320856,1.484375
,11.2525515,1.4453125
,11.2678401,1.4208984375
,11.3029825,1.376953125
,11.3087735,1.357421875
,11.3229498,1.328125
,11.358038,1.3232421875
,11.3793111,1.34765625
,11.384161,1.4208984375
,11.4352363,1.50390625
,11.4356269,1.6064453125
,11.4654022,1.7236328125
,11.4656452,1.8017578125
,11.5013217,1.884765625
,11.5214695,1.9482421875
,11.5242243,2.0361328125
,11.5604428,2.080078125
,11.5663347,2.12890625
,11.6040953,2.1435546875
,11.604415,2.1484375
,11.6534512,2.1240234375
,11.6538391,2.1044921875
,11.674583,2.0751953125
,11.6859315,2.0703125
,11.7215038,2.0458984375
,11.723865,2.0263671875
,11.7609584,1.9775390625
,11.781504,1.953125
,11.7879788,1.9091796875
,11.8394962,1.8603515625
,11.8397767,1.8115234375
,11.8438109,1.77734375
,11.8782789,1.73828125
,11.8996954,1.7138671875
,11.9043292,1.6796875
,11.9386227,1.6552734375
,11.9597065,1.62109375
,11.9667911,1.591796875
,11.9896625,1.5625
,12.0045406,1.533203125
,12.0410621,1.513671875
,12.0459544,1.494140625
,12.0651985,1.4599609375
,12.1004998,1.4404296875
,12.1208609,1.40625
,12.12549,1.376953125
,12.161983,1.3427734375
,12.1823573,1.3330078125
,12.1904984,1.3232421875
,12.2093053,1.357421875
,12.2243546,1.40625
,12.2633965,1.513671875
,12.2636503,1.6015625
,12.3098551,1.7138671875
,12.3101672,1.7919921875
,12.3385529,1.884765625
,12.3495382,1.953125
,12.384626,2.021484375
,12.3848913,2.0703125
,12.4175451,2.1435546875
,12.4276657,2.177734375
,12.4637166,2.1728515625
,12.4641531,2.158203125
,12.5101646,2.12890625
,12.5104045,2.0947265625
,12.5307302,2.0654296875
,12.5651223,2.0361328125
,12.5656913,2.001953125
,12.6040295,1.97265625
,12.6044195,1.943359375
,12.6503384,1.904296875
,12.6505762,1.8701171875
,12.6788733,1.8310546875
,12.6887889,1.787109375
,12.7253119,1.7431640625
,12.7303264,1.7138671875
,12.7450804,1.669921875
,12.7793898,1.6455078125
,12.7999948,1.6162109375
,12.8073101,1.6015625
,12.8289185,1.5673828125
,12.8653428,1.54296875
,12.8657329,1.5087890625
,12.9131839,1.4794921875
,12.9135933,1.4501953125
,12.9346645,1.396484375
,12.9460189,1.3427734375
,12.9924815,1.357421875
,12.9927251,1.34765625
,13.0071259,1.34765625
,13.0521087,1.3330078125
,13.0523482,1.3720703125
,13.0690738,1.42578125
,13.1069843,1.50390625
,13.1103347,1.6015625
,13.1272609,1.69921875
,13.1625992,1.8017578125
,13.1678014,1.8798828125
,13.2105373,1.962890625
,13.2113489,2.03125
,13.2283032,2.08984375
,13.2625473,2.119140625
,13.2834047,2.1435546875
,13.286321,2.138671875
,13.3208607,2.1337890625
,13.3249164,2.099609375
,13.3647448,2.0751953125
,13.3953313,2.060546875
,13.3956283,2.0263671875
,13.4086756,1.9873046875
,13.4291475,1.953125
,13.463552,1.923828125
,13.4844423,1.8798828125
,13.4870071,1.8505859375
,13.5240012,1.8115234375
,13.5294136,1.7822265625
,13.5477735,1.7333984375
,13.5850165,1.7041015625
,13.5906253,1.6650390625
,13.6088486,1.6357421875
,13.628466,1.6064453125
,13.6455199,1.5869140625
,13.6805419,1.5625
,13.7009705,1.5576171875
,13.7071985,1.5283203125
,13.7414319,1.4990234375
,13.7687357,1.4697265625
,13.7689725,1.4453125
,13.8170492,1.416015625
,13.8174323,1.3818359375
,13.8306994,1.3232421875
,13.847852,1.3134765625
,13.8668115,1.337890625
,13.9016616,1.38671875
,13.9223034,1.4697265625
,13.9296605,1.5625
,13.9731821,1.6748046875
,13.97348,1.767578125
,13.9904378,1.85546875
,14.023853899999999,1.943359375
,14.0449317,1.9921875
,14.048371199999998,2.060546875
,14.067537300000001,2.1044921875
,14.114612900000001,2.1435546875
,14.114853100000001,2.138671875
,14.144996599999999,2.1240234375
,14.150108199999998,2.0947265625
,14.191941700000001,2.080078125
,14.1921906,2.0458984375
,14.212891899999999,2.0361328125
,14.226849900000001,2.01171875
,14.262100400000001,1.9873046875
,14.282733100000002,1.9482421875
,14.289964000000001,1.9189453125
,14.3237172,1.8701171875
,14.3450612,1.8408203125
,14.350649400000002,1.796875
,14.3674204,1.7529296875
,14.4109759,1.7236328125
,14.411226,1.69921875
,14.428014600000001,1.669921875
,14.4633708,1.640625
,14.4687421,1.6162109375
,14.503789000000001,1.5869140625
,14.524415999999999,1.5625
,14.526817600000001,1.533203125
,14.5631242,1.5185546875
,14.569012399999998,1.4990234375
,14.603458700000001,1.474609375
,14.633310600000002,1.4453125
,14.633704000000002,1.4111328125
,14.650907199999999,1.396484375
,14.695098000000002,1.3623046875
,14.695488000000001,1.34765625
,14.711348399999999,1.34765625
,14.747840400000001,1.40625
,14.7480811,1.474609375
,14.7840402,1.5869140625
,14.789041300000001,1.6845703125
,14.826586800000001,1.787109375
,14.831310299999998,1.865234375
,14.850198200000001,1.9482421875
,14.896621199999998,2.0068359375
,14.897050799999999,2.080078125
,14.908405299999998,2.12890625
,14.9589402,2.1728515625
,14.959331800000001,2.177734375
,14.9702449,2.1923828125
,15.0202788,2.177734375
,15.020520900000001,2.1435546875
,15.032555599999998,2.1142578125
,15.0674782,2.0849609375
,15.070558900000002,2.05078125
,15.0901612,2.01171875
,15.126037700000001,1.9873046875
,15.1262987,1.953125
,15.176852700000001,1.9140625
,15.1770925,1.875
,15.197908900000002,1.8310546875
,15.211274499999998,1.787109375
,15.255814099999998,1.7529296875
,15.2563602,1.708984375
,15.267805800000001,1.6845703125
,15.318134700000002,1.669921875
,15.3184297,1.6357421875
,15.3304434,1.611328125
,15.3658204,1.5771484375
,15.370321100000002,1.5625
,15.4035854,1.5234375
,15.4253189,1.494140625
,15.4256761,1.4599609375
,15.4733248,1.4453125
,15.473660899999999,1.416015625
,15.503651099999999,1.40625
,15.510961000000002,1.38671875
,15.549046100000002,1.3916015625
,15.549368000000001,1.4208984375
,15.585425,1.4892578125
,15.605678000000001,1.5625
,15.613219999999998,1.66015625
,15.6340161,1.748046875
,15.6488315,1.81640625
,15.683392900000001,1.904296875
,15.703785,1.9677734375
,15.7120836,2.03125
,15.753879399999999,2.0703125
,15.754122500000001,2.1044921875
,15.7711748,2.1044921875
,15.816289099999999,2.0849609375
,15.8167188,2.060546875
,15.8283555,2.041015625
,15.8652661,2.021484375
,15.892282699999999,2.001953125
,15.892548900000001,1.97265625
,15.9392551,1.943359375
,15.9395727,1.9189453125
,15.9523245,1.875
,15.988308100000001,1.8359375
,15.9885531,1.7919921875
,16.0087296,1.77734375
,16.0497306,1.7431640625
,16.0499711,1.71875
,16.0699118,1.6845703125
,16.1034206,1.66015625
,16.1243523,1.6259765625
,16.1344867,1.6015625
,16.1504817,1.5625
,16.1690032,1.552734375
,16.2068153,1.5283203125
,16.2394126,1.5087890625
,16.2398161,1.4794921875
,16.2520945,1.4697265625
,16.3012245,1.4453125
,16.3017698,1.4111328125
,16.3114921,1.396484375
,16.3341286,1.38671875
,16.3528328,1.3671875
,16.3713577,1.3916015625
,16.4098863,1.513671875
,16.4102121,1.6259765625
,16.4569716,1.7333984375
,16.4573398,1.826171875
,16.4719078,1.9091796875
,16.5095258,1.97265625
,16.5123818,2.0458984375
,16.5304244,2.0947265625
,16.5652542,2.1435546875
,16.5969167,2.177734375
,16.5973075,2.1630859375
,16.6114846,2.1435546875
,16.6600673,2.1142578125
,16.6604553,2.08984375
,16.6904451,2.0556640625
,16.6933005,2.0263671875
,16.7095596,1.9873046875
,16.745083,1.9677734375
,16.7517957,1.93359375
,16.7711268,1.9091796875
,16.8057131,1.865234375
,16.8261718,1.8310546875
,16.8309722,1.787109375
,16.8786196,1.748046875
,16.8789356,1.69921875
,16.9093067,1.6845703125
,16.9096873,1.6552734375
,16.9563895,1.6259765625
,16.9566879,1.5966796875
,16.976952,1.572265625
,16.9937133,1.54296875
,17.0334506,1.5185546875
,17.0336976,1.50390625
,17.0508536,1.484375
,17.0856317,1.4697265625
,17.0903945,1.4453125
,17.1256394,1.4208984375
,17.131016,1.4013671875
,17.1679113,1.4013671875
,17.1907155,1.4306640625
,17.1934052,1.4990234375
,17.2365998,1.5966796875
,17.2368427,1.6748046875
,17.2557342,1.787109375
,17.2696104,1.8603515625
,17.3174855,1.962890625
,17.318072,2.0361328125
,17.3478147,2.119140625
,17.3524598,2.16796875
,17.3878575,2.2119140625
,17.4092565,2.2265625
,17.4159349,2.2314453125
,17.4317668,2.1923828125
,17.4675483,2.177734375
,17.4718058,2.1435546875
,17.5194334,2.119140625
,17.5196727,2.080078125
,17.5320603,2.060546875
,17.5827325,2.0263671875
,17.5830833,1.982421875
,17.5952553,1.943359375
,17.6106193,1.904296875
,17.6602421,1.8701171875
,17.6604807,1.8310546875
,17.6740096,1.796875
,17.6928565,1.7578125
,17.7398079,1.71875
,17.7400505,1.6796875
,17.7528917,1.650390625
,17.7698725,1.6162109375
,17.8056881,1.6015625
,17.8257672,1.5673828125
,17.8308249,1.5380859375
,17.866889,1.513671875
,17.8725427,1.4794921875
,17.9117862,1.4404296875
,17.9121776,1.4111328125
,17.9581618,1.396484375
,17.9584782,1.376953125
,17.9891188,1.40625
,17.9894736,1.46484375
,18.033008,1.5478515625
,18.0332454,1.6357421875
,18.0536754,1.73828125
,18.0951286,1.81640625
,18.0953683,1.8994140625
,18.1157372,1.962890625
,18.1499129,2.021484375
,18.1501608,2.060546875
,18.1883486,2.1142578125
,18.2226829,2.1337890625
,18.22292,2.119140625
,18.2347378,2.099609375
,18.2555481,2.0751953125
,18.3015727,2.05078125
,18.3019602,2.021484375
,18.3153778,1.9970703125
,18.3323339,1.97265625
,18.3512957,1.9482421875
,18.3855572,1.9140625
,18.4055354,1.8798828125
,18.412915,1.8408203125
,18.457392,1.8017578125
,18.4577814,1.7578125
,18.4762934,1.7236328125
,18.5181699,1.6943359375
,18.5184095,1.650390625
,18.5338669,1.630859375
,18.5796755,1.6015625
,18.5799321,1.591796875
,18.5924747,1.5576171875
,18.6271753,1.5380859375
,18.6483695,1.5087890625
,18.655888,1.4892578125
,18.6718108,1.4501953125
,18.7071171,1.4404296875
,18.7113388,1.416015625
,18.7458054,1.4013671875
,18.7677793,1.3916015625
,18.7747598,1.42578125
,18.7959727,1.4794921875
,18.8316686,1.5771484375
,18.8346804,1.669921875
,18.853356,1.7529296875
,18.8868993,1.85546875
,18.8928783,1.884765625
,18.9303395,1.9775390625
,18.934953,2.0556640625
,18.9556685,2.119140625
,18.9751316,2.1533203125
,19.0155766,2.1728515625
,19.0160049,2.1630859375
,19.0367769,2.138671875
,19.0526905,2.109375
,19.0866305,2.109375
,19.1075738,2.08984375
,19.114884,2.0703125
,19.1542949,2.0556640625
,19.1545337,2.0068359375
,19.1929041,1.97265625
,19.1973559,1.923828125
,19.2346316,1.8896484375
,19.2348839,1.8359375
,19.2707836,1.806640625
,19.2726268,1.7626953125
,19.3146843,1.7333984375
,19.3150258,1.6943359375
,19.3615348,1.669921875
,19.3622584,1.6259765625
,19.377112,1.6015625
,19.3922888,1.5625
,19.4375834,1.5478515625
,19.4378352,1.513671875
,19.4527578,1.494140625
,19.4996054,1.4599609375
,19.5000133,1.416015625
,19.531178,1.3818359375
,19.535376,1.34765625
,19.578469,1.3134765625
,19.5788585,1.3037109375
,19.6081613,1.34765625
,19.6142802,1.4208984375
,19.6501705,1.5185546875
,19.6544196,1.6015625
,19.6897353,1.69921875
,19.6955544,1.77734375
,19.7307491,1.8603515625
,19.737358,1.9140625
,19.7586731,1.9384765625
,19.8009355,1.9775390625
,19.8011777,2.021484375
,19.8164469,2.060546875
,19.8340882,2.060546875
,19.8798528,2.05078125
,19.8801525,2.0166015625
,19.91023,1.9921875
,19.9170884,1.962890625
,19.9368234,1.943359375
,19.9541355,1.904296875
,19.9878759,1.884765625
,20.0087978,1.8505859375
,20.0144684,1.8212890625
,20.0655425,1.787109375
,20.0659725,1.748046875
,20.0760703,1.708984375
,20.1130707,1.6943359375
,20.1191004,1.6650390625
,20.1354966,1.630859375
,20.1740957,1.6162109375
,20.1744891,1.5966796875
,20.2212712,1.572265625
,20.2216636,1.54296875
,20.2368538,1.5185546875
,20.2827798,1.4892578125
,20.2830149,1.4599609375
,20.2939249,1.4208984375
,20.3447131,1.396484375
,20.3451042,1.3720703125
,20.3548133,1.3525390625
,20.390386,1.3232421875
,20.3979518,1.3134765625
,20.417015,1.3330078125
,20.4530093,1.3720703125
,20.45848,1.4599609375
,20.4740641,1.5478515625
,20.5084203,1.6552734375
,20.5288458,1.7431640625
,20.5342122,1.8212890625
,20.571204,1.884765625
,20.5937793,1.953125
,20.597152,1.9970703125
,20.6408681,2.041015625
,20.641106,2.0458984375
,20.6583247,2.0458984375
,20.6749223,2.0166015625
,20.6942741,1.9970703125
,20.7290525,1.97265625
,20.7499448,1.9580078125
,20.755834,1.93359375
,20.797507,1.8994140625
,20.7977537,1.8701171875
,20.8338324,1.8310546875
,20.839034,1.7919921875
,20.8554963,1.7529296875
,20.8913573,1.728515625
,20.8944992,1.69921875
,20.9161301,1.6650390625
,20.9366517,1.630859375
,20.986194,1.5966796875
,20.9864372,1.572265625
,20.9986316,1.54296875
,21.0137342,1.5087890625
,21.0516357,1.4990234375
,21.055659,1.4892578125
,21.0763224,1.4599609375
,21.1271315,1.435546875
,21.1275204,1.4208984375
,21.1371154,1.4111328125
,21.1733567,1.38671875
,21.1785624,1.3671875
,21.1951524,1.337890625
,21.2359258,1.3671875
,21.236172,1.40625
,21.272451,1.494140625
,21.2782543,1.5771484375
,21.2977447,1.6845703125
,21.3467308,1.767578125
,21.3470054,1.85546875
,21.3564376,1.9189453125
,21.3766316,2.0068359375
,21.4116839,2.0703125
,21.4212973,2.119140625
,21.4373021,2.1484375
,21.4724977,2.1533203125
,21.4777261,2.1337890625
,21.5135557,2.109375
,21.5182655,2.080078125
,21.5537792,2.05078125
,21.5591019,2.021484375
,21.5768875,1.9873046875
,21.6129884,1.962890625
,21.6159898,1.9384765625
,21.6518463,1.9091796875
,21.6729815,1.875
,21.6780757,1.8310546875
,21.7187504,1.8017578125
,21.7191821,1.7578125
,21.7569995,1.71875
,21.7573881,1.6748046875
,21.7959365,1.66015625
,21.7962582,1.62109375
,21.8431319,1.6015625
,21.8434965,1.572265625
,21.8637752,1.5576171875
,21.8805185,1.5234375
,21.8990147,1.50390625
,21.9164327,1.4697265625
,21.9374677,1.4599609375
,21.9569183,1.4306640625
,21.9946938,1.40625
,21.9949871,1.3720703125
,22.0458513,1.3623046875
,22.0461637,1.3623046875
,22.0754938,1.3916015625
,22.0785636,1.46484375
,22.0964384,1.5478515625
,22.1385952,1.66015625
,22.1389847,1.7578125
,22.1568446,1.865234375
,22.199691,1.9482421875
,22.2000793,2.0263671875
,22.2297472,2.0947265625
,22.2388799,2.1533203125
,22.2554965,2.1923828125
,22.3069023,2.2216796875
,22.307294,2.16796875
,22.3164783,2.1630859375
,22.3516379,2.1484375
,22.3574646,2.119140625
,22.3996677,2.08984375
,22.3999917,2.0556640625
,22.4298703,2.03125
,22.4407225,1.9873046875
,22.4906465,1.9482421875
,22.4908911,1.904296875
,22.4963612,1.875
,22.5376966,1.8310546875
,22.538032,1.796875
,22.5742965,1.7529296875
,22.5797925,1.7138671875
,22.6155992,1.6748046875
,22.6184326,1.640625
,22.6364431,1.6064453125
,22.6761157,1.6015625
,22.6763601,1.58203125
,22.7151446,1.5478515625
,22.7195597,1.5380859375
,22.7565851,1.50390625
,22.7568226,1.474609375
,22.7931672,1.4501953125
,22.8137703,1.4208984375
,22.8164468,1.3916015625
,22.8640989,1.3818359375
,22.8644922,1.3720703125
,22.8777777,1.38671875
,22.9247692,1.455078125
,22.9250134,1.54296875
,22.9449069,1.630859375
,22.9593758,1.7236328125
,23.0049017,1.81640625
,23.0051543,1.8701171875
,23.0177079,1.9482421875
,23.0521646,2.001953125
,23.0724292,2.060546875
,23.0777591,2.0849609375
,23.114461,2.099609375
,23.1403457,2.080078125
,23.1406706,2.0654296875
,23.1604028,2.0361328125
,23.1817596,2.001953125
,23.1959578,1.953125
,23.2338053,1.9677734375
,23.2382996,1.9580078125
,23.2823886,1.9482421875
,23.2827799,1.9091796875
,23.2994402,1.8798828125
,23.3452324,1.8505859375
,23.345476,1.806640625
,23.3763667,1.767578125
,23.3767496,1.728515625
,23.4218803,1.7041015625
,23.4221299,1.6748046875
,23.4424749,1.6552734375
,23.4587273,1.630859375
,23.4935275,1.6015625
,23.5141642,1.5771484375
,23.5222963,1.5478515625
,23.5371418,1.5234375
,23.5795942,1.5087890625
,23.5799827,1.4892578125
,23.6111756,1.4599609375
,23.620409,1.4453125
,23.6568584,1.4111328125
,23.6593749,1.40625
,23.6949028,1.4208984375
,23.7147809,1.4990234375
,23.7183735,1.5673828125
,23.7662834,1.6748046875
,23.7666357,1.7578125
,23.7784121,1.85546875
,23.8128551,1.9140625
,23.8333946,1.9873046875
,23.8409292,2.0361328125
,23.8919185,2.0849609375
,23.8923312,2.1044921875
,23.8974299,2.119140625
,23.93398,2.099609375
,23.9387432,2.08984375
,23.9751503,2.060546875
,23.9795923,2.0361328125
,24.0160669,2.0068359375
,24.021244,1.9873046875
,24.0639346,1.953125
,24.0642814,1.9189453125
,24.0812913,1.875
,24.0976318,1.8359375
,24.1343291,1.806640625
,24.1393473,1.7724609375
,24.1747032,1.728515625
,24.1953474,1.6943359375
,24.2004674,1.669921875
,24.2366241,1.630859375
,24.2419828,1.6015625
,24.2827131,1.58203125
,24.283028,1.5478515625
,24.3135867,1.5380859375
,24.3207186,1.513671875
,24.3586296,1.494140625
,24.3589491,1.46484375
,24.3972299,1.435546875
,24.4006507,1.4013671875
,24.436967,1.3818359375
,24.4372063,1.3525390625
,24.4577232,1.3623046875
,24.4950056,1.3818359375
,24.5007476,1.455078125
,24.534623,1.5380859375
,24.5394468,1.640625
,24.5742731,1.7236328125
,24.5964932,1.826171875
,24.6032131,1.9189453125
,24.6200179,1.982421875
,24.6702598,2.0703125
,24.6705168,2.138671875
,24.6790092,2.1923828125
,24.713952,2.216796875
,24.7348729,2.2216796875
,24.7419161,2.2021484375
,24.7771186,2.1728515625
,24.777474,2.1337890625
,24.8130646,2.1142578125
,24.842121,2.0849609375
,24.8423648,2.060546875
,24.8610562,2.0166015625
,24.881337,1.9775390625
,24.9198163,1.943359375
,24.9200525,1.8994140625
,24.9688348,1.8603515625
,24.9691769,1.8115234375
,24.9991423,1.7724609375
,24.9994766,1.728515625
,25.0463325,1.69921875
,25.0467188,1.6650390625
,25.07664,1.640625
,25.0810219,1.62109375
,25.1162402,1.5869140625
,25.1224677,1.5478515625
,25.1690571,1.5283203125
,25.1694054,1.4990234375
,25.1787617,1.4794921875
,25.2006987,1.4501953125
,25.2378426,1.4453125
,25.2408506,1.4306640625
,25.2746681,1.40625
,25.2945943,1.4013671875
,25.3029676,1.40625
,25.3420843,1.4501953125
,25.3423231,1.513671875
,25.3611368,1.6162109375
,25.4046364,1.708984375
,25.4049522,1.796875
,25.4219564,1.875
,25.4578172,1.9384765625
,25.4651447,2.001953125
,25.4838335,2.060546875
,25.4998712,2.0947265625
,25.5196035,2.1337890625
,25.557565,2.1533203125
,25.5601933,2.12890625
,25.596037,2.1044921875
,25.6010647,2.0703125
,25.6368937,2.0458984375
,25.6568158,2.0068359375
,25.6644026,1.9775390625
,25.6844075,1.9384765625
,25.7035735,1.8701171875
,25.7217093,1.8017578125
,25.7625043,1.8115234375
,25.762897,1.787109375
,25.8078965,1.7724609375
,25.8081334,1.73828125
,25.8247634,1.7138671875
,25.8438939,1.6748046875
,25.879413,1.650390625
,25.8845977,1.62109375
,25.8991603,1.5869140625
,25.9336525,1.572265625
,25.9538816,1.5478515625
,25.9632714,1.5283203125
,26.010195,1.4990234375
,26.0104518,1.4794921875
,26.0239571,1.4501953125
,26.0712952,1.4208984375
,26.0715403,1.3916015625
,26.0799267,1.376953125
,26.1158081,1.3671875
,26.1215156,1.3720703125
,26.1586946,1.4111328125
,26.16292,1.4892578125
,26.1979004,1.5869140625
,26.2193596,1.6650390625
,26.2240016,1.7578125
,26.24132,1.826171875
,26.2884798,1.923828125
,26.2889105,1.9873046875
,26.3022006,2.0556640625
,26.3377222,2.0947265625
,26.3422315,2.119140625
,26.3643373,2.1142578125
,26.3983443,2.099609375
,26.4194572,2.0654296875
,26.4198261,2.0556640625
,26.4578138,2.03125
,26.462937,2.0166015625
,26.4819895,1.982421875
,26.5172648,1.962890625
,26.5385896,1.93359375
,26.5436931,1.89453125
,26.5786053,1.8603515625
,26.5847975,1.8212890625
,26.604803,1.7822265625
,26.621547,1.7431640625
,26.6608399,1.71875
,26.6610803,1.689453125
,26.6992047,1.6552734375
,26.7198396,1.6259765625
,26.7254182,1.6015625
,26.769986,1.5771484375
,26.7702292,1.5625
,26.7815495,1.5380859375
,26.816685,1.5234375
,26.8214742,1.513671875
,26.864961,1.484375
,26.8652789,1.4599609375
,26.8925265,1.42578125
,26.9037047,1.396484375
,26.9393335,1.3671875
,26.9601447,1.3525390625
,26.9606654,1.34765625
,26.9992953,1.4013671875
,27.0042176,1.474609375
,27.0400332,1.5771484375
,27.0435143,1.669921875
,27.0947586,1.767578125
,27.0949992,1.8505859375
,27.106592,1.93359375
,27.1225846,1.9970703125
,27.1586486,2.080078125
,27.1608689,2.1435546875
,27.1953452,2.1728515625
,27.2161913,2.1923828125
,27.2247143,2.1826171875
,27.2666667,2.158203125
,27.2669039,2.138671875
,27.2848383,2.12890625
,27.3021298,2.119140625
,27.3381172,2.109375
,27.3406131,2.080078125
,27.3756387,2.0458984375
,27.3959598,2.01171875
,27.4032793,1.982421875
,27.4246664,1.9384765625
,27.4595969,1.89453125
,27.4639645,1.865234375
,27.5157658,1.81640625
,27.5162575,1.7724609375
,27.5244814,1.7333984375
,27.5427701,1.7138671875
,27.5796211,1.689453125
,27.5851424,1.6650390625
,27.6059721,1.6357421875
,27.656577,1.611328125
,27.6568153,1.58203125
,27.6668527,1.5673828125
,27.6841817,1.5234375
,27.7042456,1.5185546875
,27.7483785,1.494140625
,27.7486171,1.474609375
,27.7632508,1.4501953125
,27.7839239,1.4599609375
,27.8274104,1.474609375
,27.8278003,1.513671875
,27.8465927,1.5869140625
,27.8626229,1.6748046875
,27.8975749,1.7724609375
,27.90305,1.85546875
,27.9383656,1.9384765625
,27.9433753,2.0068359375
,27.9794067,2.0654296875
,27.9864257,2.1142578125
,28.0286755,2.1435546875
,28.0289196,2.1630859375
,28.0431728,2.1728515625
,28.0928908,2.158203125
,28.0932931,2.12890625
,28.1049195,2.119140625
,28.1389661,2.0849609375
,28.1459233,2.060546875
,28.182053,2.021484375
,28.1850547,2.0068359375
,28.2021015,1.97265625
,28.2486904,1.943359375
,28.2490792,1.8505859375
,28.2796923,1.845703125
,28.2842375,1.81640625
,28.3200213,1.8017578125
,28.3425155,1.7578125
,28.3470657,1.7431640625
,28.3660599,1.708984375
,28.4001745,1.6845703125
,28.4210467,1.640625
,28.4232578,1.6455078125
,28.4596445,1.630859375
,28.464642,1.6015625
,28.4847331,1.58203125
,28.5225644,1.552734375
,28.5253943,1.5234375
,28.5601519,1.494140625
,28.5806444,1.484375
,28.584034,1.4599609375
,28.6231179,1.455078125
,28.6233575,1.474609375
,28.6689909,1.5283203125
,28.6692355,1.6015625
,28.6896635,1.69921875
,28.7063682,1.77734375
,28.7418076,1.8603515625
,28.7471193,1.943359375
,28.7633592,2.001953125
,28.809654,2.0703125
,28.8102177,2.12890625
,28.8267761,2.177734375
,28.8633174,2.1826171875
,28.8637055,2.1923828125
,28.9026632,2.158203125
,28.9243349,2.1435546875
,28.9247228,2.1044921875
,28.9651026,2.1044921875
,28.9653431,2.0751953125
,28.9985586,2.0458984375
,29.0201237,2.0068359375
,29.0266793,1.9677734375
,29.0461812,1.9140625
,29.0817055,1.884765625
,29.1066843,1.8359375
,29.1069505,1.787109375
,29.1543886,1.7138671875
,29.1547774,1.6845703125
,29.1841281,1.6650390625
,29.1843754,1.6357421875
,29.2187557,1.6162109375
,29.2399507,1.58203125
,29.2477593,1.5576171875
,29.295479,1.5234375
,29.295717,1.50390625
,29.3047097,1.4697265625
,29.3419507,1.4697265625
,29.3447381,1.455078125
,29.3895809,1.4306640625
,29.3898228,1.416015625
,29.4068033,1.38671875
,29.4519031,1.3623046875
,29.4521406,1.3623046875
,29.482536,1.40625
,29.4830061,1.46484375
,29.5196426,1.5673828125
,29.5243398,1.6650390625
,29.5613857,1.767578125
,29.56664,1.85546875
,29.5880546,1.9482421875
,29.6071658,2.021484375
,29.6416502,2.08984375
,29.6622931,2.1435546875
,29.6649531,2.197265625
,29.7014499,2.216796875
,29.7060706,2.2265625
,29.7416039,2.20703125
,29.7469681,2.1728515625
,29.7828452,2.1435546875
,29.7877402,2.109375
,29.8236061,2.0751953125
,29.8241768,2.0361328125
,29.8451578,2.021484375
,29.8904942,1.982421875
,29.8908106,1.9482421875
,29.9070198,1.9091796875
,29.9430458,1.865234375
,29.9455191,1.8212890625
,29.9822512,1.787109375
,30.002961499999998,1.73828125
,30.008117900000002,1.7041015625
,30.044116699999996,1.6650390625
,30.044431000000003,1.630859375
,30.064666799999998,1.611328125
,30.1080642,1.5869140625
,30.1084544,1.572265625
,30.143744499999997,1.5380859375
,30.1494992,1.5185546875
,30.184196200000002,1.484375
,30.1873505,1.455078125
,30.231431200000003,1.416015625
,30.2316839,1.4111328125
,30.246273600000002,1.38671875
,30.284468099999998,1.3720703125
,30.2848611,1.376953125
,30.322741100000002,1.416015625
,30.357635799999997,1.474609375
,30.357953799999997,1.5771484375
,30.3687356,1.6796875
,30.385139600000002,1.7529296875
,30.4062932,1.845703125
,30.4271375,1.9189453125
,30.4615783,1.9873046875
,30.4668603,2.041015625
,30.503617400000003,2.0947265625
,30.5089348,2.109375
,30.544639699999998,2.109375
,30.5448946,2.0849609375
,30.579071399999997,2.0703125
,30.6002322,2.0458984375
,30.606171600000003,2.0263671875
,30.6522752,1.9970703125
,30.652520199999998,1.9677734375
,30.667734600000003,1.943359375
,30.704529,1.8994140625
,30.7098455,1.8603515625
,30.7258257,1.81640625
,30.776231600000003,1.796875
,30.776664099999998,1.7578125
,30.807219000000003,1.7236328125
,30.807608100000003,1.6845703125
,30.840744200000003,1.650390625
,30.861568300000002,1.6064453125
,30.8689629,1.5869140625
,30.9160895,1.552734375
,30.9163354,1.533203125
,30.925927799999997,1.4990234375
,30.9607513,1.4892578125
,30.9814061,1.46484375
,30.9865626,1.4501953125
,31.0271622,1.4306640625
,31.027487800000003,1.396484375
,31.0713473,1.376953125
,31.071587299999997,1.3525390625
,31.0924962,1.3330078125
,31.106133900000003,1.337890625
,31.139663,1.4013671875
,31.1600708,1.4794921875
,31.169629800000003,1.5771484375
,31.2057876,1.6650390625
,31.208731999999998,1.7578125
,31.2440846,1.826171875
,31.248388900000002,1.904296875
,31.265912200000002,1.962890625
,31.3022334,2.0361328125
,31.3065293,2.0947265625
,31.343739,2.1142578125
,31.349001299999998,2.119140625
,31.384081799999997,2.109375
,31.3878379,2.099609375
,31.436471599999997,2.0751953125
,31.436711199999998,2.0556640625
,31.457558900000002,2.03125
,31.46644,2.01171875
,31.515097400000002,1.982421875
,31.5157284,1.962890625
,31.529040700000003,1.923828125
,31.5639393,1.8896484375
,31.5688394,1.845703125
,31.606600299999997,1.806640625
,31.606847100000003,1.7626953125
,31.6303409,1.7431640625
,31.6508695,1.669921875
,31.666201299999997,1.6064453125
,31.7150679,1.611328125
,31.715305899999997,1.6015625
,31.7360281,1.5869140625
,31.7479783,1.5673828125
,31.783771799999997,1.552734375
,31.8042242,1.5283203125
,31.809881400000002,1.4990234375
,31.828347800000003,1.4990234375
,31.8696074,1.474609375
,31.869844399999998,1.4306640625
,31.9052626,1.435546875
,31.9072002,1.4013671875
,31.947398800000002,1.376953125
,31.9690528,1.40625
,31.9693512,1.4404296875
,32.0100402,1.5185546875
,32.0102901,1.6064453125
,32.0316416,1.7236328125
,32.0479331,1.8115234375
,32.0882808,1.904296875
,32.110405,1.9775390625
,32.1107952,2.0556640625
,32.1467191,2.1142578125
,32.1516941,2.16796875
,32.1673028,2.1923828125
,32.2021395,2.216796875
,32.2085244,2.20703125
,32.245499,2.177734375
,32.2501811,2.138671875
,32.2876353,2.109375
,32.2879221,2.0751953125
,32.326289,2.03125
,32.3482475,1.9970703125
,32.3486843,1.953125
,32.3680378,1.9189453125
,32.4032453,1.884765625
,32.4091208,1.8603515625
,32.4494066,1.8212890625
,32.4496548,1.77734375
,32.4974798,1.73828125
,32.4978699,1.69921875
,32.5299542,1.66015625
,32.5306085,1.5966796875
,32.5481501,1.5771484375
,32.5907542,1.5673828125
,32.5911491,1.5625
,32.6354629,1.5380859375
,32.6357207,1.5185546875
,32.6516047,1.494140625
,32.6978679,1.474609375
,32.6981103,1.4453125
,32.7111372,1.4208984375
,32.7469141,1.396484375
,32.7473088,1.3818359375
,32.7923557,1.3623046875
,32.7925935,1.376953125
,32.8120988,1.416015625
,32.8301652,1.4892578125
,32.8719921,1.572265625
,32.8723789,1.669921875
,32.9027206,1.748046875
,32.9101244,1.8505859375
,32.9492059,1.923828125
,32.9495966,1.9873046875
,32.9941278,2.0458984375
,32.9943793,2.0849609375
,33.0106002,2.1142578125
,33.0455118,2.109375
,33.0654554,2.099609375
,33.0675662,2.0654296875
,33.1009427,2.041015625
,33.1213552,2.0166015625
,33.1304056,1.9873046875
,33.1653791,1.953125
,33.1710996,1.923828125
,33.21302,1.8798828125
,33.2132659,1.845703125
,33.2319199,1.806640625
,33.2496396,1.7626953125
,33.2918088,1.728515625
,33.2920585,1.6943359375
,33.3118271,1.6650390625
,33.3309738,1.6259765625
,33.3665897,1.5966796875
,33.3712808,1.5625
,33.4170437,1.533203125
,33.4173916,1.50390625
,33.4464653,1.4990234375
,33.4489223,1.4794921875
,33.4850902,1.4697265625
,33.4908679,1.4453125
,33.5238201,1.42578125
,33.5448229,1.4013671875
,33.5496765,1.38671875
,33.5872434,1.3623046875
,33.6182268,1.337890625
,33.6185044,1.3330078125
,33.6305374,1.3427734375
,33.6652002,1.40625
,33.6696466,1.494140625
,33.6922173,1.6015625
,33.7394423,1.6943359375
,33.7396875,1.787109375
,33.7527693,1.865234375
,33.7906262,1.943359375
,33.7910136,1.9970703125
,33.8093904,2.0703125
,33.8432129,2.119140625
,33.8657899,2.1484375
,33.8727898,2.1533203125
,33.8912809,2.12890625
,33.9263982,2.0947265625
,33.9307379,2.0654296875
,33.9741191,2.041015625
,33.9745222,2.0068359375
,34.0050038,1.9873046875
,34.0106552,1.962890625
,34.0523179,1.923828125
,34.0525594,1.884765625
,34.088782,1.8505859375
,34.0908131,1.8017578125
,34.1268364,1.7578125
,34.1480299,1.71875
,34.1501201,1.689453125
,34.1903284,1.6552734375
,34.1906034,1.630859375
,34.2368607,1.6015625
,34.2372514,1.5625
,34.2680098,1.5380859375
,34.2731751,1.5087890625
,34.3093425,1.4794921875
,34.3117865,1.4501953125
,34.3477798,1.42578125
,34.3688859,1.3916015625
,34.3716442,1.3671875
,34.4079027,1.337890625
,34.4120803,1.318359375
,34.4461263,1.2890625
,34.4666184,1.279296875
,34.4727196,1.2744140625
,34.5177325,1.3134765625
,34.5179706,1.3818359375
,34.5386362,1.4697265625
,34.55105,1.5869140625
,34.5883892,1.689453125
,34.5912746,1.796875
,34.6292559,1.8798828125
,34.6339498,1.9580078125
,34.6722782,2.021484375
,34.6725218,2.08984375
,34.6922922,2.12890625
,34.7114959,2.16796875
,34.7513034,2.1728515625
,34.7516983,2.1533203125
,34.772809,2.119140625
,34.8078369,2.0849609375
,34.8130189,2.0458984375
,34.8599415,2.0361328125
,34.8601823,2.0068359375
,34.8700442,1.962890625
,34.9049269,1.9384765625
,34.9260541,1.8994140625
,34.931798,1.8603515625
,34.9531329,1.81640625
,35.0010116,1.7822265625
,35.0014074,1.73828125
,35.0153896,1.6943359375
,35.0335287,1.6552734375
,35.0553345,1.58203125
,35.0718334,1.5234375
,35.107229,1.533203125
,35.1118905,1.5234375
,35.1481105,1.513671875
,35.1538621,1.50390625
,35.2016792,1.474609375
,35.201932,1.4453125
,35.2140982,1.416015625
,35.247863,1.396484375
,35.2690402,1.357421875
,35.2718577,1.34765625
,35.3111421,1.3330078125
,35.3113828,1.3330078125
,35.3501187,1.34765625
,35.3554366,1.416015625
,35.3906021,1.494140625
,35.3937913,1.6015625
,35.4106685,1.689453125
,35.4476699,1.7919921875
,35.4502712,1.865234375
,35.485645,1.962890625
,35.5133081,2.0361328125
,35.5135525,2.08984375
,35.5511297,2.1240234375
,35.5521444,2.138671875
,35.5901444,2.12890625
,35.5905582,2.099609375
,35.6267072,2.08984375
,35.6312541,2.0703125
,35.6704557,2.0458984375
,35.6708502,2.0166015625
,35.7066092,1.9873046875
,35.7275619,1.9580078125
,35.7352286,1.923828125
,35.7520671,1.884765625
,35.7923499,1.865234375
,35.7926026,1.8408203125
,35.8130804,1.8017578125
,35.8557224,1.7724609375
,35.8559953,1.73828125
,35.8909625,1.71875
,35.8954148,1.6796875
,35.9306576,1.6552734375
,35.9348939,1.6064453125
,35.9809332,1.6064453125
,35.981277,1.5673828125
,36.0115475,1.5625
,36.0118405,1.5380859375
,36.0582763,1.5087890625
,36.0586638,1.4794921875
,36.0748991,1.4501953125
,36.0957942,1.4111328125
,36.1315462,1.40625
,36.1343611,1.3916015625
,36.1693515,1.40625
,36.1717042,1.474609375
,36.2080973,1.552734375
,36.2130805,1.6552734375
,36.2489695,1.748046875
,36.2549261,1.845703125
,36.292287,1.923828125
,36.2968613,2.001953125
,36.3126681,2.060546875
,36.3541902,2.1337890625
,36.3545797,2.177734375
,36.3759802,2.2119140625
,36.3938234,2.20703125
,36.4287182,2.1875
,36.4483179,2.16796875
,36.4565534,2.1337890625
,36.4910876,2.109375
,36.4913419,2.0751953125
,36.5289683,2.060546875
,36.5320837,2.03125
,36.5692571,1.9970703125
,36.6004502,1.962890625
,36.6008362,1.923828125
,36.6147048,1.8701171875
,36.6620778,1.8359375
,36.6623554,1.7919921875
,36.6827886,1.767578125
,36.6926318,1.73828125
,36.7419649,1.69921875
,36.7422024,1.6650390625
,36.7540343,1.6455078125
,36.8027454,1.6162109375
,36.8031522,1.5771484375
,36.8252083,1.5478515625
,36.8366565,1.513671875
,36.8713175,1.484375
,36.8915269,1.4501953125
,36.8932879,1.4404296875
,36.9288714,1.4208984375
,36.9586062,1.4013671875
,36.9588523,1.376953125
,36.9749965,1.376953125
,37.0112645,1.396484375
,37.0167634,1.474609375
,37.0339159,1.5576171875
,37.0527879,1.669921875
,37.088128,1.77734375
,37.1128645,1.8603515625
,37.1131918,1.943359375
,37.1596939,2.0166015625
,37.1600798,2.0849609375
,37.1906687,2.1337890625
,37.1976194,2.16796875
,37.2138629,2.1826171875
,37.2506909,2.1875
,37.2534166,2.1630859375
,37.290278,2.1435546875
,37.2955446,2.109375
,37.3160728,2.0849609375
,37.3353945,2.05078125
,37.3704786,2.021484375
,37.390244,1.9775390625
,37.3926299,1.962890625
,37.4294701,1.9287109375
,37.4346227,1.8896484375
,37.4689244,1.8505859375
,37.4888981,1.806640625
,37.4955407,1.767578125
,37.5302115,1.7333984375
,37.5355156,1.708984375
,37.552414,1.6845703125
,37.587273,1.6650390625
,37.6088959,1.591796875
,37.6167137,1.5869140625
,37.6347789,1.572265625
,37.6863321,1.5625
,37.6867639,1.5380859375
,37.7153885,1.513671875
,37.7156362,1.494140625
,37.7521977,1.4599609375
,37.7741454,1.4404296875
,37.7745343,1.4111328125
,37.8097896,1.4306640625
,37.8297936,1.46484375
,37.8366534,1.5380859375
,37.8841122,1.611328125
,37.8843145,1.7041015625
,37.8973223,1.7724609375
,37.9322561,1.85546875
,37.9526778,1.9140625
,37.9529214,1.982421875
,37.9878653,2.03125
,38.0096109,2.0751953125
,38.0165318,2.0849609375
,38.0533568,2.099609375
,38.0585701,2.0849609375
,38.0767786,2.05078125
,38.1126419,2.0263671875
,38.1130073,1.9970703125
,38.1332875,1.982421875
,38.1700114,1.962890625
,38.1908528,1.9384765625
,38.1962101,1.904296875
,38.2397496,1.865234375
,38.2400717,1.826171875
,38.275692,1.7822265625
,38.276216,1.748046875
,38.3197742,1.7138671875
,38.3202161,1.6796875
,38.3345409,1.6455078125
,38.3693706,1.6259765625
,38.3904346,1.5869140625
,38.3950482,1.5576171875
,38.4429628,1.5283203125
,38.4433514,1.5087890625
,38.4638016,1.4794921875
,38.47903,1.455078125
,38.4945328,1.4208984375
,38.5370672,1.40625
,38.5373202,1.38671875
,38.5821194,1.3818359375
,38.5823617,1.3671875
,38.5965335,1.3671875
,38.6188307,1.3818359375
,38.6602015,1.4453125
,38.6605142,1.513671875
,38.6762242,1.630859375
,38.722373,1.73828125
,38.7227258,1.826171875
,38.7377446,1.9140625
,38.7578186,1.982421875
,38.7770685,2.0556640625
,38.8118774,2.1142578125
,38.8445885,2.1630859375
,38.8449095,2.1875
,38.8547986,2.2021484375
,38.906535,2.1875
,38.9067371,2.1630859375
,38.9157651,2.12890625
,38.9519935,2.109375
,38.9585606,2.080078125
,38.9982028,2.0556640625
,38.9985677,2.021484375
,39.0135646,1.9775390625
,39.0500472,1.9482421875
,39.0758559,1.9140625
,39.0761529,1.884765625
,39.1126792,1.8505859375
,39.1331486,1.81640625
,39.141464,1.77734375
,39.1593258,1.7431640625
,39.1771019,1.7041015625
,39.2150975,1.689453125
,39.2153017,1.6650390625
,39.2511682,1.6455078125
,39.2735974,1.611328125
,39.2780757,1.58203125
,39.312591,1.5478515625
,39.31727,1.5234375
,39.3548429,1.494140625
,39.3761641,1.455078125
,39.3803315,1.4306640625
,39.3967327,1.4013671875
,39.417233,1.4013671875
,39.464549,1.4208984375
,39.4647545,1.4892578125
,39.4950574,1.5673828125
,39.4996056,1.6650390625
,39.5211326,1.7529296875
,39.5560863,1.8408203125
,39.5564296,1.904296875
,39.5911862,2.001953125
,39.5963276,2.0703125
,39.6344908,2.138671875
,39.6412629,2.1875
,39.6577254,2.197265625
,39.6974723,2.1923828125
,39.726914,2.1630859375
,39.7271409,2.1435546875
,39.7341986,2.109375
,39.7706899,2.0947265625
,39.7901063,2.0654296875
,39.7975882,2.041015625
,39.8186297,2.0068359375
,39.8398865,1.9775390625
,39.8589088,1.93359375
,39.8798238,1.89453125
,39.8977379,1.8505859375
,39.9161197,1.81640625
,39.9522222,1.77734375
,39.9571602,1.7529296875
,39.9955559,1.71875
,39.9985226,1.6845703125
,40.0329285,1.6552734375
,40.0547178,1.6259765625
,40.060281,1.5966796875
,40.0782204,1.5673828125
,40.1004478,1.5576171875
,40.1176135,1.4892578125
,40.1547673,1.484375
,40.1571792,1.474609375
,40.1955041,1.4599609375
,40.1982098,1.435546875
,40.2465472,1.4306640625
,40.2468599,1.42578125
,40.2782733,1.4599609375
,40.278561,1.533203125
,40.3141269,1.6064453125
,40.316672,1.708984375
,40.3547683,1.796875
,40.3601917,1.884765625
,40.3795441,1.943359375
,40.3994053,2.01171875
,40.4350783,2.060546875
,40.4408129,2.109375
,40.4582286,2.1240234375
,40.4784147,2.1484375
,40.4994392,2.1337890625
,40.5182528,2.119140625
,40.5566515,2.0947265625
,40.5568519,2.0751953125
,40.6033617,2.0458984375
,40.6037419,2.0361328125
,40.6502635,2.01171875
,40.6509574,1.9775390625
,40.6555087,1.9482421875
,40.6920099,1.9189453125
,40.7148074,1.8798828125
,40.7188121,1.8408203125
,40.7572656,1.806640625
,40.7773831,1.7724609375
,40.7803148,1.73828125
,40.7977608,1.69921875
,40.8196121,1.6748046875
,40.8388958,1.650390625
,40.8808764,1.6357421875
,40.8810802,1.6015625
,40.8992254,1.572265625
,40.937387,1.552734375
,40.9377727,1.5234375
,40.9746763,1.494140625
,41.0051594,1.46484375
,41.0055614,1.40625
,41.0171882,1.3916015625
,41.0521535,1.396484375
,41.0737424,1.40625
,41.0808788,1.455078125
,41.11846,1.5234375
,41.118851,1.6259765625
,41.1624824,1.7138671875
,41.1628726,1.81640625
,41.1928312,1.89453125
,41.2005644,1.9873046875
,41.2182409,2.060546875
,41.2543914,2.1337890625
,41.2595471,2.1923828125
,41.3000179,2.2216796875
,41.3002672,2.236328125
,41.3369098,2.216796875
,41.3415404,2.1923828125
,41.3579465,2.1533203125
,41.4085971,2.138671875
,41.4089885,2.1142578125
,41.4199011,2.08984375
,41.470184,2.05078125
,41.4704324,2.0166015625
,41.4830184,1.9677734375
,41.5007421,1.93359375
,41.5189015,1.884765625
,41.553913,1.85546875
,41.5584003,1.8212890625
,41.5791486,1.7822265625
,41.6156366,1.7431640625
,41.6200782,1.71875
,41.6417384,1.69921875
,41.6620235,1.669921875
,41.6815378,1.650390625
,41.6974602,1.6162109375
,41.7329726,1.6015625
,41.7530867,1.5771484375
,41.7578457,1.5625
,41.7925863,1.5283203125
,41.813665,1.5087890625
,41.8204765,1.4794921875
,41.8637542,1.4501953125
,41.8640611,1.4306640625
,41.8830946,1.4404296875
,41.9242684,1.484375
,41.9244712,1.5380859375
,41.9388496,1.640625
,41.975464,1.728515625
,42.0014026,1.826171875
,42.0016698,1.904296875
,42.0388085,1.982421875
,42.0434546,2.041015625
,42.0629982,2.099609375
,42.078422,2.1337890625
,42.1258216,2.16796875
,42.1262093,2.1728515625
,42.1459175,2.16796875
,42.1603284,2.138671875
,42.1957249,2.1142578125
,42.2160557,2.08984375
,42.2209579,2.0556640625
,42.257322,2.03125
,42.2799672,1.9921875
,42.2803602,1.9775390625
,42.3252803,1.9384765625
,42.3255156,1.904296875
,42.3403294,1.8603515625
,42.3748882,1.8212890625
,42.3961685,1.77734375
,42.4013908,1.7431640625
,42.4341058,1.7041015625
,42.4393732,1.6796875
,42.482756,1.650390625
,42.4830721,1.6259765625
,42.51461,1.591796875
,42.5211481,1.5771484375
,42.5561689,1.552734375
,42.5773344,1.5185546875
,42.5830848,1.4892578125
,42.5987184,1.455078125
,42.6377709,1.4306640625
,42.6381638,1.416015625
,42.6734564,1.416015625
,42.6990849,1.42578125
,42.700905,1.474609375
,42.7357582,1.5380859375
,42.7551662,1.630859375
,42.7641364,1.71875
,42.7836557,1.806640625
,42.8010828,1.884765625
,42.8357828,1.9677734375
,42.8410286,2.0458984375
,42.8783635,2.0947265625
,42.883173,2.1435546875
,42.9332779,2.158203125
,42.9336664,2.16796875
,42.9447866,2.1484375
,42.9631448,2.119140625
,42.9795838,2.080078125
,43.0249618,2.0703125
,43.0252018,2.0361328125
,43.0460875,2.0166015625
,43.0621868,1.982421875
,43.1024088,1.953125
,43.1026925,1.904296875
,43.1386914,1.8701171875
,43.1390884,1.81640625
,43.1777013,1.796875
,43.181914,1.7626953125
,43.2308257,1.7236328125
,43.2310752,1.689453125
,43.2421046,1.6552734375
,43.2787965,1.62109375
,43.2842448,1.591796875
,43.3247497,1.5673828125
,43.3250607,1.54296875
,43.3410447,1.5283203125
,43.3761812,1.4990234375
,43.380737,1.474609375
,43.4194521,1.4404296875
,43.4491063,1.4208984375
,43.449345,1.38671875
,43.4632923,1.3623046875
,43.5012153,1.3427734375
,43.505941,1.3427734375
,43.5251928,1.34765625
,43.5415245,1.3916015625
,43.5883528,1.5283203125
,43.5886227,1.6455078125
,43.6033568,1.7626953125
,43.6224875,1.85546875
,43.6577407,1.9482421875
,43.6794566,2.021484375
,43.6844791,2.109375
,43.7003853,2.16796875
,43.7345187,2.2314453125
,43.7544176,2.2509765625
,43.7641605,2.24609375
,43.7821737,2.20703125
,43.8161017,2.1923828125
,43.8382734,2.1630859375
,43.8452865,2.119140625
,43.8823189,2.0849609375
,43.8826362,2.041015625
,43.9019887,2.0068359375
,43.9458968,1.9775390625
,43.946225,1.9384765625
,43.9628915,1.8896484375
,43.9968592,1.845703125
,44.0176062,1.796875
,44.0252023,1.7529296875
,44.0405091,1.7041015625
,44.0755381,1.6845703125
,44.0958365,1.6455078125
,44.1015571,1.6162109375
,44.148314,1.5966796875
,44.1486278,1.5625
,44.1640652,1.5283203125
,44.2100309,1.494140625
,44.2104205,1.474609375
,44.221807,1.4404296875
,44.2568429,1.416015625
,44.2618828,1.4013671875
,44.282417,1.38671875
,44.3174596,1.376953125
,44.3385409,1.396484375
,44.3442808,1.4453125
,44.3792065,1.5283203125
,44.3839993,1.62109375
,44.426681,1.6748046875
,44.4269278,1.767578125
,44.4471056,1.8798828125
,44.4621675,1.962890625
,44.4984174,2.021484375
,44.5037549,2.0751953125
,44.5498741,2.109375
,44.5501343,2.1142578125
,44.5631277,2.0947265625
,44.5991017,2.0751953125
,44.629054,2.041015625
,44.6294428,2.03125
,44.6433403,2.0068359375
,44.6906736,1.9873046875
,44.6913578,1.9580078125
,44.7040869,1.93359375
,44.7398248,1.89453125
,44.745264,1.85546875
,44.7853794,1.8212890625
,44.7856971,1.77734375
,44.8063105,1.7529296875
,44.8236065,1.71875
,44.8626664,1.689453125
,44.8629883,1.650390625
,44.8981696,1.62109375
,44.9248649,1.5869140625
,44.9251586,1.5673828125
,44.9433713,1.5380859375
,44.9786215,1.5283203125
,44.9812014,1.4990234375
,45.0172132,1.4794921875
,45.0488238,1.4501953125
,45.0490681,1.4208984375
,45.0633471,1.38671875
,45.0965893,1.3720703125
,45.1183876,1.357421875
,45.1213565,1.357421875
,45.1584671,1.4208984375
,45.1637234,1.4990234375
,45.1838606,1.5966796875
,45.2196019,1.689453125
,45.2403385,1.7919921875
,45.2447565,1.875
,45.2828984,1.9482421875
,45.2878041,2.0068359375
,45.3064076,2.0703125
,45.3237185,2.109375
,45.3586329,2.1533203125
,45.3636369,2.158203125
,45.4085817,2.138671875
,45.4089723,2.1142578125
,45.4270484,2.0751953125
,45.4462204,2.041015625
,45.486223,2.001953125
,45.4864715,1.9677734375
,45.5037415,1.9287109375
,45.5415336,1.89453125
,45.5419376,1.8603515625
,45.5783331,1.81640625
,45.6094032,1.7724609375
,45.6096542,1.7333984375
,45.6256176,1.6845703125
,45.6734018,1.6455078125
,45.6738484,1.6015625
,45.682384,1.572265625
,45.7217042,1.54296875
,45.742534,1.5380859375
,45.7429272,1.5185546875
,45.7801753,1.4794921875
,45.7852776,1.46484375
,45.820766,1.4306640625
,45.8255456,1.40625
,45.8435837,1.3720703125
,45.8809145,1.3623046875
,45.8843668,1.3427734375
,45.9044665,1.318359375
,45.9400125,1.298828125
,45.9446594,1.3037109375
,45.9815982,1.328125
,45.9861715,1.4013671875
,46.0023409,1.484375
,46.0521706,1.6064453125
,46.0524708,1.728515625
,46.0722222,1.767578125
,46.0859053,1.875
,46.1295716,1.953125
,46.1299712,2.03125
,46.1459547,2.0849609375
,46.1923622,2.12890625
,46.192678,2.1337890625
,46.2223735,2.12890625
,46.2226122,2.099609375
,46.2702233,2.08984375
,46.2706075,2.0556640625
,46.3002862,2.0361328125
,46.305191,2.001953125
,46.34023,1.9677734375
,46.3603742,1.923828125
,46.3660743,1.89453125
,46.411025,1.8505859375
,46.4114553,1.8017578125
,46.44188,1.767578125
,46.44627,1.728515625
,46.4886884,1.6845703125
,46.4890031,1.640625
,46.5063977,1.6064453125
,46.5511199,1.5625
,46.5515127,1.5283203125
,46.5644031,1.494140625
,46.5995364,1.474609375
,46.6047012,1.4453125
,46.638973,1.42578125
,46.6592122,1.3916015625
,46.6668708,1.3671875
,46.6864176,1.34765625
,46.7237459,1.318359375
,46.7308379,1.298828125
,46.7443457,1.2744140625
,46.7819943,1.2939453125
,46.7825436,1.328125
,46.8302135,1.4111328125
,46.8306121,1.50390625
,46.8595958,1.6162109375
,46.8670453,1.7041015625
,46.9029461,1.806640625
,46.908829,1.875
,46.9286883,1.9140625
,46.9451334,1.943359375
,46.983995,2.03125
,46.9842456,2.0654296875
,47.0196511,2.0947265625
,47.0467075,2.0947265625
,47.046949,2.0703125
,47.0819091,2.0458984375
,47.0873073,2.021484375
,47.1243902,1.9921875
,47.1246259,1.962890625
,47.174327,1.943359375
,47.1745678,1.9091796875
,47.2050371,1.8701171875
,47.2054105,1.8310546875
,47.25163,1.7822265625
,47.2520194,1.73828125
,47.2683421,1.69921875
,47.2852126,1.650390625
,47.3285222,1.62109375
,47.3290845,1.6015625
,47.345188,1.5673828125
,47.3808952,1.54296875
,47.4012083,1.513671875
,47.4065387,1.494140625
,47.4406293,1.46484375
,47.4681552,1.4453125
,47.4685838,1.4111328125
,47.4856766,1.4013671875
,47.5188925,1.376953125
,47.5399466,1.3671875
,47.545739,1.337890625
,47.5933732,1.3330078125
,47.5936171,1.3427734375
,47.613782,1.40625
,47.6253197,1.4794921875
,47.672061,1.6015625
,47.6723081,1.7138671875
,47.6878987,1.806640625
,47.7070683,1.89453125
,47.7421389,1.9677734375
,47.7481757,2.041015625
,47.7836778,2.1044921875
,47.7883602,2.158203125
,47.8283765,2.1875
,47.8588706,2.1875
,47.8591252,2.1728515625
,47.866308,2.158203125
,47.9006689,2.1337890625
,47.9205507,2.119140625
,47.9263695,2.0947265625
,47.9475519,2.0556640625
,47.9989157,2.0361328125
,47.9991579,1.9873046875
,48.0292669,1.953125
,48.0295847,1.904296875
,48.0467762,1.8798828125
,48.0823422,1.8408203125
,48.0877137,1.8017578125
,48.1248172,1.7626953125
,48.129705,1.728515625
,48.1705247,1.6845703125
,48.170768,1.66015625
,48.1849789,1.6162109375
,48.2204843,1.6015625
,48.2404441,1.572265625
,48.2488147,1.5576171875
,48.2843322,1.5185546875
,48.2875944,1.50390625
,48.3292092,1.4794921875
,48.3296009,1.4453125
,48.3638808,1.4111328125
,48.383928,1.3818359375
,48.3868669,1.3671875
,48.438618,1.34765625
,48.4389016,1.3525390625
,48.4473886,1.3720703125
,48.4856691,1.4404296875
,48.5148999,1.5283203125
,48.5151524,1.640625
,48.5265149,1.7333984375
,48.5461756,1.845703125
,48.5939516,1.93359375
,48.594207,2.0166015625
,48.6086965,2.099609375
,48.628813,2.1484375
,48.6477717,2.1923828125
,48.6855083,2.2119140625
,48.6905089,2.2119140625
,48.7266961,2.1826171875
,48.7313069,2.1533203125
,48.7467329,2.1142578125
,48.7676241,2.08984375
,48.8023655,2.060546875
,48.806978,2.0458984375
,48.8444484,2.0068359375
,48.8487627,1.97265625
,48.8920256,1.93359375
,48.8924137,1.8896484375
,48.9226784,1.845703125
,48.9273523,1.81640625
,48.9627536,1.7822265625
,48.9682573,1.73828125
,49.0062911,1.7041015625
,49.0066802,1.6650390625
,49.0502647,1.6357421875
,49.0505985,1.6015625
,49.0690155,1.58203125
,49.0865942,1.54296875
,49.1210502,1.5283203125
,49.1409245,1.5087890625
,49.1481697,1.484375
,49.1837413,1.4501953125
,49.1885276,1.4306640625
,49.2343158,1.40625
,49.2345634,1.376953125
,49.2550136,1.3671875
,49.2673493,1.3525390625
,49.2869492,1.396484375
,49.322971,1.4501953125
,49.3427476,1.5625
,49.3482264,1.650390625
,49.3837206,1.7529296875
,49.40538,1.826171875
,49.4102098,1.8994140625
,49.4310891,1.953125
,49.4510487,1.982421875
,49.4688099,1.9921875
,49.5037754,2.0556640625
,49.5088261,2.080078125
,49.5465092,2.080078125
,49.5494635,2.0556640625
,49.5960038,2.041015625
,49.5963886,2.021484375
,49.6111848,1.9921875
,49.6467298,1.9677734375
,49.6471012,1.9384765625
,49.6663426,1.9140625
,49.704144,1.8798828125
,49.7257311,1.8505859375
,49.7309844,1.806640625
,49.7665854,1.767578125
,49.7721187,1.7333984375
,49.8137535,1.6943359375
,49.8139994,1.6552734375
,49.8274509,1.6455078125
,49.8625426,1.630859375
,49.8848822,1.611328125
,49.8889209,1.5966796875
,49.9259147,1.5673828125
,49.9305711,1.5478515625
,49.9688002,1.5185546875
,49.9690369,1.50390625
,49.9886483,1.46484375
,50.0299385,1.455078125
,50.0301784,1.4306640625
,50.0784866,1.4111328125
,50.0787345,1.38671875
,50.0895431,1.3916015625
,50.125686,1.40625
,50.1315431,1.474609375
,50.1491469,1.552734375
,50.1848281,1.669921875
,50.1894533,1.7626953125
,50.2258049,1.8701171875
,50.2288033,1.9580078125
,50.2650865,2.03125
,50.2709874,2.099609375
,50.2901418,2.1533203125
,50.3258067,2.1923828125
,50.3305552,2.2119140625
,50.3676211,2.216796875
,50.3678567,2.1923828125
,50.4195083,2.1728515625
,50.4198945,2.1484375
,50.4399377,2.119140625
,50.4516355,2.0849609375
,50.5007309,2.060546875
,50.5011182,2.021484375
,50.5117171,1.9775390625
,50.5490115,1.9482421875
,50.5493991,1.8994140625
,50.5960706,1.8701171875
,50.5964678,1.826171875
,50.6100176,1.796875
,50.6567971,1.748046875
,50.6571041,1.7138671875
,50.6731002,1.6748046875
,50.7204247,1.640625
,50.7208597,1.6015625
,50.7284356,1.591796875
,50.766529,1.5625
,50.7690261,1.5478515625
,50.8078158,1.5185546875
,50.812774,1.4990234375
,50.8311085,1.46484375
,50.8755268,1.455078125
,50.8759172,1.4306640625
,50.9066205,1.4013671875
,50.9070228,1.3916015625
,50.9446027,1.3671875
,50.949762,1.3623046875
,50.9857923,1.3720703125
,50.9912689,1.4404296875
,51.0280863,1.513671875
,51.0327428,1.6162109375
,51.0480532,1.7138671875
,51.0917967,1.826171875
,51.0920512,1.9091796875
,51.1130026,1.9970703125
,51.130136,2.0654296875
,51.1695025,2.1337890625
,51.1697442,2.1875
,51.1905494,2.2119140625
,51.2327405,2.216796875
,51.2329803,2.1923828125
,51.2528705,2.16796875
,51.2854934,2.12890625
,51.2906466,2.1044921875
,51.3275049,2.0751953125
,51.3308019,2.041015625
,51.3749966,2.001953125
,51.3754751,1.9677734375
,51.3932802,1.923828125
,51.4284349,1.8798828125
,51.4289757,1.8408203125
,51.4677875,1.806640625
,51.4701012,1.767578125
,51.5051174,1.7333984375
,51.5101359,1.69921875
,51.5468014,1.650390625
,51.578961,1.6162109375
,51.5793895,1.5771484375
,51.5926358,1.552734375
,51.6107604,1.5185546875
,51.6552174,1.5087890625
,51.6554613,1.484375
,51.6706916,1.4599609375
,51.7078859,1.4306640625
,51.7110375,1.40625
,51.750227,1.3720703125
,51.7711152,1.34765625
,51.771933,1.318359375
,51.7909793,1.3037109375
,51.8272978,1.3134765625
,51.8324012,1.337890625
,51.8522253,1.4111328125
,51.8868897,1.5087890625
,51.891898,1.630859375
,51.937106,1.7236328125
,51.9374406,1.826171875
,51.9498837,1.8896484375
,51.9987884,1.9775390625
,51.9991496,1.982421875
,52.0116763,2.060546875
,52.0612017,2.0947265625
,52.061589,2.1142578125
,52.0926876,2.099609375
,52.0929327,2.0849609375
,52.137565,2.0556640625
,52.1378147,2.041015625
,52.1539498,2.01171875
,52.1698109,1.982421875
,52.2051933,1.9580078125
,52.2118701,1.93359375
,52.2621664,1.8994140625
,52.2624043,1.865234375
,52.2751162,1.826171875
,52.3116694,1.787109375
,52.3164997,1.7431640625
,52.3309576,1.7041015625
,52.3525153,1.6748046875
,52.3868253,1.6455078125
,52.3916889,1.6259765625
,52.4281533,1.5966796875
,52.4331707,1.572265625
,52.4685375,1.5576171875
,52.4733222,1.5234375
,52.5092957,1.4990234375
,52.5096251,1.46484375
,52.5317789,1.4501953125
,52.5757284,1.4208984375
,52.5759707,1.4111328125
,52.5936748,1.376953125
,52.6393998,1.3623046875
,52.639634,1.3427734375
,52.6547347,1.3671875
,52.6707305,1.4013671875
,52.704575,1.4990234375
,52.7253867,1.5966796875
,52.7306687,1.7138671875
,52.7697463,1.796875
,52.774641,1.8994140625
,52.7930469,1.9775390625
,52.8287321,2.0458984375
,52.857035,2.1142578125
,52.8573377,2.1630859375
,52.8758772,2.158203125
,52.8920381,2.177734375
,52.9283586,2.1923828125
,52.9331345,2.177734375
,52.9535205,2.158203125
,52.9974297,2.1337890625
,52.9976705,2.1044921875
,53.0132132,2.0703125
,53.050399,2.041015625
,53.0507053,2.001953125
,53.0849985,1.97265625
,53.1063978,1.9384765625
,53.1126195,1.89453125
,53.1541657,1.85546875
,53.1544331,1.806640625
,53.2022822,1.7724609375
,53.2024968,1.728515625
,53.2344921,1.6943359375
,53.2347349,1.6552734375
,53.2530328,1.6357421875
,53.2964984,1.6015625
,53.2967464,1.58203125
,53.3149446,1.552734375
,53.3583807,1.5283203125
,53.3587758,1.4990234375
,53.3756399,1.4794921875
,53.3928519,1.4404296875
,53.4357032,1.4306640625
,53.4359853,1.4111328125
,53.4527551,1.38671875
,53.496657,1.3671875
,53.4970494,1.357421875
,53.5150888,1.38671875
,53.5363476,1.4404296875
,53.5717364,1.5283203125
,53.5719777,1.62109375
,53.6075554,1.728515625
,53.6125347,1.81640625
,53.6480849,1.9091796875
,53.6712957,1.9775390625
,53.671681,2.05078125
,53.7163646,2.1044921875
,53.7166805,2.1533203125
,53.7479645,2.1875
,53.7551887,2.1826171875
,53.7907304,2.158203125
,53.7948758,2.12890625
,53.8126477,2.109375
,53.8569739,2.080078125
,53.8572613,2.060546875
,53.8735769,2.03125
,53.9109127,1.9921875
,53.9154103,1.953125
,53.95052,1.9287109375
,53.9715378,1.884765625
,53.9719413,1.8603515625
,54.0158837,1.8212890625
,54.0163184,1.787109375
,54.0470195,1.7431640625
,54.0544498,1.71875
,54.0953798,1.6796875
,54.0957273,1.6455078125
,54.1399521,1.6162109375
,54.1403545,1.58203125
,54.1532539,1.5673828125
,54.2029391,1.5380859375
,54.2032436,1.513671875
,54.2134549,1.4892578125
,54.2497025,1.455078125
,54.2708357,1.42578125
,54.2758533,1.396484375
,54.2940648,1.3671875
,54.3125267,1.357421875
,54.3597664,1.34765625
,54.3602301,1.3623046875
,54.3739827,1.42578125
,54.4107259,1.494140625
,54.4154934,1.6015625
,54.4363719,1.689453125
,54.4712976,1.787109375
,54.4715419,1.8603515625
,54.492463,1.9482421875
,54.5327273,2.0068359375
,54.533122,2.0654296875
,54.5789004,2.0947265625
,54.5791389,2.1240234375
,54.5988276,2.109375
,54.6141013,2.0947265625
,54.6578792,2.060546875
,54.6581393,2.041015625
,54.6785757,2.01171875
,54.6953389,2.001953125
,54.7369079,1.97265625
,54.7371467,1.943359375
,54.7556581,1.9091796875
,54.7998463,1.865234375
,54.8003393,1.826171875
,54.8162455,1.7822265625
,54.8606315,1.73828125
,54.8608859,1.69921875
,54.8822698,1.669921875
,54.8939984,1.6455078125
,54.9158879,1.611328125
,54.951783,1.58203125
,54.9545195,1.5576171875
,54.9906313,1.533203125
,55.010929,1.5087890625
,55.0183913,1.4990234375
,55.0331667,1.46484375
,55.0660246,1.4501953125
,55.0874392,1.4306640625
,55.0945981,1.416015625
,55.1318392,1.38671875
,55.1369956,1.3720703125
,55.1716727,1.3427734375
,55.1774015,1.328125
,55.1930712,1.318359375
,55.2301479,1.3671875
,55.2333957,1.435546875
,55.2810915,1.54296875
,55.2815304,1.640625
,55.3130491,1.748046875
,55.3159676,1.8359375
,55.3532881,1.93359375
,55.3553693,2.01171875
,55.3903494,2.080078125
,55.3997595,2.109375
,55.4161602,2.119140625
,55.4522684,2.1826171875
,55.4566011,2.197265625
,55.5026814,2.197265625
,55.5030731,2.1728515625
,55.5170205,2.1533203125
,55.5524636,2.119140625
,55.5577912,2.08984375
,55.5747391,2.05078125
,55.6096433,2.03125
,55.6144838,1.9970703125
,55.6577339,1.962890625
,55.657973,1.9287109375
,55.6782631,1.8798828125
,55.7128644,1.8359375
,55.717382,1.787109375
,55.7534,1.748046875
,55.7537791,1.7041015625
,55.7981686,1.6748046875
,55.7985551,1.640625
,55.8297907,1.6162109375
,55.8359505,1.5771484375
,55.8710321,1.552734375
,55.8913099,1.5185546875
,55.898307,1.494140625
,55.9144498,1.46484375
,55.948821,1.4453125
,55.9701617,1.4208984375
,55.9761058,1.416015625
,56.0130826,1.4013671875
,56.0182234,1.376953125
,56.0613015,1.3525390625
,56.0616519,1.328125
,56.0776649,1.318359375
,56.0960222,1.3232421875
,56.1320034,1.38671875
,56.1352847,1.4697265625
,56.1719494,1.5869140625
,56.1763503,1.689453125
,56.2166829,1.7919921875
,56.2170354,1.8798828125
,56.2541059,1.9677734375
,56.2587918,2.0361328125
,56.3101476,2.0654296875
,56.310385,2.1435546875
,56.317298,2.1826171875
,56.3575905,2.2119140625
,56.3579515,2.20703125
,56.4044322,2.1923828125
,56.4046681,2.158203125
,56.4192252,2.138671875
,56.4550753,2.099609375
,56.4581421,2.0751953125
,56.474916,2.0361328125
,56.496474,2.0166015625
,56.5330496,1.982421875
,56.5380367,1.9482421875
,56.5889893,1.904296875
,56.5892273,1.8701171875
,56.5993433,1.8212890625
,56.6349183,1.787109375
,56.6380314,1.748046875
,56.6541614,1.7041015625
,56.6751519,1.6748046875
,56.7116239,1.6455078125
,56.7440635,1.62109375
,56.7443091,1.5869140625
,56.7579996,1.5625
,56.7921568,1.533203125
,56.8125172,1.5087890625
,56.8154008,1.4794921875
,56.836262,1.4501953125
,56.8581497,1.42578125
,56.876006,1.4013671875
,56.9115306,1.376953125
,56.9338755,1.3525390625
,56.9386029,1.3427734375
,56.9776272,1.328125
,56.9778868,1.3671875
,56.9942262,1.435546875
,57.031224,1.552734375
,57.0370888,1.650390625
,57.0729875,1.7529296875
,57.0774574,1.8310546875
,57.1182076,1.9140625
,57.1184766,1.97265625
,57.1658789,2.041015625
,57.166286,2.0751953125
,57.1799052,2.099609375
,57.1965234,2.0947265625
,57.2314123,2.0947265625
,57.2522041,2.0654296875
,57.2577029,2.05078125
,57.3049457,2.03125
,57.3053346,2.0068359375
,57.3192892,1.982421875
,57.3401318,1.9482421875
,57.3594787,1.9140625
,57.3779791,1.8798828125
,57.3981264,1.85546875
,57.4343507,1.8212890625
,57.439108,1.787109375
,57.4889128,1.748046875
,57.4891575,1.708984375
,57.500052,1.6748046875
,57.5354043,1.640625
,57.5356685,1.6064453125
,57.5725139,1.5869140625
,57.5782658,1.572265625
,57.5971838,1.54296875
,57.6343023,1.5234375
,57.6544258,1.494140625
,57.6591456,1.474609375
,57.7057557,1.4404296875
,57.7060006,1.4208984375
,57.7168016,1.38671875
,57.7520014,1.376953125
,57.7564667,1.3525390625
,57.7924611,1.3427734375
,57.8147812,1.328125
,57.81962,1.337890625
,57.8617013,1.376953125
,57.8625868,1.46484375
,57.8778503,1.552734375
,57.9242991,1.6748046875
,57.9248243,1.787109375
,57.939284,1.826171875
,57.9861415,1.93359375
,57.9865792,2.021484375
,57.9977988,2.1044921875
,58.0343583,2.1630859375
,58.0389315,2.2216796875
,58.0768618,2.236328125
,58.0790066,2.2314453125
,58.0955349,2.20703125
,58.1421253,2.1923828125
,58.1424542,2.16796875
,58.1626429,2.1435546875
,58.1794109,2.1142578125
,58.2161927,2.080078125
,58.2189623,2.05078125
,58.2660335,2.001953125
,58.2664324,1.9580078125
,58.286637,1.9091796875
,58.2987073,1.8798828125
,58.3429628,1.8408203125
,58.343206,1.8017578125
,58.3638562,1.7578125
,58.3796945,1.71875
,58.4161564,1.6748046875
,58.4208042,1.640625
,58.437165,1.6015625
,58.4574694,1.5771484375
,58.5008389,1.552734375
,58.5011498,1.533203125
,58.5171188,1.50390625
,58.5514797,1.4892578125
,58.570988,1.46484375
,58.5802954,1.4306640625
,58.6160696,1.40625
,58.616365,1.3671875
,58.6574323,1.3525390625
,58.6578197,1.3330078125
,58.6926586,1.3232421875
,58.7131046,1.3330078125
,58.7191249,1.38671875
,58.7636883,1.4599609375
,58.7639343,1.5625
,58.7803373,1.66015625
,58.814064,1.728515625
,58.8340357,1.8310546875
,58.83859,1.9482421875
,58.8747209,2.041015625
,58.8802117,2.1044921875
,58.9147412,2.1630859375
,58.9196582,2.1923828125
,58.9548998,2.216796875
,58.9758656,2.20703125
,58.9812431,2.1875
,58.9989999,2.1484375
,59.04629,2.1337890625
,59.0466884,2.1044921875
,59.0595487,2.08984375
,59.0960184,2.060546875
,59.1013227,2.03125
,59.1400948,1.9921875
,59.1403698,1.9482421875
,59.1586504,1.89453125
,59.2024182,1.8701171875
,59.2026943,1.8310546875
,59.2194881,1.787109375
,59.2568485,1.7529296875
,59.2593654,1.7138671875
,59.2959516,1.6796875
,59.3252283,1.6455078125
,59.3254642,1.6162109375
,59.3379675,1.591796875
,59.3738352,1.5673828125
,59.3803445,1.552734375
,59.4187601,1.5234375
,59.4190116,1.494140625
,59.4562431,1.4697265625
,59.4758342,1.4404296875
,59.4817819,1.4111328125
,59.529148,1.3916015625
,59.5293835,1.3623046875
,59.5384547,1.3671875
,59.5747768,1.396484375
,59.5800348,1.474609375
,59.6163174,1.5576171875
,59.6204348,1.66015625
,59.655365,1.7431640625
,59.6762496,1.8359375
,59.6814163,1.904296875
,59.7186548,1.9775390625
,59.7189713,2.0263671875
,59.7618527,2.0849609375
,59.7620989,2.1142578125
,59.7825019,2.12890625
,59.818643,2.109375
,59.821533,2.099609375
,59.8710388,2.0703125
,59.8713384,2.041015625
,59.8821701,2.0166015625
,59.898589,1.9873046875
,59.9327556,1.9677734375
,59.9534862,1.943359375
,59.9612131,1.9140625
,59.9971976,1.875
,60.0018783,1.8359375
,60.037361,1.796875
,60.0422273,1.7578125
,60.0610592,1.7236328125
,60.0795086,1.7236328125
,60.120043,1.708984375
,60.120322,1.689453125
,60.1561808,1.6748046875
,60.1825158,1.6455078125
,60.1827553,1.62109375
,60.2146648,1.5966796875
,60.2358785,1.5771484375
,60.2389446,1.54296875
,60.2745848,1.5283203125
,60.2795348,1.5087890625
,60.3160295,1.4892578125
,60.3207562,1.4599609375
,60.3707827,1.4453125
,60.371172,1.4208984375
,60.3835051,1.40625
,60.4011271,1.4111328125
,60.4197422,1.474609375
,60.4563853,1.552734375
,60.4618802,1.66015625
,60.5019173,1.7578125
,60.5023104,1.845703125
,60.5379253,1.93359375
,60.5431214,2.0068359375
,60.5792001,2.0849609375
,60.5822741,2.1435546875
,60.6199169,2.2021484375
,60.6203965,2.236328125
,60.6569726,2.255859375
,60.6616881,2.24609375
,60.6995296,2.216796875
,60.699938,2.1826171875
,60.7372217,2.1533203125
,60.7672179,2.119140625
,60.7675691,2.0849609375
,60.7836711,2.060546875
,60.8015654,2.01171875
,60.8379628,1.9873046875
,60.8427413,1.953125
,60.8622973,1.9189453125
,60.9059862,1.875
,60.9064478,1.8359375
,60.9264989,1.7919921875
,60.944669,1.748046875
,60.9590077,1.7041015625
,60.995664,1.6845703125
,61.0003944,1.650390625
,61.0336256,1.62109375
,61.0546723,1.5966796875
,61.0628896,1.5673828125
,61.1081539,1.533203125
,61.1083924,1.513671875
,61.1255765,1.4990234375
,61.1419017,1.46484375
,61.1863979,1.4453125
,61.18664,1.4208984375
,61.203448,1.396484375
,61.2220417,1.376953125
,61.2425866,1.3720703125
,61.2812769,1.38671875
,61.3130208,1.4453125
,61.3134796,1.5283203125
,61.3243024,1.591796875
,61.3403475,1.6552734375
,61.3755907,1.796875
,61.396178,1.89453125
,61.4021151,1.9873046875
,61.4511341,2.0703125
,61.4513721,2.1142578125
,61.4711996,2.16796875
,61.4841281,2.177734375
,61.5187481,2.1826171875
,61.5394066,2.1533203125
,61.5424017,2.138671875
,61.5784423,2.1142578125
,61.5814924,2.0947265625
,61.6163014,2.0654296875
,61.6367287,2.0458984375
,61.6439676,2.0166015625
,61.6783859,1.982421875
,61.6985826,1.943359375
,61.7030515,1.9189453125
,61.7472686,1.875
,61.7477664,1.8408203125
,61.7648906,1.8017578125
,61.7842696,1.7626953125
,61.8031595,1.7236328125
,61.8415683,1.6845703125
,61.8613209,1.650390625
,61.8616083,1.62109375
,61.8949707,1.611328125
,61.9159065,1.5869140625
,61.9229645,1.5673828125
,61.9668865,1.54296875
,61.9671588,1.513671875
,61.9965134,1.484375
,62.003233300000005,1.455078125
,62.021573200000006,1.42578125
,62.0576205,1.4111328125
,62.0624634,1.40625
,62.105737700000006,1.396484375
,62.1060289,1.435546875
,62.1254057,1.4990234375
,62.144770199999996,1.611328125
,62.1790225,1.69921875
,62.1840339,1.8017578125
,62.2336239,1.8798828125
,62.2339444,1.9580078125
,62.264129800000006,2.01171875
,62.2644159,2.0849609375
,62.309811499999995,2.1240234375
,62.3100518,2.1533203125
,62.324056299999995,2.1533203125
,62.36036489999999,2.138671875
,62.3648438,2.109375
,62.4013066,2.099609375
,62.404508199999995,2.0703125
,62.439664199999996,2.041015625
,62.442537,2.0263671875
,62.4629724,1.9970703125
,62.509916200000006,1.9677734375
,62.5101679,1.9287109375
,62.524131800000006,1.89453125
,62.544495999999995,1.85546875
,62.5862504,1.806640625
,62.5864928,1.7626953125
,62.608294,1.7333984375
,62.6237934,1.69921875
,62.6592175,1.6796875
,62.6642516,1.650390625
,62.6997119,1.62109375
,62.7199794,1.6015625
,62.72486120000001,1.5673828125
,62.7603024,1.54296875
,62.763098600000006,1.513671875
,62.782461600000005,1.4990234375
,62.819033399999995,1.474609375
,62.824017100000006,1.455078125
,62.8667583,1.42578125
,62.8670073,1.40625
,62.8862383,1.376953125
,62.9312206,1.3671875
,62.931818699999994,1.3623046875
,62.9609473,1.4013671875
,62.961275799999996,1.4599609375
,62.9989075,1.5625
,63.028901000000005,1.66015625
,63.029212400000006,1.77734375
,63.044804,1.875
,63.0794367,1.953125
,63.107986800000006,2.03125
,63.108336699999995,2.0947265625
,63.153287899999995,2.1484375
,63.153679600000004,2.1875
,63.166075899999996,2.236328125
,63.1849976,2.236328125
,63.2303953,2.2216796875
,63.2306437,2.1875
,63.2458683,2.158203125
,63.283452100000005,2.119140625
,63.2863126,2.08984375
,63.301903800000005,2.0458984375
,63.3364856,2.0263671875
,63.3574143,1.9970703125
,63.3649472,1.953125
,63.403946399999995,1.9091796875
,63.404345000000006,1.865234375
,63.44061189999999,1.8310546875
,63.4664197,1.787109375
,63.466695200000004,1.748046875
,63.4829977,1.708984375
,63.5199157,1.6796875
,63.5225786,1.6455078125
,63.561743199999995,1.62109375
,63.564706900000004,1.5869140625
,63.6054755,1.5673828125
,63.6057373,1.5380859375
,63.64099160000001,1.5087890625
,63.6609091,1.4697265625
,63.6629537,1.46484375
,63.6971185,1.4453125
,63.7179254,1.4111328125
,63.7259311,1.38671875
,63.761258999999995,1.3525390625
,63.7646216,1.337890625
,63.8089985,1.337890625
,63.809246,1.3818359375
,63.82725979999999,1.455078125
,63.848195399999994,1.5185546875
,63.8644645,1.5869140625
,63.90166429999999,1.71875
,63.903346799999994,1.8212890625
,63.942956499999994,1.9189453125
,63.9472451,1.9921875
,63.997114999999994,2.0556640625
,63.997506099999995,2.109375
,64.0084836,2.1240234375
,64.0424203,2.12890625
,64.0426578,2.1044921875
,64.0783116,2.0947265625
,64.1040714,2.0703125
,64.1043092,2.05078125
,64.1397884,2.021484375
,64.1605027,1.9970703125
,64.166462,1.9677734375
,64.1893149,1.9580078125
,64.2055019,1.923828125
,64.2471675,1.8994140625
,64.2475703,1.865234375
,64.2951623,1.8310546875
,64.2955525,1.787109375
,64.30689,1.7724609375
,64.357653,1.728515625
,64.3580397,1.689453125
,64.3693702,1.6552734375
,64.3855224,1.6162109375
,64.4218309,1.5966796875
,64.4265047,1.5771484375
,64.4639278,1.5625
,64.4643369,1.5380859375
,64.5004383,1.513671875
,64.5205645,1.4892578125
,64.5262794,1.455078125
,64.5425752,1.4208984375
,64.5777478,1.4111328125
,64.5989736,1.3916015625
,64.6054643,1.3671875
,64.6481513,1.3671875
,64.6484024,1.38671875
,64.6843917,1.455078125
,64.6871992,1.5283203125
,64.7278397,1.6455078125
,64.7280953,1.7333984375
,64.7735377,1.796875
,64.7737851,1.8798828125
,64.7863148,1.97265625
,64.8221426,2.041015625
,64.8272295,2.109375
,64.8676437,2.1435546875
,64.8680505,2.1728515625
,64.9036227,2.1630859375
,64.9090447,2.1484375
,64.9249624,2.1142578125
,64.9609288,2.1142578125
,64.96837,2.099609375
,64.9855178,2.0654296875
,65.0204813,2.0361328125
,65.0408441,2.0068359375
,65.0489095,1.9677734375
,65.0838929,1.923828125
,65.0892325,1.8896484375
,65.1045147,1.845703125
,65.1399432,1.81640625
,65.1608865,1.7822265625
,65.1659138,1.748046875
,65.2080667,1.7138671875
,65.208435,1.6943359375
,65.2441864,1.6650390625
,65.249794,1.640625
,65.2856366,1.6162109375
,65.2860522,1.58203125
,65.318818,1.5673828125
,65.3509736,1.54296875
,65.3512918,1.5185546875
,65.3680933,1.4892578125
,65.4127718,1.4599609375
,65.4131627,1.42578125
,65.4288828,1.4013671875
,65.445197,1.3720703125
,65.4822666,1.3720703125
,65.4843991,1.3720703125
,65.5195887,1.4208984375
,65.541517,1.494140625
,65.5485235,1.591796875
,65.5845602,1.689453125
,65.5875505,1.796875
,65.6232836,1.8896484375
,65.6288072,1.962890625
,65.6783578,2.041015625
,65.6786747,2.099609375
,65.6875244,2.16796875
,65.7251544,2.20703125
,65.7255634,2.236328125
,65.7636936,2.2216796875
,65.7843687,2.2021484375
,65.7892395,2.16796875
,65.8340937,2.1337890625
,65.8343336,2.099609375
,65.8458824,2.08984375
,65.8953967,2.05078125
,65.8958243,2.021484375
,65.9063988,1.9873046875
,65.9437832,1.943359375
,65.9740696,1.8994140625
,65.9746338,1.85546875
,65.99122,1.8212890625
,66.0070465,1.77734375
,66.0498379,1.748046875
,66.0500763,1.708984375
,66.0674107,1.6845703125
,66.1049267,1.650390625
,66.1095904,1.6259765625
,66.1463879,1.5966796875
,66.1508412,1.572265625
,66.1670356,1.5380859375
,66.1859637,1.5283203125
,66.2216403,1.494140625
,66.2391381,1.494140625
,66.2481547,1.4697265625
,66.2990455,1.4404296875
,66.2994528,1.42578125
,66.3293713,1.40625
,66.329618,1.396484375
,66.3479941,1.416015625
,66.3931587,1.494140625
,66.3935437,1.5771484375
,66.4073647,1.6796875
,66.4430605,1.7724609375
,66.4479381,1.8603515625
,66.4860009,1.9287109375
,66.5074833,2.001953125
,66.5078793,2.0556640625
,66.548203,2.099609375
,66.5682873,2.12890625
,66.5685999,2.1240234375
,66.6118057,2.1240234375
,66.6122314,2.0947265625
,66.6300465,2.0849609375
,66.649416,2.05078125
,66.6834675,2.03125
,66.7038701,1.9970703125
,66.7084693,1.962890625
,66.7268066,1.9287109375
,66.7660893,1.9140625
,66.766329,1.875
,66.787474,1.8408203125
,66.8090077,1.796875
,66.8449929,1.7578125
,66.8505939,1.708984375
,66.8842585,1.6796875
,66.889975,1.6455078125
,66.9066922,1.6064453125
,66.9418146,1.5869140625
,66.9621542,1.5673828125
,66.966902,1.54296875
,67.0159952,1.5234375
,67.0165812,1.50390625
,67.0401408,1.484375
,67.0502215,1.455078125
,67.067849,1.42578125
,67.1014067,1.4111328125
,67.1214228,1.396484375
,67.1260166,1.396484375
,67.1646523,1.3916015625
,67.169469,1.42578125
,67.2059646,1.50390625
,67.2113019,1.5869140625
,67.2310523,1.69921875
,67.2510259,1.796875
,67.2853989,1.875
,67.3076293,1.97265625
,67.3079669,2.080078125
,67.328931,2.1533203125
,67.3639651,2.2216796875
,67.3693537,2.2607421875
,67.4042523,2.2900390625
,67.4251231,2.28515625
,67.4308875,2.265625
,67.4486999,2.236328125
,67.4949074,2.216796875
,67.4951047,2.1875
,67.5258346,2.1728515625
,67.5290711,2.1484375
,67.5727611,2.109375
,67.5730158,2.0703125
,67.6079978,2.0263671875
,67.6110056,1.9775390625
,67.6286319,1.9287109375
,67.6623879,1.8994140625
,67.6828552,1.8603515625
,67.690694,1.826171875
,67.7302111,1.7822265625
,67.7306004,1.73828125
,67.7751665,1.69921875
,67.7754124,1.6748046875
,67.7866046,1.640625
,67.823641,1.62109375
,67.8541941,1.6015625
,67.8546248,1.5673828125
,67.8707374,1.5380859375
,67.9151793,1.4990234375
,67.9154953,1.4697265625
,67.9316815,1.435546875
,67.9747728,1.4013671875
,67.9750201,1.376953125
,67.9888033,1.3818359375
,68.0241048,1.416015625
,68.0302508,1.494140625
,68.0657182,1.5771484375
,68.0705403,1.6748046875
,68.1038505,1.767578125
,68.1232867,1.845703125
,68.1297613,1.9140625
,68.1644179,1.9873046875
,68.185795,2.0458984375
,68.1864122,2.080078125
,68.221515,2.12890625
,68.2424504,2.1435546875
,68.2519838,2.138671875
,68.2713465,2.119140625
,68.3160296,2.109375
,68.3162913,2.0947265625
,68.3321919,2.0751953125
,68.3662531,2.041015625
,68.370327,2.021484375
,68.4048379,1.9921875
,68.4104887,1.962890625
,68.4470536,1.9189453125
,68.4522444,1.875
,68.487778,1.8408203125
,68.4934284,1.7919921875
,68.5140908,1.748046875
,68.5295447,1.7138671875
,68.5799639,1.69921875
,68.5803493,1.6650390625
,68.5918073,1.650390625
,68.6110523,1.6259765625
,68.6567277,1.6015625
,68.6570107,1.572265625
,68.6715817,1.552734375
,68.6897012,1.5087890625
,68.7246329,1.5087890625
,68.7298829,1.484375
,68.7673249,1.4599609375
,68.7720674,1.42578125
,68.7910119,1.416015625
,68.8286365,1.4111328125
,68.8495736,1.4501953125
,68.8524652,1.5087890625
,68.8683007,1.58203125
,68.9077874,1.6748046875
,68.9397355,1.7578125
,68.9400846,1.8359375
,68.9508796,1.8994140625
,69.0014086,1.962890625
,69.001819,2.001953125
,69.0129492,2.03125
,69.0634591,2.0361328125
,69.0642956,2.0361328125
,69.0690024,2.0166015625
,69.1049449,2.001953125
,69.1095314,1.9921875
,69.148106,1.9677734375
,69.1527802,1.9482421875
,69.1725038,1.9287109375
,69.1935611,1.9140625
,69.2284418,1.875
,69.234688,1.8408203125
,69.250697,1.796875
,69.2715107,1.7724609375
,69.2923381,1.7333984375
,69.3131958,1.71875
,69.3316179,1.6845703125
,69.3739868,1.6552734375
,69.3743265,1.6162109375
,69.4031363,1.5869140625
,69.4077281,1.552734375
,69.4422181,1.5478515625
,69.4631934,1.5234375
,69.4703312,1.494140625
,69.5079004,1.4599609375
,69.5120421,1.4208984375
,69.5501137,1.3916015625
,69.5504028,1.357421875
,69.5883218,1.3330078125
,69.6079807,1.3037109375
,69.6082579,1.30859375
,69.6430895,1.3232421875
,69.6648928,1.376953125
,69.6727285,1.455078125
,69.7101731,1.5673828125
,69.7104602,1.6552734375
,69.7609357,1.7578125
,69.7611853,1.8505859375
,69.7751174,1.923828125
,69.7959152,1.97265625
,69.8106505,2.0068359375
,69.8540125,2.0947265625
,69.8543291,2.1337890625
,69.874535,2.1435546875
,69.8934905,2.119140625
,69.932087,2.0947265625
,69.9324787,2.0654296875
,69.9676192,2.041015625
,69.9945967,2.0068359375
,69.9948397,1.9873046875
,70.0117549,1.962890625
,70.0478342,1.9287109375
,70.0535769,1.884765625
,70.1042866,1.85546875
,70.1052354,1.8359375
,70.1152724,1.8212890625
,70.1345358,1.7724609375
,70.1504357,1.7236328125
,70.1966286,1.6943359375
,70.1970406,1.650390625
,70.2137082,1.6259765625
,70.2587248,1.591796875
,70.2590854,1.5673828125
,70.2738906,1.5283203125
,70.3217272,1.50390625
,70.3219682,1.474609375
,70.3432649,1.4794921875
,70.3535808,1.4599609375
,70.3733839,1.4697265625
,70.4085106,1.4306640625
,70.4133225,1.396484375
,70.4496981,1.357421875
,70.4541699,1.3330078125
,70.4748601,1.3427734375
,70.4921882,1.38671875
,70.5398821,1.4794921875
,70.5401272,1.5869140625
,70.5613236,1.6943359375
,70.573547,1.787109375
,70.6193928,1.884765625
,70.6198218,1.962890625
,70.6342665,2.03125
,70.6525528,2.0947265625
,70.6952292,2.1142578125
,70.6955283,2.1533203125
,70.7125664,2.1875
,70.7591939,2.1875
,70.7595829,2.1630859375
,70.7749419,2.1337890625
,70.8214107,2.1044921875
,70.821659,2.080078125
,70.8351468,2.0458984375
,70.8841004,2.021484375
,70.8845138,1.9873046875
,70.8933796,1.97265625
,70.9118041,1.9482421875
,70.9514817,1.9189453125
,70.9539593,1.875
,70.9887516,1.8359375
,70.994336,1.787109375
,71.0323105,1.7529296875
,71.037293,1.7236328125
,71.0517192,1.6845703125
,71.0886726,1.6650390625
,71.0926703,1.6455078125
,71.1143161,1.650390625
,71.1500831,1.6259765625
,71.1550078,1.5869140625
,71.1890956,1.552734375
,71.2090663,1.5234375
,71.2119875,1.4892578125
,71.2467206,1.4697265625
,71.2517213,1.4404296875
,71.2880678,1.42578125
,71.3082007,1.42578125
,71.3129736,1.4453125
,71.3490353,1.494140625
,71.3787966,1.58203125
,71.3790433,1.6796875
,71.3923847,1.7626953125
,71.4261021,1.85546875
,71.4470636,1.9287109375
,71.4524069,2.001953125
,71.4894479,2.05078125
,71.4952107,2.1142578125
,71.5161411,2.12890625
,71.5494431,2.1240234375
,71.5706171,2.1044921875
,71.5758526,2.080078125
,71.5941542,2.05078125
,71.6299714,2.05078125
,71.6347794,2.03125
,71.6747167,2.001953125
,71.6751478,1.9775390625
,71.7118917,1.9384765625
,71.7170052,1.8994140625
,71.7675665,1.85546875
,71.767953,1.8212890625
,71.7744882,1.77734375
,71.8105766,1.7529296875
,71.8131982,1.7138671875
,71.8513353,1.6796875
,71.8559973,1.650390625
,71.9062862,1.6259765625
,71.9065357,1.591796875
,71.9166411,1.572265625
,71.9338504,1.5478515625
,71.9547751,1.533203125
,71.9752061,1.50390625
,72.0151029,1.4892578125
,72.0153082,1.4697265625
,72.0348908,1.435546875
,72.0555429,1.40625
,72.0943588,1.376953125
,72.0947541,1.3720703125
,72.1121468,1.3720703125
,72.1473609,1.4306640625
,72.167778,1.5087890625
,72.1731447,1.611328125
,72.2070197,1.7041015625
,72.2273605,1.8017578125
,72.2348223,1.8798828125
,72.2698423,1.9677734375
,72.2903791,2.03125
,72.2958239,2.109375
,72.3187131,2.1240234375
,72.3344523,2.12890625
,72.3702754,2.1728515625
,72.3735649,2.1826171875
,72.4068889,2.1826171875
,72.4285278,2.16796875
,72.4376831,2.1484375
,72.4568603,2.1142578125
,72.4962313,2.0849609375
,72.496466,2.05078125
,72.5162792,2.0263671875
,72.5348851,1.9873046875
,72.5705937,1.9482421875
,72.5771569,1.904296875
,72.6202589,1.8603515625
,72.6205126,1.8115234375
,72.6387811,1.7822265625
,72.6586459,1.7431640625
,72.6751393,1.6943359375
,72.7167531,1.6650390625
,72.7169908,1.6357421875
,72.7637419,1.611328125
,72.7641333,1.58203125
,72.7775045,1.5625
,72.8256304,1.5283203125
,72.8260179,1.50390625
,72.8348549,1.4697265625
,72.8873175,1.4453125
,72.8876617,1.416015625
,72.8965864,1.4013671875
,72.917764,1.3720703125
,72.9655351,1.3525390625
,72.9660256,1.3525390625
,72.9777676,1.376953125
,72.9969455,1.435546875
,73.0151159,1.5185546875
,73.0587654,1.640625
,73.0591514,1.73828125
,73.0748085,1.8359375
,73.1212343,1.9091796875
,73.1216348,1.9921875
,73.1374915,2.0556640625
,73.1834245,2.1240234375
,73.1842455,2.1533203125
,73.1983734,2.1435546875
,73.2146026,2.1435546875
,73.2347053,2.1337890625
,73.275005,2.109375
,73.275394,2.0947265625
,73.2962204,2.0703125
,73.338048,2.0361328125
,73.3384356,2.001953125
,73.3679227,1.9677734375
,73.3800093,1.9287109375
,73.396441,1.8896484375
,73.4308254,1.865234375
,73.4371626,1.8310546875
,73.4557713,1.796875
,73.4902682,1.7529296875
,73.5109986,1.71875
,73.5165161,1.6845703125
,73.5526619,1.650390625
,73.5529244,1.611328125
,73.5893726,1.591796875
,73.5944685,1.5771484375
,73.6324853,1.5478515625
,73.6372628,1.5234375
,73.6577015,1.4892578125
,73.6946066,1.4697265625
,73.6994179,1.4453125
,73.7403544,1.4208984375
,73.7407465,1.3818359375
,73.7565284,1.3720703125
,73.7919337,1.357421875
,73.7946826,1.3671875
,73.8304717,1.3916015625
,73.8498298,1.474609375
,73.857196,1.5576171875
,73.894097,1.650390625
,73.8943479,1.728515625
,73.9285574,1.8310546875
,73.9492897,1.9140625
,73.9568559,1.97265625
,74.0037565,2.03125
,74.0039975,2.0654296875
,74.0185486,2.08984375
,74.0664986,2.080078125
,74.0668099,2.0556640625
,74.080542,2.0263671875
,74.0993608,2.0068359375
,74.116283,1.9775390625
,74.1517918,1.9580078125
,74.157162,1.9384765625
,74.2046902,1.9189453125
,74.2052853,1.884765625
,74.2186128,1.845703125
,74.2547644,1.8115234375
,74.2577519,1.767578125
,74.2951212,1.728515625
,74.2954444,1.6845703125
,74.3321746,1.66015625
,74.3365867,1.630859375
,74.3792154,1.5966796875
,74.3794649,1.5673828125
,74.3993426,1.5478515625
,74.4439171,1.5234375
,74.4443073,1.513671875
,74.4549364,1.484375
,74.4895989,1.4794921875
,74.5104049,1.455078125
,74.517979,1.4306640625
,74.5668006,1.4013671875
,74.5670555,1.38671875
,74.5794735,1.3720703125
,74.6146241,1.3623046875
,74.6200688,1.3916015625
,74.6362424,1.4453125
,74.6777302,1.5478515625
,74.677975,1.640625
,74.6968792,1.7529296875
,74.7172686,1.8359375
,74.7510752,1.9287109375
,74.7720718,1.9970703125
,74.7792002,2.060546875
,74.7957278,2.109375
,74.8301933,2.16796875
,74.8507436,2.1875
,74.8551364,2.1875
,74.8962452,2.1728515625
,74.8964875,2.138671875
,74.9186385,2.109375
,74.9385767,2.0751953125
,74.9742468,2.05078125
,74.994631,2.0166015625
,75.001904,1.982421875
,75.0177485,1.93359375
,75.0517963,1.904296875
,75.0714123,1.865234375
,75.0774921,1.826171875
,75.1146067,1.77734375
,75.119403,1.73828125
,75.1622972,1.69921875
,75.162543,1.6552734375
,75.1766663,1.611328125
,75.210448,1.5966796875
,75.2312697,1.572265625
,75.2383568,1.5380859375
,75.2740334,1.513671875
,75.2788458,1.484375
,75.31584,1.4599609375
,75.3208288,1.4208984375
,75.3650494,1.396484375
,75.3653992,1.357421875
,75.3780507,1.34765625
,75.3980212,1.318359375
,75.433626,1.30859375
,75.438666,1.30859375
,75.4744551,1.3671875
,75.4947382,1.435546875
,75.4996776,1.5380859375
,75.5199831,1.650390625
,75.5350577,1.7431640625
,75.5716,1.845703125
,75.5920459,1.9287109375
,75.5971846,2.01171875
,75.6327673,2.080078125
,75.6592805,2.138671875
,75.6595234,2.16796875
,75.707239,2.1826171875
,75.707625,2.16796875
,75.7371119,2.109375
,75.7373624,2.0458984375
,75.7722668,2.0458984375
,75.7929241,2.03125
,75.79907,2.0166015625
,75.8480525,1.982421875
,75.8482932,1.953125
,75.8602074,1.923828125
,75.8959656,1.875
,75.9012844,1.8310546875
,75.9164714,1.7822265625
,75.9522232,1.7578125
,75.9727435,1.7236328125
,75.9782531,1.6943359375
,76.0131169,1.66015625
,76.0343967,1.630859375
,76.0416803,1.591796875
,76.0609028,1.5576171875
,76.0786611,1.5283203125
,76.0966685,1.513671875
,76.131407,1.484375
,76.1519273,1.455078125
,76.1594709,1.4306640625
,76.1968769,1.3916015625
,76.2000287,1.3671875
,76.2354541,1.337890625
,76.2567542,1.318359375
,76.2571548,1.30859375
,76.2939154,1.34765625
,76.2994623,1.4111328125
,76.3433756,1.5087890625
,76.3436209,1.6015625
,76.3599287,1.708984375
,76.3961956,1.787109375
,76.4013739,1.8701171875
,76.4171189,1.9384765625
,76.4529405,2.0166015625
,76.4575418,2.060546875
,76.493294,2.1337890625
,76.5152149,2.1533203125
,76.5195992,2.138671875
,76.560217,2.119140625
,76.560535,2.0849609375
,76.6049592,2.0556640625
,76.6053554,2.0263671875
,76.6216138,1.9970703125
,76.6388685,1.9580078125
,76.6867112,1.93359375
,76.686951,1.8994140625
,76.7028222,1.8603515625
,76.7209901,1.81640625
,76.7571063,1.787109375
,76.7625276,1.7431640625
,76.7992335,1.7041015625
,76.8297352,1.669921875
,76.8301299,1.630859375
,76.8392611,1.6064453125
,76.8754434,1.58203125
,76.8808148,1.5625
,76.901884,1.5380859375
,76.9397723,1.5087890625
,76.940161,1.4794921875
,76.9766543,1.4501953125
,76.9967059,1.416015625
,76.9995973,1.4111328125
,77.0491794,1.38671875
,77.0494167,1.3623046875
,77.0789202,1.34765625
,77.0791728,1.3671875
,77.1131678,1.4013671875
,77.1348597,1.4990234375
,77.1441372,1.6015625
,77.1595694,1.6845703125
,77.2052462,1.7919921875
,77.2056362,1.875
,77.2215953,1.9580078125
,77.2652382,2.0263671875
,77.265711,2.0947265625
,77.2810733,2.138671875
,77.3272881,2.1630859375
,77.3276037,2.158203125
,77.3566861,2.1533203125
,77.3614663,2.1240234375
,77.3794561,2.1044921875
,77.4148786,2.0703125
,77.4358146,2.041015625
,77.4406966,2.0166015625
,77.4619501,1.9775390625
,77.4981905,1.9384765625
,77.5006518,1.89453125
,77.5374878,1.865234375
,77.5580901,1.8212890625
,77.5596886,1.7919921875
,77.5950897,1.7578125
,77.6153953,1.7236328125
,77.6224927,1.6845703125
,77.6417159,1.650390625
,77.6766535,1.611328125
,77.69803,1.5771484375
,77.6985125,1.552734375
,77.7372505,1.5380859375
,77.7401301,1.513671875
,77.77584,1.4990234375
,77.7809077,1.4794921875
,77.8246102,1.4404296875
,77.8248533,1.4111328125
,77.8603754,1.376953125
,77.8645433,1.3623046875
,77.8799776,1.328125
,77.915437,1.3427734375
,77.9207103,1.376953125
,77.9562974,1.455078125
,77.9611062,1.54296875
,77.9820414,1.650390625
,78.0028065,1.73828125
,78.0454272,1.845703125
,78.0456816,1.9287109375
,78.0614022,2.021484375
,78.106354,2.1044921875
,78.1066825,2.16796875
,78.1213942,2.216796875
,78.1561132,2.2314453125
,78.1768551,2.2265625
,78.1827106,2.2021484375
,78.2320418,2.16796875
,78.2324318,2.1240234375
,78.2458302,2.0556640625
,78.2620932,1.9921875
,78.2820769,1.9970703125
,78.3022746,1.97265625
,78.3369031,1.9482421875
,78.3569134,1.9189453125
,78.3624888,1.884765625
,78.3986026,1.8359375
,78.4043981,1.796875
,78.4232643,1.7578125
,78.4418448,1.708984375
,78.4776148,1.6845703125
,78.480647,1.6552734375
,78.5154515,1.6357421875
,78.5354369,1.62109375
,78.5427039,1.6162109375
,78.5801265,1.5966796875
,78.584753,1.5771484375
,78.6011457,1.5576171875
,78.6353018,1.5478515625
,78.657114,1.5283203125
,78.6614306,1.5185546875
,78.6969316,1.494140625
,78.7172534,1.474609375
,78.723647,1.4697265625
,78.7605414,1.4794921875
,78.762467,1.5234375
,78.7815253,1.5869140625
,78.822568,1.689453125
,78.8229531,1.7724609375
,78.869139,1.8603515625
,78.8695278,1.9189453125
,78.883014,1.982421875
,78.9311212,2.0263671875
,78.9314975,2.0751953125
,78.9608377,2.0947265625
,78.9610831,2.1240234375
,78.9969697,2.1142578125
,79.0028307,2.0947265625
,79.040402,2.060546875
,79.0407968,2.05078125
,79.0773636,2.021484375
,79.0984703,1.9873046875
,79.1057899,1.9580078125
,79.1245746,1.9189453125
,79.1625482,1.8798828125
,79.1628175,1.8359375
,79.183471,1.806640625
,79.204102,1.7626953125
,79.2405943,1.728515625
,79.243693,1.689453125
,79.2795784,1.6455078125
,79.3053022,1.6064453125
,79.3059628,1.5869140625
,79.3218456,1.5576171875
,79.3682063,1.533203125
,79.368451,1.5283203125
,79.3992991,1.4990234375
,79.4044222,1.474609375
,79.4402509,1.4453125
,79.4460821,1.4208984375
,79.4651689,1.38671875
,79.5070944,1.357421875
,79.5074293,1.3232421875
,79.5239596,1.318359375
,79.557785,1.318359375
,79.5629642,1.3623046875
,79.5964912,1.4208984375
,79.6171464,1.5087890625
,79.6256608,1.5966796875
,79.6452636,1.6796875
,79.6610312,1.7431640625
,79.697295,1.8310546875
,79.7163201,1.8994140625
,79.7205723,1.9482421875
,79.7581554,1.9921875
,79.7890887,2.021484375
,79.7894806,2.0361328125
,79.8033802,2.0263671875
,79.8390084,2.01171875
,79.8591007,1.9873046875
,79.8638057,1.9775390625
,79.9144775,1.9580078125
,79.9148633,1.9384765625
,79.923451,1.9140625
,79.9609461,1.89453125
,79.9654265,1.8603515625
,80.0076257,1.8212890625
,80.0080211,1.796875
,80.0260749,1.7578125
,80.0629738,1.728515625
,80.0635026,1.689453125
,80.101387,1.6796875
,80.1016364,1.650390625
,80.148061,1.6259765625
,80.1482959,1.6015625
,80.1673147,1.5771484375
,80.1858572,1.5478515625
,80.2235062,1.5185546875
,80.2237984,1.484375
,80.2593328,1.4697265625
,80.2623228,1.4453125
,80.2980595,1.416015625
,80.3055659,1.38671875
,80.3262433,1.3720703125
,80.3448482,1.3525390625
,80.3800242,1.328125
,80.4010833,1.328125
,80.4013207,1.34765625
,80.4370877,1.416015625
,80.4580032,1.4990234375
,80.4634779,1.5966796875
,80.4993207,1.6796875
,80.5199393,1.767578125
,80.5259562,1.8359375
,80.5472069,1.8994140625
,80.5629857,1.9580078125
,80.6090041,2.0361328125
,80.6093892,2.08984375
,80.6257012,2.1240234375
,80.6700581,2.1484375
,80.6703054,2.12890625
,80.684698,2.1044921875
,80.7211566,2.0703125
,80.7252398,2.0556640625
,80.7422173,2.0263671875
,80.7811822,2.01171875
,80.7815735,1.93359375
,80.8205357,1.9287109375
,80.8236771,1.8994140625
,80.8591439,1.8798828125
,80.8645828,1.8408203125
,80.9038321,1.81640625
,80.9236797,1.7724609375
,80.9253233,1.7333984375
,80.9447008,1.689453125
,80.9636852,1.6845703125
,80.9985606,1.6552734375
,81.0206843,1.6259765625
,81.0259601,1.5966796875
,81.0763712,1.572265625
,81.0766176,1.54296875
,81.0863232,1.513671875
,81.1207368,1.4892578125
,81.1412595,1.4697265625
,81.1456498,1.4404296875
,81.1845872,1.4208984375
,81.1849737,1.3916015625
,81.2203605,1.3720703125
,81.2254233,1.357421875
,81.2787525,1.3720703125
,81.2791601,1.416015625
,81.2864748,1.5087890625
,81.3038001,1.5771484375
,81.3394626,1.669921875
,81.3441595,1.73828125
,81.3664222,1.8212890625
,81.4015321,1.865234375
,81.4061537,1.9189453125
,81.4491131,1.953125
,81.4495041,1.9873046875
,81.463375,1.982421875
,81.4992779,1.9921875
,81.5272698,1.962890625
,81.5276602,1.953125
,81.5453229,1.93359375
,81.5798262,1.9140625
,81.5870925,1.884765625
,81.6220462,1.8798828125
,81.6276849,1.85546875
,81.648296,1.81640625
,81.6827157,1.748046875
,81.6829611,1.728515625
,81.721123,1.708984375
,81.7259666,1.6845703125
,81.7730528,1.66015625
,81.7733521,1.630859375
,81.7868223,1.6015625
,81.8234797,1.5673828125
,81.8512669,1.54296875
,81.8515873,1.513671875
,81.8648665,1.50390625
,81.9011111,1.4794921875
,81.9058075,1.4599609375
,81.9408177,1.4453125
,81.9626321,1.4111328125
,81.9679589,1.3818359375
,82.0067945,1.34765625
,82.0070721,1.328125
,82.0248605,1.298828125
,82.0464908,1.298828125
,82.0661849,1.3134765625
,82.0866522,1.376953125
,82.1062143,1.4404296875
,82.1468466,1.5478515625
,82.1470909,1.6259765625
,82.1675453,1.71875
,82.1854167,1.787109375
,82.2256856,1.865234375
,82.22607,1.923828125
,82.271424,1.9921875
,82.2716656,2.0361328125
,82.2869172,2.05078125
,82.3223728,2.060546875
,82.3279601,2.0458984375
,82.3637129,2.0263671875
,82.3641749,2.0068359375
,82.4017918,2.001953125
,82.4040643,1.9873046875
,82.4441651,1.9677734375
,82.464935,1.943359375
,82.4651815,1.9140625
,82.5014666,1.8798828125
,82.5222994,1.8505859375
,82.529336,1.8017578125
,82.5675602,1.767578125
,82.5679617,1.7431640625
,82.6010966,1.7041015625
,82.6067928,1.6748046875
,82.6477292,1.6552734375
,82.6481212,1.650390625
,82.6839788,1.62109375
,82.686982,1.5966796875
,82.7227369,1.5673828125
,82.7545897,1.552734375
,82.754835,1.5185546875
,82.7659297,1.50390625
,82.8017834,1.474609375
,82.806414,1.455078125
,82.8402364,1.4208984375
,82.8605857,1.3916015625
,82.8686735,1.3623046875
,82.9121669,1.357421875
,82.912409,1.357421875
,82.9254021,1.3916015625
,82.9616213,1.4697265625
,82.9655865,1.5673828125
,83.0013997,1.6552734375
,83.0225924,1.7333984375
,83.0272906,1.81640625
,83.0675489,1.884765625
,83.0678687,1.9482421875
,83.0875644,1.9970703125
,83.1045598,2.05078125
,83.1398797,2.08984375
,83.1606824,2.1142578125
,83.1679732,2.1044921875
,83.2086124,2.080078125
,83.2088501,2.0654296875
,83.2446568,2.03125
,83.2496999,2.0068359375
,83.2650265,1.9775390625
,83.3019046,1.9677734375
,83.3237276,1.8896484375
,83.3242718,1.8798828125
,83.3651769,1.85546875
,83.3851709,1.8359375
,83.3881199,1.7919921875
,83.4212018,1.767578125
,83.4418348,1.7236328125
,83.449872,1.69921875
,83.4651754,1.66015625
,83.505414,1.640625
,83.5251353,1.611328125
,83.5280192,1.6064453125
,83.5655286,1.58203125
,83.5703989,1.552734375
,83.6155246,1.5185546875
,83.6157647,1.4990234375
,83.629797,1.4697265625
,83.6460191,1.4453125
,83.6924892,1.4453125
,83.6928769,1.4306640625
,83.7075138,1.4111328125
,83.7539936,1.4013671875
,83.7542294,1.42578125
,83.7700006,1.474609375
,83.7902756,1.552734375
,83.8075266,1.6259765625
,83.8276318,1.71875
,83.8486857,1.81640625
,83.8674257,1.875
,83.9044035,1.9384765625
,83.9082448,1.9873046875
,83.9550225,2.041015625
,83.9553344,2.0654296875
,83.9703871,2.0751953125
,83.9866615,2.0654296875
,84.022984,2.0654296875
,84.0256946,2.041015625
,84.062677,2.0263671875
,84.0963517,2.001953125
,84.096768,1.9873046875
,84.1106742,1.962890625
,84.1298307,1.93359375
,84.1509616,1.8896484375
,84.1702834,1.8359375
,84.1909158,1.77734375
,84.2075595,1.71875
,84.2507356,1.71875
,84.2511234,1.708984375
,84.2696727,1.689453125
,84.3047552,1.6650390625
,84.3098131,1.6455078125
,84.3451043,1.6162109375
,84.3493573,1.591796875
,84.3667439,1.5625
,84.4053492,1.552734375
,84.4071615,1.533203125
,84.4530376,1.5185546875
,84.4533508,1.4892578125
,84.4844441,1.46484375
,84.4911074,1.455078125
,84.5115331,1.42578125
,84.5477934,1.4013671875
,84.5481838,1.3818359375
,84.5828606,1.40625
,84.5879674,1.4404296875
,84.6393181,1.513671875
,84.6397112,1.591796875
,84.6495212,1.689453125
,84.6838182,1.77734375
,84.7037538,1.8798828125
,84.7086769,1.9482421875
,84.7294918,2.0361328125
,84.7775643,2.1044921875
,84.7778008,2.1630859375
,84.7891214,2.1923828125
,84.8096609,2.216796875
,84.8546714,2.20703125
,84.8549078,2.1728515625
,84.8705914,2.1484375
,84.8877717,2.1142578125
,84.9238588,2.099609375
,84.9285937,2.0703125
,84.962911,2.0458984375
,84.9837124,2.0166015625
,84.9897853,1.9775390625
,85.0251388,1.93359375
,85.0301154,1.8896484375
,85.0667471,1.8505859375
,85.0719056,1.806640625
,85.0884706,1.7578125
,85.1237529,1.728515625
,85.1509655,1.708984375
,85.1512682,1.6650390625
,85.1999101,1.640625
,85.200312,1.6064453125
,85.2111869,1.591796875
,85.2476716,1.552734375
,85.2755958,1.5283203125
,85.2759708,1.4892578125
,85.2880621,1.474609375
,85.3235677,1.4404296875
,85.3441645,1.416015625
,85.3494075,1.3818359375
,85.3844089,1.3671875
,85.4044759,1.357421875
,85.4117915,1.3818359375
,85.4277226,1.42578125
,85.4628328,1.54296875
,85.4827216,1.6357421875
,85.487345,1.71875
,85.526295,1.796875
,85.5483719,1.865234375
,85.5512272,1.923828125
,85.587586,1.97265625
,85.5922221,2.0166015625
,85.6076335,2.05078125
,85.6296399,2.0654296875
,85.6495559,2.0556640625
,85.6701188,2.03125
,85.7133831,2.01171875
,85.7137725,1.9970703125
,85.7325822,1.97265625
,85.7677012,1.9482421875
,85.7723324,1.9287109375
,85.7881996,1.8896484375
,85.8371215,1.8701171875
,85.8373696,1.8359375
,85.8673139,1.8115234375
,85.8717075,1.767578125
,85.915614,1.7333984375
,85.9159982,1.689453125
,85.9331018,1.66015625
,85.9525178,1.6162109375
,85.9887444,1.5869140625
,85.9892877,1.552734375
,86.025354,1.552734375
,86.0303794,1.5234375
,86.0676595,1.50390625
,86.0724604,1.474609375
,86.1185377,1.46484375
,86.1187803,1.435546875
,86.1325598,1.4013671875
,86.1801487,1.3720703125
,86.1804669,1.3525390625
,86.1902435,1.337890625
,86.2260223,1.337890625
,86.23079,1.38671875
,86.2735857,1.4599609375
,86.2738318,1.5478515625
,86.2921366,1.6357421875
,86.3274359,1.7236328125
,86.3278234,1.806640625
,86.3635561,1.8896484375
,86.3842333,1.953125
,86.3899898,2.0166015625
,86.4116955,2.0751953125
,86.4528745,2.0947265625
,86.4531249,2.099609375
,86.4903284,2.0849609375
,86.490708,2.0703125
,86.5315757,2.041015625
,86.5318274,2.0263671875
,86.5630229,2.001953125
,86.5836711,1.9873046875
,86.5910953,1.953125
,86.6260165,1.9189453125
,86.6474417,1.8798828125
,86.6543165,1.845703125
,86.6702173,1.8017578125
,86.72063,1.7822265625
,86.7208724,1.6943359375
,86.7306927,1.7041015625
,86.7672729,1.6845703125
,86.7704865,1.6552734375
,86.8074805,1.6357421875
,86.8301684,1.6064453125
,86.8324252,1.58203125
,86.8689049,1.5478515625
,86.8745779,1.5283203125
,86.8914214,1.5087890625
,86.927743,1.4892578125
,86.9321633,1.4697265625
,86.9708442,1.4453125
,86.9710969,1.4208984375
,87.0072892,1.4013671875
,87.0132552,1.376953125
,87.0501571,1.3525390625
,87.0543359,1.34765625
,87.0693219,1.3525390625
,87.104851,1.4111328125
,87.1265743,1.4892578125
,87.131683,1.6064453125
,87.1721129,1.69921875
,87.172535,1.796875
,87.2100583,1.8798828125
,87.2125676,1.9677734375
,87.2286996,2.03125
,87.2655508,2.1142578125
,87.2857026,2.1728515625
,87.2925589,2.2119140625
,87.3114581,2.216796875
,87.3326577,2.20703125
,87.3524501,2.1728515625
,87.3870074,2.1533203125
,87.407147,2.119140625
,87.4126906,2.080078125
,87.4303465,2.0556640625
,87.4690192,2.0263671875
,87.471625,1.9921875
,87.5075126,1.953125
,87.5124982,1.9140625
,87.5477944,1.8798828125
,87.5534278,1.8359375
,87.5750269,1.7919921875
,87.6116319,1.708984375
,87.611883,1.689453125
,87.6304493,1.669921875
,87.6724836,1.6455078125
,87.6728008,1.62109375
,87.7038388,1.611328125
,87.7133598,1.5771484375
,87.7509979,1.5576171875
,87.7558724,1.533203125
,87.7747484,1.5185546875
,87.7908937,1.4794921875
,87.8283263,1.4697265625
,87.8312875,1.4453125
,87.876211,1.4306640625
,87.8766,1.4013671875
,87.9061483,1.38671875
,87.9149366,1.3720703125
,87.9347023,1.4013671875
,87.9521771,1.4599609375
,88.0025294,1.5576171875
,88.0027694,1.6455078125
,88.0122234,1.7578125
,88.0484896,1.8408203125
,88.053986,1.9140625
,88.0734559,1.982421875
,88.1084991,2.041015625
,88.1299358,2.0849609375
,88.1303442,2.109375
,88.1667811,2.1337890625
,88.1875764,2.12890625
,88.1925216,2.1044921875
,88.228363,2.080078125
,88.2340238,2.0556640625
,88.2703228,2.03125
,88.2756793,2.01171875
,88.291104,1.9775390625
,88.3296165,1.9580078125
,88.3329319,1.943359375
,88.3534557,1.8994140625
,88.3916513,1.8701171875
,88.3919018,1.826171875
,88.4279943,1.796875
,88.4486899,1.748046875
,88.4544139,1.7138671875
,88.4900639,1.669921875
,88.4951481,1.650390625
,88.511525,1.6064453125
,88.5628756,1.6015625
,88.5632798,1.572265625
,88.5752452,1.5625
,88.610851,1.533203125
,88.6149584,1.513671875
,88.6559005,1.4892578125
,88.6562792,1.4697265625
,88.7021917,1.435546875
,88.7025799,1.4111328125
,88.7149703,1.38671875
,88.7331349,1.3720703125
,88.7759014,1.3720703125
,88.7761742,1.4013671875
,88.7957415,1.474609375
,88.8144917,1.572265625
,88.8488107,1.6796875
,88.8696944,1.7919921875
,88.8702047,1.884765625
,88.9061911,1.9677734375
,88.9274487,2.0556640625
,88.9345625,2.119140625
,88.9802699,2.1728515625
,88.9805665,2.2021484375
,88.9966782,2.1875
,89.0441126,2.16796875
,89.0445037,2.1337890625
,89.0534787,2.1240234375
,89.0898978,2.08984375
,89.0952837,2.0703125
,89.1319123,2.041015625
,89.1368377,2.0166015625
,89.1547864,1.9775390625
,89.1981983,1.9482421875
,89.1984493,1.9091796875
,89.2182706,1.884765625
,89.2354342,1.845703125
,89.2546556,1.8115234375
,89.2971589,1.767578125
,89.2974026,1.7431640625
,89.3338064,1.708984375
,89.3366332,1.669921875
,89.3544902,1.6357421875
,89.3908611,1.6064453125
,89.4105545,1.5771484375
,89.4158071,1.54296875
,89.4345818,1.5283203125
,89.4541407,1.5087890625
,89.4992735,1.4892578125
,89.4995154,1.46484375
,89.5201638,1.435546875
,89.5368344,1.40625
,89.5723686,1.376953125
,89.5926431,1.34765625
,89.5930708,1.328125
,89.637523,1.328125
,89.6377622,1.337890625
,89.655195,1.38671875
,89.6915546,1.4599609375
,89.6948707,1.5673828125
,89.7281285,1.6650390625
,89.7480691,1.7626953125
,89.7525839,1.8505859375
,89.7931722,1.943359375
,89.7935639,2.021484375
,89.8403226,2.1044921875
,89.8405688,2.158203125
,89.8556086,2.20703125
,89.8917204,2.2119140625
,89.9112837,2.2021484375
,89.9115273,2.16796875
,89.9493886,2.1533203125
,89.9546084,2.1337890625
,89.9896906,2.099609375
,89.9944136,2.0654296875
,90.0300732,2.0361328125
,90.0506703,1.9970703125
,90.056588,1.9580078125
,90.0779179,1.9189453125
,90.0977873,1.8798828125
,90.1358783,1.8017578125
,90.1361165,1.7724609375
,90.1568077,1.7431640625
,90.1986359,1.7138671875
,90.198931,1.6845703125
,90.2168116,1.650390625
,90.2520841,1.6162109375
,90.257136,1.5966796875
,90.2936509,1.5673828125
,90.2983339,1.5380859375
,90.3150185,1.5087890625
,90.3504119,1.4990234375
,90.3553819,1.474609375
,90.401269,1.4501953125
,90.4015199,1.416015625
,90.4155735,1.3916015625
,90.4624453,1.357421875
,90.4629179,1.3330078125
,90.4756007,1.30859375
,90.5101191,1.3330078125
,90.516064,1.376953125
,90.5502992,1.4599609375
,90.5551737,1.5478515625
,90.5915716,1.6552734375
,90.5970472,1.748046875
,90.6341405,1.8115234375
,90.6367699,1.875
,90.6541868,1.923828125
,90.6946737,1.9677734375
,90.6951288,1.9970703125
,90.7325541,2.001953125
,90.7378211,1.982421875
,90.7732215,1.93359375
,90.776458,1.884765625
,90.8201264,1.8310546875
,90.8205173,1.7822265625
,90.8509172,1.7529296875
,90.8556863,1.708984375
,90.8968679,1.6552734375
,90.8971533,1.611328125
,90.91609,1.5478515625
,90.958276,1.494140625
,90.9586122,1.42578125
,90.9881418,1.3818359375
,90.9994373,1.318359375
,91.0355442,1.26953125
,91.0359504,1.220703125
,91.0565558,1.201171875
,91.0918916,1.181640625
,91.0968313,1.181640625
,91.1174266,1.1767578125
,91.1528461,1.19140625
,91.157921,1.19140625
,91.1949109,1.201171875
,91.1953009,1.201171875
,91.2163718,1.220703125
,91.2568307,1.220703125
,91.2572219,1.2158203125
,91.2776244,1.2109375
,91.3129603,1.2109375
,91.3179066,1.2109375
,91.3661507,1.2255859375
,91.3665797,1.2890625
,91.3739409,1.3671875
,91.4104785,1.4892578125
,91.4152481,1.6015625
,91.4583251,1.708984375
,91.4586451,1.8017578125
,91.4952649,1.8896484375
,91.4958174,1.953125
,91.5352097,2.0166015625
,91.5404329,2.0751953125
,91.556722,2.099609375
,91.5761454,2.119140625
,91.6111731,2.119140625
,91.6309699,2.109375
,91.6375494,2.0849609375
,91.6593204,2.060546875
,91.6760812,2.03125
,91.7125734,2.01171875
,91.7384629,1.9775390625
,91.7387033,1.9580078125
,91.7722486,1.9189453125
,91.7768602,1.8896484375
,91.8130745,1.845703125
,91.8175261,1.8115234375
,91.8616882,1.7626953125
,91.8619877,1.7431640625
,91.882712,1.7138671875
,91.8998074,1.669921875
,91.9400109,1.640625
,91.9402548,1.6064453125
,91.9556848,1.591796875
,91.9924681,1.5625
,92.0183952,1.54296875
,92.0186808,1.513671875
,92.0643522,1.4892578125
,92.064556,1.4599609375
,92.096146,1.4306640625
,92.0964807,1.4013671875
,92.1439935,1.3916015625
,92.1442301,1.3720703125
,92.1577964,1.3525390625
,92.2061807,1.357421875
,92.2065035,1.3720703125
,92.2199448,1.435546875
,92.2568007,1.5185546875
,92.2596779,1.6259765625
,92.2772952,1.71875
,92.3153769,1.826171875
,92.3156942,1.9140625
,92.3612395,2.001953125
,92.361641,2.0654296875
,92.382456,2.1337890625
,92.3991866,2.1728515625
,92.4352746,2.197265625
,92.4358607,2.1875
,92.4707993,2.177734375
,92.4783892,2.1484375
,92.5150158,2.1240234375
,92.515731,2.099609375
,92.5532007,2.060546875
,92.5580078,2.03125
,92.5938479,1.9970703125
,92.6140922,1.9580078125
,92.6187079,1.9140625
,92.652589,1.8408203125
,92.6558042,1.7724609375
,92.6909188,1.7578125
,92.7114575,1.728515625
,92.7191885,1.689453125
,92.7646727,1.650390625
,92.7649176,1.6162109375
,92.780083,1.5771484375
,92.7998669,1.54296875
,92.8356802,1.5234375
,92.8359675,1.494140625
,92.8739107,1.484375
,92.876885,1.4892578125
,92.9134337,1.50390625
,92.9186923,1.4990234375
,92.9652763,1.50390625
,92.9655207,1.50390625
,92.9815637,1.5185546875
,92.9967603,1.5234375
,93.0436927,1.572265625
,93.0439523,1.6259765625
,93.0642148,1.728515625
,93.0811918,1.8310546875
,93.0995377,1.953125
,93.1350601,2.05078125
,93.1406246,2.1826171875
,93.1841471,2.275390625
,93.184385,2.3486328125
,93.2142398,2.431640625
,93.2170729,2.4951171875
,93.2626323,2.529296875
,93.2630792,2.5537109375
,93.2798836,2.55859375
,93.3172584,2.548828125
,93.3203458,2.5244140625
,93.3372241,2.5048828125
,93.3864309,2.48046875
,93.3868241,2.4560546875
,93.3995392,2.4267578125
,93.4481832,2.3828125
,93.4485755,2.3291015625
,93.459455,2.28515625
,93.5092909,2.216796875
,93.5097202,2.16796875
,93.5211171,2.1142578125
,93.5564656,2.0703125
,93.5567073,2.01171875
,93.5943677,1.97265625
,93.5988909,1.923828125
,93.6504862,1.8896484375
,93.6508804,1.845703125
,93.6604378,1.8115234375
,93.6976049,1.7724609375
,93.7022862,1.73828125
,93.7190923,1.6943359375
,93.7583835,1.669921875
,93.7586271,1.630859375
,93.7952975,1.611328125
,93.7997928,1.58203125
,93.8368753,1.5576171875
,93.8560204,1.5673828125
,93.8608855,1.6064453125
,93.8981993,1.6748046875
,93.8984523,1.7578125
,93.9286447,1.8701171875
,93.9378679,1.962890625
,93.9732371,2.0556640625
,93.9931793,2.12890625
,94.0027597,2.197265625
,94.021462,2.2509765625
,94.0416023,2.3095703125
,94.0578757,2.3291015625
,94.0909744,2.34375
,94.1117084,2.3388671875
,94.1198038,2.314453125
,94.1554428,2.275390625
,94.1588571,2.24609375
,94.1960021,2.2119140625
,94.2161884,2.1728515625
,94.2221494,2.1337890625
,94.2385157,2.08984375
,94.2877096,2.0556640625
,94.2880094,2.01171875
,94.2992168,1.97265625
,94.3350382,1.9189453125
,94.3559193,1.875
,94.3613366,1.8310546875
,94.396231,1.787109375
,94.4013323,1.73828125
,94.4217875,1.7138671875
,94.4595896,1.6845703125
,94.4598332,1.6455078125
,94.4962913,1.6259765625
,94.5010967,1.6015625
,94.5373591,1.572265625
,94.5421784,1.5380859375
,94.5786695,1.513671875
,94.581762,1.484375
,94.6198146,1.4599609375
,94.6202029,1.4306640625
,94.6598052,1.435546875
,94.6601565,1.4599609375
,94.7070282,1.5380859375
,94.7073436,1.6162109375
,94.7206572,1.7138671875
,94.7554263,1.81640625
,94.7753393,1.89453125
,94.7833464,1.9775390625
,94.7989355,2.041015625
,94.8454953,2.119140625
,94.845748,2.16796875
,94.8592457,2.20703125
,94.895641,2.2119140625
,94.9026419,2.20703125
,94.939508,2.177734375
,94.9441131,2.1630859375
,94.9600739,2.12890625
,94.9970007,2.119140625
,94.9973971,2.0947265625
,95.0312925,2.060546875
,95.0521651,2.021484375
,95.0619385,1.9970703125
,95.1092137,1.9580078125
,95.1094602,1.9140625
,95.121998,1.875
,95.143903,1.8310546875
,95.1640648,1.748046875
,95.1812975,1.6845703125
,95.2183435,1.6845703125
,95.2206351,1.6748046875
,95.255439,1.650390625
,95.2758259,1.630859375
,95.2832257,1.6064453125
,95.3029948,1.572265625
,95.3383418,1.5478515625
,95.358798,1.513671875
,95.3593628,1.4892578125
,95.4065966,1.4794921875
,95.4068408,1.4501953125
,95.4210021,1.435546875
,95.457356,1.4208984375
,95.4619816,1.4697265625
,95.4987005,1.5185546875
,95.5311652,1.6064453125
,95.5314085,1.6845703125
,95.5395017,1.787109375
,95.5778469,1.8603515625
,95.582279,1.9482421875
,95.6023956,1.9970703125
,95.6368517,2.060546875
,95.6422544,2.0947265625
,95.6790036,2.1240234375
,95.6795076,2.1142578125
,95.7148346,2.119140625
,95.7223697,2.099609375
,95.7664396,2.0703125
,95.7668397,2.041015625
,95.7822777,2.0166015625
,95.8279913,1.9873046875
,95.8282271,1.9580078125
,95.8453033,1.9287109375
,95.8604246,1.89453125
,95.9059624,1.865234375
,95.9062892,1.8310546875
,95.9260682,1.7919921875
,95.9418641,1.7529296875
,95.9802143,1.728515625
,95.9806166,1.689453125
,96.0158726,1.650390625
,96.0370533,1.6259765625
,96.0447338,1.5869140625
,96.0928151,1.552734375
,96.0931435,1.5185546875
,96.1018966,1.513671875
,96.1403966,1.4892578125
,96.1407165,1.46484375
,96.1855535,1.435546875
,96.1857929,1.40625
,96.2054619,1.3720703125
,96.2252076,1.3525390625
,96.2407995,1.328125
,96.2762645,1.3330078125
,96.2821867,1.3623046875
,96.3150679,1.435546875
,96.3371725,1.5185546875
,96.3442625,1.6357421875
,96.389416,1.73828125
,96.3896681,1.8212890625
,96.4058135,1.904296875
,96.4216417,1.97265625
,96.4419864,2.0458984375
,96.4766243,2.1044921875
,96.4818757,2.158203125
,96.5177903,2.1826171875
,96.5384441,2.177734375
,96.5437283,2.1484375
,96.5807396,2.1142578125
,96.5810816,2.0703125
,96.6162348,2.0556640625
,96.6226507,2.0263671875
,96.6590523,1.9970703125
,96.6624482,1.97265625
,96.7011176,1.9287109375
,96.7014495,1.8896484375
,96.7459898,1.8505859375
,96.7462366,1.8115234375
,96.7673447,1.767578125
,96.7813526,1.7333984375
,96.8245427,1.69921875
,96.8247796,1.6650390625
,96.859339,1.630859375
,96.8644776,1.6064453125
,96.9005266,1.572265625
,96.9054082,1.5478515625
,96.9487751,1.5087890625
,96.9490155,1.4794921875
,96.9621145,1.4453125
,96.9824971,1.4501953125
,97.0192322,1.435546875
,97.0215958,1.416015625
,97.0578579,1.4013671875
,97.0781472,1.3720703125
,97.0851542,1.3818359375
,97.1199903,1.4111328125
,97.125086,1.4990234375
,97.1437744,1.58203125
,97.1792156,1.6796875
,97.1845321,1.7626953125
,97.2209513,1.8408203125
,97.2237973,1.904296875
,97.2595369,1.97265625
,97.2633174,2.01171875
,97.300029,2.05078125
,97.3051732,2.0703125
,97.3237984,2.0458984375
,97.3421774,2.0361328125
,97.387511,2.0166015625
,97.3877568,2.001953125
,97.4040677,1.97265625
,97.439354,1.953125
,97.4604005,1.9189453125
,97.4665101,1.8896484375
,97.4839302,1.845703125
,97.5020537,1.826171875
,97.5359331,1.787109375
,97.557002,1.7529296875
,97.5618255,1.71875
,97.5980342,1.6796875
,97.6197543,1.640625
,97.626942,1.62109375
,97.6464215,1.591796875
,97.6628059,1.5576171875
,97.6865251,1.54296875
,97.7033128,1.4697265625
,97.7424286,1.4599609375
,97.7619155,1.4501953125
,97.7624153,1.4404296875
,97.8036415,1.416015625
,97.8038872,1.396484375
,97.8262147,1.3671875
,97.8652138,1.3427734375
,97.8655189,1.318359375
,97.8848493,1.3232421875
,97.9032829,1.357421875
,97.9396966,1.4404296875
,97.9452144,1.54296875
,97.9902142,1.6357421875
,97.9906064,1.7333984375
,98.0067498,1.826171875
,98.0426207,1.9189453125
,98.043057,1.982421875
,98.0766755,2.0654296875
,98.0983766,2.12890625
,98.1058543,2.1728515625
,98.1415526,2.177734375
,98.1440199,2.1826171875
,98.1819898,2.1533203125
,98.1865487,2.12890625
,98.2022788,2.0849609375
,98.2382672,2.0703125
,98.2675811,2.0361328125
,98.2678627,2.021484375
,98.284763,1.9873046875
,98.3045611,1.943359375
,98.3390105,1.904296875
,98.3601235,1.85546875
,98.3679956,1.8115234375
,98.3843344,1.7626953125
,98.4237028,1.7431640625
,98.4241031,1.69921875
,98.4576331,1.6650390625
,98.479241,1.630859375
,98.4858007,1.6015625
,98.5332023,1.5673828125
,98.5334622,1.5478515625
,98.5471611,1.513671875
,98.5668248,1.4501953125
,98.5877839,1.396484375
,98.6050397,1.3818359375
,98.6393417,1.376953125
,98.6440923,1.3671875
,98.6882987,1.3525390625
,98.6886835,1.3330078125
,98.7191486,1.3232421875
,98.7267683,1.337890625
,98.7646926,1.38671875
,98.7649372,1.4599609375
,98.7847154,1.58203125
,98.8280263,1.6796875
,98.8284174,1.77734375
,98.8578841,1.8603515625
,98.8654975,1.9384765625
,98.8863202,1.9970703125
,98.9218398,2.0703125
,98.9513307,2.119140625
,98.9516558,2.138671875
,98.9660269,2.1533203125
,98.9862698,2.138671875
,99.0216112,2.109375
,99.0263909,2.080078125
,99.0758022,2.0703125
,99.0762002,2.041015625
,99.087994,2.0166015625
,99.1039762,1.97265625
,99.1511969,1.953125
,99.1514367,1.9140625
,99.1720388,1.8798828125
,99.1863063,1.8359375
,99.2307928,1.796875
,99.2311881,1.7626953125
,99.246978,1.7138671875
