fs,t,y
50.74399843288933,238.0617277,1.474609375
,238.1073233,1.4794921875
,238.1078334,1.484375
,238.1195721,1.484375
,238.1541913,1.484375
,238.1749912,1.484375
,238.1829919,1.4892578125
,238.1971114,1.494140625
,238.2352405,1.5234375
,238.2380818,1.5576171875
,238.274125,1.640625
,238.2971447,1.7626953125
,238.3020627,1.9091796875
,238.3372381,2.0361328125
,238.3403184,2.1630859375
,238.3760343,2.2607421875
,238.3954083,2.314453125
,238.3997576,2.353515625
,238.4498982,2.3486328125
,238.4502686,2.3193359375
,238.4610529,2.2607421875
,238.4811608,2.1826171875
,238.5154845,2.099609375
,238.5356428,2.0166015625
,238.5380743,1.9482421875
,238.5755179,1.8896484375
,238.5801282,1.8408203125
,238.6160829,1.8017578125
,238.6228592,1.767578125
,238.6418056,1.7333984375
,238.6614471,1.7041015625
,238.6996407,1.6748046875
,238.7188938,1.640625
,238.7192564,1.62109375
,238.754303,1.6064453125
,238.7594156,1.5869140625
,238.7959321,1.572265625
,238.8008034,1.552734375
,238.8368569,1.5380859375
,238.8424207,1.5185546875
,238.8624248,1.513671875
,238.9042059,1.50390625
,238.9045661,1.4990234375
,238.9185836,1.4892578125
,238.9548671,1.4892578125
,238.975205,1.484375
,238.9804796,1.4892578125
,239.0008099,1.4892578125
,239.0357855,1.484375
,239.0426256,1.4892578125
,239.0624734,1.484375
,239.0983542,1.494140625
,239.1236344,1.513671875
,239.1242095,1.591796875
,239.1409216,1.7138671875
,239.1757482,1.8798828125
,239.1807579,2.05078125
,239.2178725,2.2216796875
,239.2210584,2.3681640625
,239.2593272,2.490234375
,239.259915,2.568359375
,239.2942583,2.6171875
,239.3000844,2.6171875
,239.3440226,2.5830078125
,239.3444105,2.509765625
,239.3603729,2.40234375
,239.394168,2.2705078125
,239.4135689,2.138671875
,239.4240208,2.0166015625
,239.4401025,1.9189453125
,239.4744717,1.845703125
,239.4793067,1.787109375
,239.5152395,1.7431640625
,239.5358868,1.6943359375
,239.5414009,1.6552734375
,239.5768796,1.62109375
,239.5978805,1.5869140625
,239.6026903,1.552734375
,239.6395726,1.533203125
,239.6446865,1.513671875
,239.660507,1.494140625
,239.6952342,1.4892578125
,239.7159203,1.4794921875
,239.7236417,1.4697265625
,239.7594689,1.4599609375
,239.7619886,1.46484375
,239.7973185,1.455078125
,239.8173772,1.455078125
,239.818021,1.4501953125
,239.8591944,1.455078125
,239.8908212,1.455078125
,239.891298,1.4599609375
,239.8998224,1.46484375
,239.9373875,1.4892578125
,239.958375,1.58203125
,239.9632827,1.7431640625
,240.0002721,1.9873046875
,240.000661,2.2509765625
,240.036563,2.578125
,240.045609,2.8955078125
,240.061913,3.173828125
,240.0987485,3.3447265625
,240.1042872,3.4375
,240.1236238,3.4375
,240.174214,3.3740234375
,240.1746813,3.2275390625
,240.2062663,3.0126953125
,240.2068157,2.75390625
,240.2204415,2.4853515625
,240.2558316,2.24609375
,240.2765382,2.060546875
,240.285197,1.9091796875
,240.303411,1.7919921875
,240.3382746,1.69921875
,240.3590444,1.630859375
,240.3666954,1.5673828125
,240.3809906,1.513671875
,240.4155739,1.474609375
,240.4364017,1.4306640625
,240.4452468,1.38671875
,240.4635908,1.34765625
,240.4984964,1.3134765625
,240.5043306,1.2841796875
,240.5455737,1.2646484375
,240.5462319,1.25
,240.5626795,1.2548828125
,240.5828775,1.259765625
,240.6178377,1.2646484375
,240.6228085,1.2744140625
,240.6566833,1.2744140625
,240.6777057,1.2890625
,240.683492,1.2939453125
,240.7207321,1.3037109375
,240.7213414,1.30859375
,240.7556994,1.328125
,240.7769808,1.337890625
,240.782513,1.3525390625
,240.8173865,1.3623046875
,240.8230442,1.376953125
,240.8576531,1.396484375
,240.8791178,1.4599609375
,240.879705,1.5869140625
,240.9155296,1.8408203125
,240.9212251,2.1630859375
,240.95759,2.5390625
,240.9622453,2.9638671875
,240.9985647,3.310546875
,241.0036765,3.57421875
,241.0458939,3.6767578125
,241.0464307,3.681640625
,241.0811602,3.681640625
,241.0870208,3.681640625
,241.1037977,3.57421875
,241.1384439,3.3056640625
,241.1418113,3.0078125
,241.1772535,2.6953125
,241.199962,2.431640625
,241.204521,2.197265625
,241.2393583,2.03125
,241.2616674,1.89453125
,241.2662313,1.7822265625
,241.2831958,1.6943359375
,241.3247877,1.6259765625
,241.3251826,1.5576171875
,241.3601635,1.50390625
,241.3652842,1.4453125
,241.4001105,1.396484375
,241.4048922,1.34765625
,241.439783,1.30859375
,241.460607,1.2646484375
,241.4611013,1.2353515625
,241.4949851,1.2158203125
,241.5167469,1.1962890625
,241.5234196,1.1767578125
,241.5580363,1.162109375
,241.57892,1.1474609375
,241.5842619,1.1376953125
,241.6205573,1.142578125
,241.6422535,1.1572265625
,241.6426471,1.171875
,241.6807349,1.1865234375
,241.6834777,1.2060546875
,241.7194032,1.2255859375
,241.7242707,1.240234375
,241.7618793,1.2548828125
,241.7670434,1.2548828125
,241.7881673,1.25
,241.8075232,1.259765625
,241.8233072,1.2744140625
,241.8579725,1.34765625
,241.8630749,1.5380859375
,241.8844918,1.865234375
,241.9214084,2.40234375
,241.9266942,2.96875
,241.963246,3.4765625
,241.965904,3.681640625
,242.0038726,3.6767578125
,242.004343,3.6767578125
,242.0388173,3.681640625
,242.0443385,3.681640625
,242.0795527,3.681640625
,242.0853136,3.681640625
,242.1225357,3.6767578125
,242.1247308,3.6767578125
,242.1601196,3.681640625
,242.1809195,3.681640625
,242.1815127,3.6767578125
,242.2244338,3.6767578125
,242.224799,3.4619140625
,242.2447513,3.1591796875
,242.2811131,2.900390625
,242.2856565,2.6708984375
,242.3229486,2.470703125
,242.3259395,2.28515625
,242.3418862,2.109375
,242.3790164,1.9287109375
,242.3988267,1.728515625
,242.4036027,1.50390625
,242.4394019,1.298828125
,242.4735081,1.1083984375
,242.4743602,0.947265625
,242.4864271,0.810546875
,242.522354,0.7080078125
,242.5293875,0.6298828125
,242.5485146,0.56640625
,242.5656177,0.517578125
,242.6004897,0.48828125
,242.6044603,0.458984375
,242.6453441,0.439453125
,242.6459268,0.419921875
,242.665715,0.4150390625
,242.7006576,0.4150390625
,242.7228476,0.44921875
,242.7232449,0.478515625
,242.770331,0.5029296875
,242.7708469,0.537109375
,242.7864733,0.5908203125
,242.8340322,0.6689453125
,242.8346291,0.830078125
,242.8652247,1.181640625
,242.8657113,1.7431640625
,242.9025359,2.3828125
,242.9028973,2.8857421875
,242.9440494,3.359375
,242.9444077,3.6767578125
,242.9670255,3.681640625
,243.0022185,3.681640625
,243.0049953,3.6767578125
,243.0528637,3.6767578125
,243.0533537,3.681640625
,243.0836069,3.681640625
,243.0880574,3.6767578125
,243.1044388,3.6767578125
,243.1461639,3.6669921875
,243.1466215,3.2373046875
,243.1811343,2.783203125
,243.185705,2.3193359375
,243.2202369,1.923828125
,243.2425205,1.5869140625
,243.2495156,1.328125
,243.286263,1.1083984375
,243.2867704,0.947265625
,243.323433,0.8251953125
,243.3240433,0.7177734375
,243.3605165,0.6201171875
,243.3809244,0.537109375
,243.3859007,0.4638671875
,243.4219582,0.41015625
,243.4446648,0.3955078125
,243.4451385,0.3857421875
,243.4828055,0.3662109375
,243.4877693,0.3564453125
,243.507996,0.3515625
,243.5419534,0.37109375
,243.5467557,0.3955078125
,243.5825363,0.4248046875
,243.5829059,0.4541015625
,243.6081619,0.5224609375
,243.6247509,0.5517578125
,243.6604348,0.6005859375
,243.6813038,0.6494140625
,243.6852887,0.6982421875
,243.7207144,0.7421875
,243.7406921,0.7861328125
,243.7469695,0.830078125
,243.7838109,0.9033203125
,243.7885437,1.07421875
,243.8106368,1.4306640625
,243.8290349,2.0361328125
,243.8474639,2.6708984375
,243.8966634,3.291015625
,243.8972732,3.681640625
,243.9093332,3.6767578125
,243.9293976,3.681640625
,243.9654984,3.681640625
,243.967996,3.681640625
,244.0057606,3.681640625
,244.0062193,3.681640625
,244.0250557,3.6767578125
,244.0622385,3.681640625
,244.067625,3.681640625
,244.1021122,3.681640625
,244.1224019,3.5693359375
,244.1274969,3.3154296875
,244.1627393,3.0859375
,244.1825101,2.8564453125
,244.1833535,2.646484375
,244.2205746,2.431640625
,244.2407098,2.2265625
,244.247998,2.0166015625
,244.2837795,1.81640625
,244.2892082,1.6162109375
,244.3266382,1.4306640625
,244.3270882,1.240234375
,244.3639779,1.0595703125
,244.3645767,0.9033203125
,244.4000056,0.771484375
,244.4209827,0.6640625
,244.428251,0.5908203125
,244.4645144,0.537109375
,244.4677604,0.4931640625
,244.5187609,0.458984375
,244.5194878,0.458984375
,244.5492429,0.4638671875
,244.5496092,0.4541015625
,244.5841801,0.4541015625
,244.5888781,0.458984375
,244.6240351,0.478515625
,244.6267509,0.5859375
,244.6611209,0.908203125
,244.6822012,1.58203125
,244.6895145,2.2802734375
,244.7251694,2.9541015625
,244.7460518,3.53515625
,244.7465759,3.6767578125
,244.7827555,3.681640625
,244.8023426,3.681640625
,244.8100299,3.6767578125
,244.8459691,3.6767578125
,244.8477103,3.681640625
,244.8825745,3.681640625
,244.9130751,3.681640625
,244.9136679,3.6767578125
,244.926817,3.6767578125
,244.9761021,3.6767578125
,244.9767017,3.681640625
,244.9903441,3.5986328125
,245.035875,3.359375
,245.0362458,3.134765625
,245.050541,2.890625
,245.0846195,2.6513671875
,245.1054317,2.412109375
,245.1078538,2.1630859375
,245.1288135,1.93359375
,245.1624205,1.6943359375
,245.1825106,1.455078125
,245.1899063,1.2060546875
,245.2273154,0.9716796875
,245.231236,0.7373046875
,245.2517167,0.52734375
,245.2677362,0.3125
,245.3023113,0.146484375
,245.3231942,0.0048828125
,245.328621,0.0048828125
,245.3643581,0.0048828125
,245.3647326,0.0048828125
,245.400365,0.0048828125
,245.4214133,0.0048828125
,245.4288653,0.0048828125
,245.4649585,0.0048828125
,245.4851387,0.0048828125
,245.4859272,0.0048828125
,245.5209765,0.0048828125
,245.541866,0.0048828125
,245.5485236,0.0048828125
,245.5825955,0.0048828125
,245.6025631,0.5078125
,245.6113938,1.2939453125
,245.6278295,2.0458984375
,245.6631165,2.763671875
,245.6832428,3.33984375
,245.6896005,3.681640625
,245.7255843,3.681640625
,245.7304576,3.6767578125
,245.7665905,3.6767578125
,245.7715861,3.6767578125
,245.8069628,3.681640625
,245.8073313,3.681640625
,245.8441069,3.6767578125
,245.8782875,3.681640625
,245.878777,3.681640625
,245.8887025,3.53515625
,245.9231606,3.2861328125
,245.9439626,3.0419921875
,245.9521116,2.802734375
,245.9719782,2.5634765625
,245.9938939,2.3046875
,246.0100716,2.05078125
,246.0435521,1.826171875
,246.0514999,1.5771484375
,246.0943384,1.3330078125
,246.0947285,1.07421875
,246.1118207,0.8447265625
,246.1583726,0.6103515625
,246.1587488,0.4052734375
,246.1690953,0.234375
,246.2053482,0.087890625
,246.209564,0.0048828125
,246.2530398,0.0048828125
,246.2534975,0.0048828125
,246.2664079,0.0048828125
,246.30218,0.0048828125
,246.3237222,0.0048828125
,246.3292825,0.0048828125
,246.3637145,0.0048828125
,246.383728,0.0048828125
,246.3886955,0.0048828125
,246.4258549,0.0048828125
,246.45468,0.0048828125
,246.4550533,0.0048828125
,246.4693885,0.0048828125
,246.5043388,0.0048828125
,246.5244479,0.05859375
,246.5300244,0.2392578125
,246.5792141,0.693359375
,246.5795851,1.4111328125
,246.5891298,2.20703125
,246.6244578,2.8662109375
,246.6451751,3.49609375
,246.6524127,3.6767578125
,246.6922697,3.6767578125
,246.6926441,3.681640625
,246.7135579,3.681640625
,246.7562604,3.6767578125
,246.7566342,3.6767578125
,246.7702197,3.6767578125
,246.8065251,3.681640625
,246.8325024,3.6767578125
,246.8328689,3.6767578125
,246.880521,3.6767578125
,246.8811189,3.5595703125
,246.8936193,3.3251953125
,246.9086116,3.10546875
,246.9432962,2.8955078125
,246.9723741,2.685546875
,246.9728584,2.4609375
,247.0199832,2.2314453125
,247.0203539,2.001953125
,247.0310507,1.7626953125
,247.0647167,1.5234375
,247.0862563,1.2646484375
,247.0921984,1.0009765625
,247.1111859,0.7275390625
,247.1588865,0.48828125
,247.1593096,0.2685546875
,247.1737035,0.0830078125
,247.1889671,0.0048828125
,247.2233272,0.0048828125
,247.2430169,0.0048828125
,247.2496067,0.0048828125
,247.3000301,0.0048828125
,247.3006233,0.0048828125
,247.3113436,0.0048828125
,247.3459283,0.0048828125
,247.3779979,0.0048828125
,247.3785601,0.0048828125
,247.3885808,0.0048828125
,247.4238545,0.0048828125
,247.4440859,0.0048828125
,247.4494955,0.0048828125
,247.4857933,0.0048828125
,247.5065863,0.0146484375
,247.5114391,0.185546875
,247.5499409,0.634765625
,247.554281,1.3525390625
,247.5885653,2.16796875
,247.59344,2.83203125
,247.6307991,3.466796875
,247.6352146,3.6767578125
,247.6509726,3.681640625
,247.6897335,3.681640625
,247.6913691,3.681640625
,247.7284304,3.681640625
,247.7328316,3.681640625
,247.7700657,3.6767578125
,247.774479,3.6767578125
,247.7940066,3.681640625
,247.8109082,3.681640625
,247.8449732,3.5888671875
,247.8655211,3.330078125
,247.8735293,3.0615234375
,247.893773,2.8076171875
,247.9281154,2.5439453125
,247.9331985,2.294921875
,247.9692793,2.041015625
,247.9739544,1.796875
,247.9898454,1.5576171875
,248.0256982,1.30859375
,248.0471399,1.064453125
,248.0524495,0.8056640625
,248.0927557,0.5712890625
,248.0931549,0.3564453125
,248.1090201,0.185546875
,248.1290492,0.0732421875
,248.164883,0.0048828125
,248.1853168,0.0048828125
,248.1933961,0.0048828125
,248.2134465,0.0048828125
,248.2505529,0.0048828125
,248.2511488,0.0048828125
,248.2874704,0.0048828125
,248.3084862,0.0048828125
,248.3109404,0.0048828125
,248.3554909,0.0048828125
,248.355854,0.0048828125
,248.3766676,0.0048828125
,248.3938273,0.0341796875
,248.4130724,0.068359375
,248.4339746,0.107421875
,248.4684693,0.146484375
,248.4894748,0.205078125
,248.4899219,0.3076171875
,248.527243,0.60546875
,248.5596607,1.123046875
,248.5603189,1.9091796875
,248.5733517,2.6123046875
,248.5938226,3.26171875
,248.6290635,3.681640625
,248.6348208,3.681640625
,248.6838875,3.6767578125
,248.684257,3.681640625
,248.6961679,3.681640625
,248.7113289,3.681640625
,248.7467941,3.6767578125
,248.7520849,3.6767578125
,248.7886393,3.681640625
,248.793656,3.6767578125
,248.8299813,3.681640625
,248.8349831,3.65234375
,248.8726578,3.408203125
,248.8754753,3.173828125
,248.9099742,2.9248046875
,248.9305053,2.7001953125
,248.931,2.4755859375
,248.9664554,2.2314453125
,248.9875659,2.001953125
,248.9947068,1.7529296875
,249.0307091,1.4990234375
,249.0355312,1.2255859375
,249.0698638,0.966796875
,249.0913378,0.712890625
,249.091919,0.4931640625
,249.1413452,0.3076171875
,249.1418259,0.15625
,249.1623001,0.0390625
,249.170465,0.0048828125
,249.217452,0.0048828125
,249.2178201,0.0048828125
,249.2384414,0.0048828125
,249.2547347,0.0048828125
,249.2741234,0.0048828125
,249.3104942,0.0048828125
,249.3138407,0.0048828125
,249.3512747,0.0048828125
,249.3518734,0.0048828125
,249.3900306,0.0341796875
,249.4198441,0.087890625
,249.4204609,0.1416015625
,249.43359,0.1904296875
,249.4708954,0.25390625
,249.4740283,0.4150390625
,249.508614,0.83984375
,249.5138325,1.513671875
,249.550599,2.2900390625
,249.5555543,2.94921875
,249.576465,3.5009765625
,249.6124442,3.681640625
,249.6167523,3.681640625
,249.6531505,3.6767578125
,249.6535855,3.6767578125
,249.6891582,3.681640625
,249.6938301,3.681640625
,249.7284892,3.681640625
,249.7511327,3.6767578125
,249.7561001,3.681640625
,249.7921601,3.681640625
,249.7980854,3.61328125
,249.8131566,3.3544921875
,249.8599227,3.1005859375
,249.8603955,2.8564453125
,249.89032,2.6123046875
,249.8969801,2.36328125
,249.9372134,2.12890625
,249.9376425,1.89453125
,249.972321,1.6748046875
,249.9774642,1.4501953125
,249.9950845,1.2353515625
,250.0312134,1.0302734375
,250.0342126,0.83984375
,250.068728,0.6640625
,250.0892155,0.5126953125
,250.0967858,0.37109375
,250.1135637,0.25390625
,250.1384706,0.17578125
,250.154523,0.1123046875
,250.1916167,0.0390625
,250.1922448,0.0048828125
,250.2283439,0.0048828125
,250.2517268,0.0048828125
,250.2521845,0.0048828125
,250.2890161,0.009765625
,250.3101888,0.0390625
,250.3171672,0.078125
,250.3339487,0.087890625
,250.3733719,0.1171875
,250.3737347,0.1708984375
,250.3939923,0.205078125
,250.4304278,0.2294921875
,250.4382186,0.263671875
,250.4841265,0.3271484375
,250.4845936,0.5078125
,250.4987797,0.91796875
,250.5345303,1.650390625
,250.5379578,2.421875
,250.5558119,3.037109375
,250.5936356,3.6279296875
,250.5945385,3.681640625
,250.6305545,3.681640625
,250.6514535,3.6767578125
,250.6581635,3.681640625
,250.6999131,3.681640625
,250.7005062,3.681640625
,250.7141441,3.681640625
,250.7502908,3.6767578125
,250.7546527,3.6767578125
,250.7923926,3.681640625
,250.7957744,3.681640625
,250.832791,3.49609375
,250.838303,3.2470703125
,250.8884339,3.017578125
,250.8891086,2.7880859375
,250.8935282,2.5634765625
,250.9296384,2.3291015625
,250.9521393,2.0947265625
,250.9555621,1.85546875
,250.9903371,1.6357421875
,251.0106942,1.42578125
,251.0179012,1.220703125
,251.0609626,1.0205078125
,251.0615501,0.8447265625
,251.0910159,0.693359375
,251.0954547,0.56640625
,251.137446,0.46875
,251.1378839,0.380859375
,251.1567975,0.3173828125
,251.1915218,0.263671875
,251.2119892,0.2197265625
,251.217482,0.17578125
,251.2338476,0.146484375
,251.2541272,0.1513671875
,251.2907254,0.1513671875
,251.3103739,0.13671875
,251.3173902,0.126953125
,251.3532126,0.1171875
,251.3595559,0.1171875
,251.3945034,0.1220703125
,251.3948564,0.13671875
,251.4284812,0.17578125
,251.4487775,0.2099609375
,251.4555598,0.234375
,251.4911791,0.341796875
,251.5136597,0.60546875
,251.5180755,1.2060546875
,251.5545833,1.962890625
,251.5572025,2.6806640625
,251.602114,3.3056640625
,251.602908,3.681640625
,251.6240356,3.681640625
,251.6367881,3.681640625
,251.6575669,3.6767578125
,251.6941967,3.6767578125
,251.6988658,3.681640625
,251.740896,3.681640625
,251.7412681,3.681640625
,251.7606047,3.681640625
,251.7956509,3.681640625
,251.8001223,3.681640625
,251.8500127,3.6767578125
,251.8504056,3.5302734375
,251.8573519,3.2763671875
,251.8931759,3.037109375
,251.8985895,2.7880859375
,251.9340829,2.5537109375
,251.9593218,2.3095703125
,251.9599122,2.080078125
,251.9949714,1.8408203125
,252.0157145,1.611328125
,252.0162497,1.376953125
,252.0658468,1.142578125
,252.066362,0.91796875
,252.087511,0.712890625
,252.09953,0.52734375
,252.1342187,0.3759765625
,252.1372378,0.2490234375
,252.1717748,0.166015625
,252.1912621,0.1025390625
,252.1979456,0.0341796875
,252.2335065,0.0048828125
,252.2388648,0.0048828125
,252.2542905,0.0048828125
,252.2740733,0.0048828125
,252.3083948,0.0048828125
,252.3301128,0.0048828125
,252.3373801,0.0146484375
,252.3782125,0.0244140625
,252.3788361,0.0390625
,252.4132623,0.068359375
,252.4190631,0.087890625
,252.4561274,0.1220703125
,252.4608281,0.1806640625
,252.4959121,0.3125
,252.5007714,0.673828125
,252.5376371,1.2939453125
,252.542771,2.0654296875
,252.5572421,2.6904296875
,252.5932616,3.310546875
,252.6145698,3.681640625
,252.6202626,3.681640625
,252.6395849,3.681640625
,252.6745035,3.6767578125
,252.6948787,3.681640625
,252.7009844,3.681640625
,252.7188852,3.681640625
,252.7653735,3.6767578125
,252.7659267,3.681640625
,252.7789909,3.681640625
,252.813315,3.65234375
,252.8190926,3.4033203125
,252.8550237,3.154296875
,252.8599029,2.919921875
,252.8930008,2.6806640625
,252.9137874,2.4462890625
,252.9187804,2.2021484375
,252.9396131,1.9775390625
,252.9734674,1.7431640625
,252.992908,1.5185546875
,252.9981008,1.298828125
,253.0369515,1.09375
,253.0396425,0.888671875
,253.0751511,0.7177734375
,253.0781436,0.5712890625
,253.1273206,0.4296875
,253.1277169,0.3173828125
,253.1478839,0.2197265625
,253.1587003,0.1513671875
,253.1945887,0.0927734375
,253.2146255,0.048828125
,253.2178137,0.048828125
,253.256961,0.0537109375
,253.2844988,0.0634765625
,253.2849626,0.078125
,253.2984097,0.078125
,253.3476585,0.078125
,253.3481056,0.0927734375
,253.3779165,0.1123046875
,253.382467,0.1416015625
,253.4011283,0.17578125
,253.4394773,0.2099609375
,253.4398349,0.2734375
,253.4594424,0.3271484375
,253.4783034,0.3564453125
,253.5141049,0.41015625
,253.5336191,0.5615234375
,253.5417569,0.91796875
,253.5628129,1.5869140625
,253.5986564,2.32421875
,253.6032964,2.998046875
,253.6185683,3.5693359375
,253.6538941,3.6767578125
,253.6598866,3.6767578125
,253.703414,3.681640625
,253.7038341,3.681640625
,253.7226558,3.6767578125
,253.7658983,3.6767578125
,253.7662563,3.681640625
,253.7829407,3.681640625
,253.799142,3.681640625
,253.835393,3.6767578125
,253.840094,3.681640625
,253.8919257,3.681640625
,253.892287,3.5595703125
,253.9010079,3.33984375
,253.9365445,3.1298828125
,253.9413329,2.919921875
,253.9864557,2.71484375
,253.9871085,2.4951171875
,254.0170367,2.2802734375
,254.0189239,2.060546875
,254.0546592,1.845703125
,254.07491700000003,1.6357421875
,254.08169270000002,1.4208984375
,254.1023227,1.2109375
,254.13830289999999,0.986328125
,254.1439623,0.7763671875
,254.180562,0.576171875
,254.1812486,0.4052734375
,254.21762560000002,0.25390625
,254.22240829999998,0.1318359375
,254.2412976,0.0341796875
,254.27541730000002,0.0048828125
,254.2958713,0.0048828125
,254.2991556,0.0048828125
,254.3467435,0.0048828125
,254.34711220000003,0.0048828125
,254.36780700000003,0.0048828125
,254.3820791,0.0048828125
,254.4162794,0.0048828125
,254.42217040000003,0.0048828125
,254.4379421,0.0048828125
,254.45633370000002,0.0048828125
,254.5012721,0.0537109375
,254.5016377,0.107421875
,254.5224399,0.1513671875
,254.541584,0.1806640625
,254.57751259999998,0.2099609375
,254.58033669999998,0.2783203125
,254.60209780000002,0.4296875
,254.63727669999997,0.8154296875
,254.6416924,1.455078125
,254.6794767,2.24609375
,254.68411600000002,2.919921875
,254.72041510000003,3.4814453125
,254.7248373,3.6767578125
,254.7415942,3.6767578125
,254.7807408,3.681640625
,254.78133530000002,3.681640625
,254.82479310000002,3.681640625
,254.82515130000002,3.6767578125
,254.85409979999997,3.681640625
,254.8627151,3.6767578125
,254.90071039999998,3.681640625
,254.9010705,3.6767578125
,254.92084,3.6767578125
,254.95732099999998,3.603515625
,254.9613814,3.349609375
,255.010261,3.115234375
,255.01062940000003,2.890625
,255.04168019999997,2.6611328125
,255.04424740000002,2.451171875
,255.0650066,2.216796875
,255.0809744,2.001953125
,255.11625350000003,1.7822265625
,255.1214243,1.5625
,255.16910330000002,1.337890625
,255.1697085,1.123046875
,255.19794430000002,0.908203125
,255.20490510000002,0.7177734375
,255.239685,0.5419921875
,255.2402642,0.390625
,255.27630019999998,0.2685546875
,255.28094679999998,0.1611328125
,255.3230127,0.0732421875
,255.32359680000002,0.009765625
,255.34404469999998,0.0048828125
,255.3591915,0.0048828125
,255.3782645,0.0048828125
,255.4123699,0.0048828125
,255.43225139999998,0.0048828125
,255.44140069999997,0.0048828125
,255.47843690000002,0.0341796875
,255.48123199999998,0.0537109375
,255.51836609999998,0.0732421875
,255.542305,0.1025390625
,255.5426754,0.1318359375
,255.5774755,0.1708984375
,255.5984557,0.205078125
,255.6008903,0.2685546875
,255.63697130000003,0.322265625
,255.6415842,0.361328125
,255.6778263,0.3955078125
,255.68314709999999,0.458984375
,255.7302631,0.64453125
,255.73084210000002,1.025390625
,255.75065410000002,1.69921875
,255.76487200000003,2.4169921875
,255.80802770000003,3.056640625
,255.8086098,3.5791015625
,255.83672080000002,3.6767578125
,255.8444015,3.6767578125
,255.8631855,3.681640625
,255.8979738,3.681640625
,255.9035412,3.6767578125
,255.94958250000002,3.6767578125
,255.9502286,3.681640625
,255.9662196,3.681640625
,255.9815526,3.681640625
,256.0163495,3.6767578125
,256.0361604,3.6767578125
,256.0444149,3.5400390625
,256.0791621,3.3203125
,256.0856272,3.095703125
,256.1209004,2.8759765625
,256.1242979,2.6513671875
,256.1683596,2.431640625
,256.1687245,2.2021484375
,256.1828805,1.982421875
,256.2190705,1.767578125
,256.2248732,1.5625
,256.2448486,1.34765625
,256.2647907,1.1474609375
,256.3069263,0.95703125
,256.3075607,0.7861328125
,256.3263073,0.634765625
,256.3691124,0.5078125
,256.3694803,0.4052734375
,256.3819312,0.3173828125
,256.4158496,0.25390625
,256.43695,0.2001953125
,256.4448202,0.1611328125
,256.4931384,0.13671875
,256.4935044,0.1171875
,256.5012369,0.1318359375
,256.5360087,0.146484375
,256.5569852,0.146484375
,256.5658831,0.15625
,256.6026573,0.166015625
,256.6055046,0.1904296875
,256.6509578,0.2099609375
,256.6516345,0.2490234375
,256.6620667,0.341796875
,256.6963455,0.6201171875
,256.7172206,1.103515625
,256.7234639,1.85546875
,256.7435076,2.5244140625
,256.7792651,3.1298828125
,256.7997314,3.6376953125
,256.8050661,3.681640625
,256.8256545,3.6767578125
,256.8683171,3.681640625
,256.8690128,3.681640625
,256.8870302,3.681640625
,256.9028914,3.681640625
,256.9385633,3.681640625
,256.9635664,3.681640625
,256.9639831,3.681640625
,257.0116224,3.681640625
,257.0120883,3.623046875
,257.0409015,3.3740234375
,257.0477681,3.1396484375
,257.0823897,2.91015625
,257.0827534,2.6806640625
,257.1197986,2.451171875
,257.1504817,2.2216796875
,257.1510621,1.9921875
,257.1828272,1.77734375
,257.1874507,1.5625
,257.2243697,1.3525390625
,257.2286639,1.1328125
,257.2640409,0.927734375
,257.2645595,0.7275390625
,257.3009006,0.5419921875
,257.3037585,0.3857421875
,257.3375586,0.25390625
,257.3586771,0.1513671875
,257.3658365,0.068359375
,257.4019734,0.0048828125
,257.4025549,0.0048828125
,257.4226482,0.0048828125
,257.4639602,0.0048828125
,257.4645483,0.0048828125
,257.5005877,0.0048828125
,257.5010395,0.0048828125
,257.5391936,0.029296875
,257.5591737,0.0439453125
,257.5645348,0.09765625
,257.5984862,0.126953125
,257.6185337,0.1513671875
,257.6232563,0.2099609375
,257.6648891,0.2490234375
,257.6654902,0.2783203125
,257.7035993,0.33203125
,257.7042732,0.4931640625
,257.7432882,0.849609375
,257.774074,1.5185546875
,257.7745432,2.255859375
,257.7892914,2.919921875
,257.8050085,3.4716796875
,257.8427031,3.6767578125
,257.8434358,3.6767578125
,257.8814235,3.681640625
,257.9034939,3.681640625
,257.908742,3.681640625
,257.9271441,3.681640625
,257.9618496,3.6767578125
,257.9834767,3.681640625
,257.9839822,3.681640625
,258.0195739,3.6767578125
,258.0406209,3.6767578125
,258.044801,3.681640625
,258.0816173,3.59375
,258.0875943,3.369140625
,258.1317436,3.1494140625
,258.1321021,2.919921875
,258.1526778,2.7001953125
,258.1655215,2.4658203125
,258.2012409,2.2314453125
,258.2059684,2.001953125
,258.2413679,1.767578125
,258.2464607,1.5380859375
,258.2808844,1.298828125
,258.301804,1.0791015625
,258.3099196,0.8740234375
,258.3448168,0.693359375
,258.3497083,0.52734375
,258.3655285,0.3857421875
,258.4102605,0.263671875
,258.4107289,0.1611328125
,258.4305326,0.0830078125
,258.4448344,0.0146484375
,258.4656192,0.0048828125
,258.5032875,0.0048828125
,258.5353723,0.0048828125
,258.5359147,0.0048828125
,258.546078,0.0048828125
,258.5816721,0.0048828125
,258.5868639,0.0048828125
,258.6223719,0.0048828125
,258.6229609,0.0048828125
,258.6606415,0.029296875
,258.6821664,0.0732421875
,258.682767,0.1220703125
,258.7189567,0.166015625
,258.7390555,0.2001953125
,258.7482812,0.234375
,258.7665017,0.2734375
,258.8198919,0.3173828125
,258.8204551,0.4296875
,258.8301175,0.6884765625
,258.8652494,1.259765625
,258.8684353,2.0458984375
,258.8845897,2.7294921875
,258.9278051,3.3642578125
,258.9281662,3.6767578125
,258.9648148,3.681640625
,258.9693553,3.681640625
,259.0070918,3.681640625
,259.007461,3.681640625
,259.054867,3.681640625
,259.0552258,3.6767578125
,259.0849426,3.681640625
,259.085638,3.681640625
,259.1216631,3.6767578125
,259.142194,3.6767578125
,259.147532,3.681640625
,259.1840021,3.681640625
,259.2040232,3.447265625
,259.2091151,3.1884765625
,259.245476,2.958984375
,259.2659944,2.7197265625
,259.2664505,2.4853515625
,259.3017047,2.2412109375
,259.3222554,2.01171875
,259.3290414,1.7724609375
,259.348715,1.552734375
,259.3836319,1.328125
,259.4027275,1.1083984375
,259.4098219,0.888671875
,259.4264522,0.693359375
,259.4732608,0.5078125
,259.4737583,0.3515625
,259.4883301,0.21484375
,259.5358887,0.107421875
,259.5362893,0.01953125
,259.5570261,0.0048828125
,259.5674958,0.0048828125
,259.6046614,0.0048828125
,259.6050198,0.0048828125
,259.6254273,0.0048828125
,259.6590717,0.0048828125
,259.6797257,0.0048828125
,259.6899192,0.0048828125
,259.7249029,0.0048828125
,259.7256067,0.0048828125
,259.7629088,0.0732421875
,259.7838369,0.107421875
,259.7844019,0.166015625
,259.8195543,0.224609375
,259.840134,0.2685546875
,259.8501023,0.2978515625
,259.8688235,0.33203125
,259.910337,0.4248046875
,259.9107405,0.64453125
,259.9400076,1.142578125
,259.9509829,1.8505859375
,259.9868286,2.5830078125
,259.9875193,3.1787109375
,260.0232975,3.6767578125
,260.0277592,3.6767578125
,260.062223,3.681640625
,260.0828889,3.681640625
,260.0900194,3.681640625
,260.1263371,3.6767578125
,260.1297383,3.6767578125
,260.1656434,3.681640625
,260.1662777,3.681640625
,260.2021191,3.6767578125
,260.236189,3.6767578125
,260.236555,3.681640625
,260.2499297,3.6181640625
,260.2995003,3.3837890625
,260.3001762,3.1591796875
,260.3104706,2.9345703125
,260.3316046,2.7099609375
,260.3514457,2.4560546875
,260.3686843,2.2119140625
,260.4091139,1.9970703125
,260.4095853,1.787109375
,260.4557453,1.572265625
,260.4563263,1.3671875
,260.4860111,1.171875
,260.4907508,0.9765625
,260.527859,0.80078125
,260.5312329,0.6396484375
,260.5481115,0.498046875
,260.5830412,0.3759765625
,260.6031827,0.2734375
,260.611461,0.2001953125
,260.6568401,0.1416015625
,260.6572211,0.09765625
,260.6693746,0.068359375
,260.704654,0.068359375
,260.7252561,0.068359375
,260.7303042,0.0537109375
,260.7783611,0.0537109375
,260.7787245,0.0732421875
,260.7894746,0.0927734375
,260.8263321,0.107421875
,260.8312686,0.13671875
,260.8465715,0.1708984375
,260.867697,0.302734375
,260.9005827,0.6103515625
,260.9234138,1.2109375
,260.930433,1.9482421875
,260.9671049,2.6318359375
,260.9702365,3.2275390625
,260.9913199,3.681640625
,261.0265964,3.681640625
,261.0464681,3.6767578125
,261.0525649,3.681640625
,261.074701,3.681640625
,261.0934202,3.681640625
,261.1090156,3.6767578125
,261.1451495,3.681640625
,261.164299,3.681640625
,261.1713978,3.681640625
,261.2076993,3.681640625
,261.2121721,3.65234375
,261.2462815,3.427734375
,261.2670026,3.203125
,261.2674077,2.98828125
,261.3062007,2.783203125
,261.3102931,2.578125
,261.3459809,2.36328125
,261.3512517,2.1435546875
,261.387666,1.9189453125
,261.3923804,1.6943359375
,261.4276942,1.474609375
,261.4485763,1.2451171875
,261.4489811,1.0205078125
,261.4873205,0.810546875
,261.4902029,0.6201171875
,261.5275497,0.439453125
,261.5322966,0.283203125
,261.5700815,0.146484375
,261.5706945,0.0390625
,261.6040996,0.0048828125
,261.6249077,0.0048828125
,261.6302518,0.0048828125
,261.6701801,0.0048828125
,261.6705952,0.0048828125
,261.718615,0.0048828125
,261.7193215,0.0048828125
,261.7381506,0.0048828125
,261.7501715,0.0048828125
,261.7864452,0.0048828125
,261.8068424,0.0048828125
,261.8073516,0.0048828125
,261.8432389,0.009765625
,261.8645517,0.0439453125
,261.8717092,0.0732421875
,261.920816,0.1171875
,261.9214606,0.1708984375
,261.9343454,0.302734375
,261.9709323,0.595703125
,261.9740991,1.220703125
,261.9901781,1.9970703125
,262.0239783,2.734375
,262.0445373,3.3642578125
,262.0512507,3.681640625
,262.085998,3.681640625
,262.1076696,3.681640625
,262.1144682,3.6767578125
,262.1507945,3.6767578125
,262.1536606,3.681640625
,262.1706622,3.681640625
,262.2155316,3.6767578125
,262.2163371,3.6767578125
,262.2319886,3.6767578125
,262.2662937,3.681640625
,262.2881421,3.681640625
,262.2952823,3.6669921875
,262.3137915,3.427734375
,262.3310003,3.203125
,262.3658219,2.9736328125
,262.3705019,2.7490234375
,262.4056708,2.5341796875
,262.4261689,2.2998046875
,262.4320978,2.0751953125
,262.4660775,1.845703125
,262.4865495,1.6259765625
,262.4952611,1.3916015625
,262.5162158,1.162109375
,262.5365747,0.91796875
,262.551283,0.7177734375
,262.587625,0.5517578125
,262.5936478,0.400390625
,262.6295338,0.25390625
,262.6321317,0.1416015625
,262.6712117,0.048828125
,262.7053429,0.0048828125
,262.7058892,0.0048828125
,262.7114773,0.0048828125
,262.7483658,0.0048828125
,262.7527566,0.0048828125
,262.798163,0.0048828125
,262.7987372,0.0048828125
,262.8101147,0.0048828125
,262.8475384,0.0048828125
,262.8677648,0.0048828125
,262.871898,0.0048828125
,262.9221917,0.0244140625
,262.9225687,0.0439453125
,262.9310788,0.068359375
,262.9655749,0.09765625
,262.9860461,0.13671875
,262.9933621,0.25390625
,263.0307693,0.5615234375
,263.0364098,1.15234375
,263.0791612,1.9775390625
,263.0795342,2.6806640625
,263.0923532,3.3544921875
,263.128761,3.6767578125
,263.133738,3.681640625
,263.1529948,3.6767578125
,263.1888114,3.681640625
,263.209481,3.681640625
,263.2142426,3.6767578125
,263.2349408,3.681640625
,263.2711209,3.681640625
,263.2714876,3.681640625
,263.3157833,3.6767578125
,263.3162128,3.6767578125
,263.3357104,3.681640625
,263.3711362,3.6474609375
,263.3738761,3.408203125
,263.4087422,3.173828125
,263.4303272,2.9541015625
,263.4354728,2.724609375
,263.4533826,2.4951171875
,263.4742067,2.2705078125
,263.4938208,2.0361328125
,263.5280907,1.8017578125
,263.5492493,1.5673828125
,263.5545801,1.328125
,263.5897752,1.09375
,263.5950859,0.8642578125
,263.6133157,0.6494140625
,263.6488077,0.44921875
,263.6523084,0.2734375
,263.6876888,0.1220703125
,263.7097687,0.0048828125
,263.7102422,0.0048828125
,263.7591936,0.0048828125
,263.7600361,0.0048828125
,263.7881223,0.0048828125
,263.7925669,0.0048828125
,263.8295056,0.0048828125
,263.8345896,0.0048828125
,263.869867,0.0048828125
,263.8704533,0.0048828125
,263.9117927,0.0048828125
,263.9122171,0.0048828125
,263.9325814,0.0048828125
,263.9681105,0.0048828125
,263.9734806,0.0048828125
,264.0083787,0.0048828125
,264.012654,0.0048828125
,264.0479672,0.0146484375
,264.0684268,0.0830078125
,264.075971,0.2587890625
,264.1117872,0.64453125
,264.1154577,1.3525390625
,264.1637613,2.1337890625
,264.1641274,2.8466796875
,264.1738425,3.4375
,264.2090563,3.681640625
,264.2147304,3.6767578125
,264.2593587,3.6767578125
,264.2598292,3.681640625
,264.2912936,3.681640625
,264.2958301,3.6767578125
,264.3323519,3.681640625
,264.3548013,3.681640625
,264.3552224,3.681640625
,264.4004305,3.6767578125
,264.400803,3.681640625
,264.4150338,3.5302734375
,264.4492481,3.28125
,264.4714745,3.0322265625
,264.4763503,2.8076171875
,264.5121468,2.578125
,264.5125529,2.3583984375
,264.5486548,2.12890625
,264.5546298,1.9091796875
,264.5895417,1.6748046875
,264.6104703,1.4453125
,264.6149622,1.2158203125
,264.6509485,0.99609375
,264.6580447,0.80078125
,264.6775448,0.625
,264.6940993,0.46875
,264.7309367,0.33203125
,264.752648,0.2392578125
,264.7532426,0.13671875
,264.7901393,0.05859375
,264.8119562,0.0048828125
,264.8127011,0.0048828125
,264.850277,0.0048828125
,264.8713997,0.0048828125
,264.8720109,0.0048828125
,264.9174617,0.0048828125
,264.9180605,0.0048828125
,264.9484363,0.0146484375
,264.9554143,0.0341796875
,264.9898365,0.0634765625
,265.0104091,0.1171875
,265.016018,0.283203125
,265.0555047,0.6640625
,265.0558645,1.3818359375
,265.1031424,2.1435546875
,265.103505,2.8466796875
,265.1173793,3.427734375
,265.1639279,3.681640625
,265.1642953,3.681640625
,265.1772827,3.681640625
,265.1975385,3.681640625
,265.2316546,3.6767578125
,265.2519309,3.6767578125
,265.2568424,3.681640625
,265.2777699,3.6767578125
,265.2968353,3.681640625
,265.3321643,3.681640625
,265.3355126,3.5693359375
,265.3569559,3.2958984375
,265.3928027,3.0419921875
,265.3980005,2.79296875
,265.4341421,2.55859375
,265.4392902,2.314453125
,265.4551445,2.080078125
,265.4780154,1.8408203125
,265.512428,1.6064453125
,265.5156688,1.3623046875
,265.5505347,1.1279296875
,265.57149,0.8984375
,265.5778915,0.6884765625
,265.6135305,0.5126953125
,265.6141059,0.3564453125
,265.6341564,0.2587890625
,265.6714099,0.15625
,265.6922989,0.0732421875
,265.696855,0.0048828125
,265.7143257,0.0048828125
,265.735395,0.0048828125
,265.773876,0.0048828125
,265.804099,0.0048828125
,265.8049337,0.0048828125
,265.8167288,0.0048828125
,265.8517012,0.0048828125
,265.8570198,0.0048828125
,265.8724613,0.0048828125
,265.8990702,0.0537109375
,265.9186867,0.0830078125
,265.934683,0.1025390625
,265.9592445,0.15625
,265.9777125,0.2099609375
,266.0124706,0.29296875
,266.0179305,0.5224609375
,266.0370403,1.083984375
,266.0735905,1.884765625
,266.1023599,2.685546875
,266.102719,3.3837890625
,266.1191015,3.6767578125
,266.1546231,3.6767578125
,266.1595882,3.681640625
,266.1776648,3.681640625
,266.1970228,3.6767578125
,266.2436819,3.6767578125
,266.2441238,3.6767578125
,266.2732615,3.681640625
,266.2791779,3.681640625
,266.3224557,3.6767578125
,266.3229173,3.6767578125
,266.3383757,3.681640625
,266.3580044,3.681640625
,266.3929882,3.681640625
,266.3971241,3.505859375
,266.4481467,3.291015625
,266.4485155,3.0908203125
,266.4593113,2.8857421875
,266.4968735,2.685546875
,266.4994784,2.4853515625
,266.5172982,2.2900390625
,266.5521086,2.0947265625
,266.5578378,1.89453125
,266.6054505,1.6943359375
,266.6058207,1.4892578125
,266.6191871,1.279296875
,266.6570736,1.064453125
,266.6600581,0.8642578125
,266.6968048,0.673828125
,266.6976183,0.5078125
,266.7472385,0.3515625
,266.7477132,0.2197265625
,266.7773498,0.09765625
,266.7779392,0.0048828125
,266.7953305,0.0048828125
,266.8163841,0.0048828125
,266.8535292,0.0048828125
,266.8742251,0.0048828125
,266.8766654,0.0048828125
,266.913598,0.0048828125
,266.9336956,0.0048828125
,266.9382987,0.0048828125
,266.9728642,0.0048828125
,266.9776063,0.0048828125
,266.995036,0.0048828125
,267.04301,0.2001953125
,267.04341,0.78125
,267.0733684,1.630859375
,267.0789198,2.3876953125
,267.0980793,3.115234375
,267.1180289,3.6767578125
,267.155867,3.681640625
,267.158382,3.6767578125
,267.1951624,3.681640625
,267.2007937,3.681640625
,267.2376124,3.681640625
,267.2408746,3.681640625
,267.257421,3.681640625
,267.3053438,3.681640625
,267.305712,3.6767578125
,267.3180782,3.6767578125
,267.3531705,3.6767578125
,267.3739418,3.65234375
,267.3782846,3.427734375
,267.4176649,3.2080078125
,267.4182503,3.017578125
,267.4538861,2.8369140625
,267.4589966,2.6611328125
,267.5081415,2.48046875
,267.5087315,2.2998046875
,267.5277439,2.1142578125
,267.5395134,1.923828125
,267.5880263,1.73828125
,267.5884547,1.54296875
,267.6190263,1.3427734375
,267.6235213,1.1181640625
,267.6388067,0.908203125
,267.6735819,0.703125
,267.6785237,0.5224609375
,267.7133052,0.361328125
,267.7428568,0.21484375
,267.743456,0.0927734375
,267.7584385,0.0048828125
,267.7960863,0.0048828125
,267.8219744,0.0048828125
,267.8228675,0.0048828125
,267.8394609,0.0048828125
,267.8738163,0.0048828125
,267.8943285,0.0048828125
,267.8975199,0.0048828125
,267.9349948,0.0048828125
,267.9633218,0.0048828125
,267.9639035,0.0048828125
,267.9762376,0.0048828125
,268.0124505,0.0048828125
,268.0402105,0.0048828125
,268.040576,0.4736328125
,268.0755161,1.240234375
,268.0812227,2.0751953125
,268.1162079,2.7880859375
,268.1212353,3.4326171875
,268.1565562,3.681640625
,268.1802161,3.681640625
,268.1807134,3.681640625
,268.2267646,3.681640625
,268.2273544,3.6767578125
,268.2389054,3.6767578125
,268.2741362,3.681640625
,268.2947886,3.681640625
,268.3025885,3.6767578125
,268.339389,3.6767578125
,268.3416119,3.6767578125
,268.3593408,3.6181640625
,268.3941809,3.408203125
,268.3984533,3.2177734375
,268.4328063,3.02734375
,268.4536316,2.841796875
,268.4619294,2.65625
,268.4973358,2.470703125
,268.5032135,2.28515625
,268.5534817,2.0947265625
,268.5540652,1.9140625
,268.5592264,1.728515625
,268.5958206,1.552734375
,268.615157,1.3720703125
,268.621542,1.1962890625
,268.6572497,1.015625
,268.6616868,0.8447265625
,268.696811,0.673828125
,268.7237116,0.517578125
,268.7240801,0.3662109375
,268.7403111,0.2294921875
,268.7755423,0.1025390625
,268.7804354,0.0048828125
,268.7973076,0.0048828125
,268.8193172,0.0048828125
,268.866337,0.0048828125
,268.867049,0.0048828125
,268.8975492,0.0048828125
,268.8979598,0.0048828125
,268.9352442,0.0048828125
,268.9560237,0.01953125
,268.9609941,0.634765625
,268.9966325,1.4453125
,269.0027876,2.1875
,269.036332,2.87109375
,269.0569955,3.37890625
,269.0627212,3.681640625
,269.081398,3.681640625
,269.1283396,3.681640625
,269.129025,3.681640625
,269.1426855,3.681640625
,269.1609505,3.681640625
,269.2050835,3.6767578125
,269.205442,3.681640625
,269.2261763,3.681640625
,269.2431047,3.6669921875
,269.2626813,3.4619140625
,269.2803558,3.2568359375
,269.3296191,3.0615234375
,269.3302028,2.8662109375
,269.3499019,2.67578125
,269.3615366,2.490234375
,269.4011138,2.3046875
,269.4016818,2.1142578125
,269.438028,1.923828125
,269.4587609,1.73828125
,269.4614167,1.5478515625
,269.4966714,1.3623046875
,269.5027913,1.15234375
,269.5236004,0.947265625
,269.5425556,0.7373046875
,269.5792919,0.537109375
,269.5798948,0.3466796875
,269.6009828,0.205078125
,269.6201338,0.0537109375
,269.6533483,0.0048828125
,269.6749266,0.0048828125
,269.6779911,0.0048828125
,269.7200392,0.0048828125
,269.7204014,0.0048828125
,269.7516282,0.0048828125
,269.7610363,0.0048828125
,269.7975699,0.0048828125
,269.8174369,0.0048828125
,269.8203346,0.0048828125
,269.8564799,0.0048828125
,269.8623488,0.0048828125
,269.8973214,0.0048828125
,269.8979057,0.0048828125
,269.9376994,0.0048828125
,269.9580433,0.0048828125
,269.9586688,0.0048828125
,269.9997309,0.0048828125
,270.0000928,0.99609375
,270.022581,2.666015625
,270.0610866,3.6767578125
,270.0615477,3.681640625
,270.1082571,3.681640625
,270.1086225,3.681640625
,270.1298182,3.681640625
,270.1467471,3.6767578125
,270.1617166,3.681640625
,270.2038093,3.681640625
,270.2041822,3.681640625
,270.2355522,3.6767578125
,270.2445506,3.681640625
,270.2631735,3.681640625
,270.2981519,3.681640625
,270.3190665,3.681640625
,270.3220571,3.6767578125
,270.3558462,3.681640625
,270.3617692,3.681640625
,270.3978096,3.681640625
,270.4027813,3.5009765625
,270.4377493,3.2421875
,270.4585795,2.96875
,270.4653665,2.705078125
,270.5008683,2.421875
,270.5059435,2.158203125
,270.5396879,1.904296875
,270.5605584,1.66015625
,270.5630147,1.4306640625
,270.6100875,1.2060546875
,270.6106833,0.99609375
,270.6247152,0.8056640625
,270.6725055,0.634765625
,270.6731058,0.4833984375
,270.6815191,0.37109375
,270.7178388,0.2685546875
,270.7467155,0.185546875
,270.7471857,0.0927734375
,270.7630052,0.029296875
,270.7975387,0.0048828125
,270.818429,0.0048828125
,270.8189218,0.0048828125
,270.8547091,0.0048828125
,270.8756024,0.0048828125
,270.8817816,0.0048828125
,270.9202894,0.0048828125
,270.9500254,0.0048828125
,270.9506671,0.009765625
,270.9617986,0.0244140625
,270.9987016,0.078125
,271.0185733,0.1171875
,271.0230673,0.3271484375
,271.0600972,0.8203125
,271.0914394,1.5625
,271.0919701,2.3828125
,271.101901,3.0712890625
,271.1351379,3.681640625
,271.1567028,3.681640625
,271.1660703,3.681640625
,271.214853,3.681640625
,271.2153043,3.681640625
,271.2280262,3.681640625
,271.2622677,3.681640625
,271.2628764,3.6767578125
,271.2978523,3.681640625
,271.321723,3.681640625
,271.3266506,3.6767578125
,271.3709334,3.681640625
,271.3714094,3.681640625
,271.3852444,3.5302734375
,271.4203751,3.291015625
,271.4493363,3.0615234375
,271.4497432,2.841796875
,271.4650259,2.6220703125
,271.500155,2.392578125
,271.5034498,2.1484375
,271.5386975,1.9140625
,271.5592436,1.6748046875
,271.5662342,1.4453125
,271.6052562,1.2109375
,271.6058945,0.986328125
,271.6235805,0.771484375
,271.6662505,0.576171875
,271.6666172,0.4052734375
,271.6848488,0.2490234375
,271.7209518,0.1220703125
,271.7454874,0.009765625
,271.7461313,0.0048828125
,271.7620318,0.0048828125
,271.797552,0.0048828125
,271.8189556,0.0048828125
,271.8236127,0.0048828125
,271.8622158,0.0048828125
,271.862769,0.0048828125
,271.8998937,0.0048828125
,271.9205871,0.0048828125
,271.9261031,0.0048828125
,271.9620855,0.0048828125
,271.983834,0.0048828125
,271.984308,0.0048828125
,272.0187974,0.0439453125
,272.0231021,0.390625
,272.0580758,1.0302734375
,272.0780451,1.865234375
,272.0865232,2.5537109375
,272.1242109,3.193359375
,272.1287388,3.681640625
,272.1496441,3.681640625
,272.1658565,3.6767578125
,272.199491,3.681640625
,272.2045672,3.681640625
,272.2447874,3.681640625
,272.245325,3.681640625
,272.2649252,3.681640625
,272.300517,3.681640625
,272.3192166,3.681640625
,272.3275322,3.6083984375
,272.3455977,3.349609375
,272.3815792,3.1005859375
,272.3870808,2.861328125
,272.4069176,2.6220703125
,272.4268484,2.4072265625
,272.4621264,2.177734375
,272.4675346,1.9677734375
,272.5028325,1.7431640625
,272.503427,1.5283203125
,272.541105,1.3134765625
,272.5620161,1.103515625
,272.5646288,0.9130859375
,272.605875,0.7373046875
,272.6062394,0.5712890625
,272.6364903,0.419921875
,272.6469571,0.29296875
,272.6847472,0.17578125
,272.6851735,0.087890625
,272.7212977,0.0390625
,272.7435333,0.0048828125
,272.7441037,0.0048828125
,272.7789706,0.0048828125
,272.8003318,0.0048828125
,272.80105,0.0048828125
,272.8366316,0.0048828125
,272.8572206,0.0048828125
,272.8633149,0.0048828125
,272.9005334,0.0048828125
,272.9208395,0.0341796875
,272.9246537,0.3076171875
,272.9669134,0.9228515625
,272.9674097,1.7431640625
,273.0018313,2.44140625
,273.0225804,3.1005859375
,273.0274011,3.623046875
,273.0757233,3.6767578125
,273.0760849,3.6767578125
,273.0966689,3.681640625
,273.1068898,3.681640625
,273.1548737,3.681640625
,273.1552671,3.6767578125
,273.1675291,3.681640625
,273.2159709,3.681640625
,273.2163275,3.681640625
,273.2241272,3.681640625
,273.2597905,3.662109375
,273.2705126,3.427734375
,273.2858226,3.1884765625
,273.320544,2.978515625
,273.3410107,2.7685546875
,273.3470512,2.5439453125
,273.3887001,2.3193359375
,273.3891852,2.0751953125
,273.4250173,1.8505859375
,273.4497644,1.6162109375
,273.4501434,1.3916015625
,273.4669459,1.162109375
,273.5029518,0.947265625
,273.5085833,0.7373046875
,273.5441283,0.5517578125
,273.5492145,0.380859375
,273.5647025,0.2294921875
,273.5854183,0.1220703125
,273.6222624,0.029296875
,273.6423816,0.0048828125
,273.6480947,0.0048828125
,273.6859205,0.0048828125
,273.6862775,0.0048828125
,273.7316263,0.0048828125
,273.7321082,0.0048828125
,273.7619643,0.0048828125
,273.767012,0.0048828125
,273.785963,0.0048828125
,273.8268426,0.0048828125
,273.8273121,0.0048828125
,273.8653828,0.0048828125
,273.866072,0.0048828125
,273.9035775,0.029296875
,273.9236149,0.302734375
,273.9283796,0.830078125
,273.9633392,1.6455078125
,273.9856393,2.3876953125
,273.9925502,3.0517578125
,274.0073018,3.5986328125
,274.0437228,3.681640625
,274.0647887,3.681640625
,274.0701288,3.6767578125
,274.106753,3.6767578125
,274.1096545,3.681640625
,274.1470827,3.681640625
,274.1515661,3.6767578125
,274.1673875,3.6767578125
,274.1884487,3.681640625
,274.223637,3.681640625
,274.2270656,3.681640625
,274.2643616,3.5791015625
,274.2693995,3.330078125
,274.2910508,3.0810546875
,274.3277793,2.841796875
,274.3303636,2.607421875
,274.3468195,2.3876953125
,274.3812886,2.177734375
,274.4015895,1.982421875
,274.4089807,1.77734375
,274.4439483,1.58203125
,274.450776,1.38671875
,274.4977352,1.1865234375
,274.4983414,0.986328125
,274.5080658,0.80078125
,274.5426088,0.6298828125
,274.5478747,0.458984375
,274.5910254,0.3076171875
,274.5916032,0.1611328125
,274.6205745,0.048828125
,274.6260331,0.0048828125
,274.6679158,0.0048828125
,274.668275,0.0048828125
,274.6887367,0.0048828125
,274.7085785,0.0048828125
,274.7459178,0.0048828125
,274.7465325,0.0048828125
,274.782419,0.0048828125
,274.8036135,0.0048828125
,274.8070071,0.0048828125
,274.852791,0.0048828125
,274.8531583,0.0048828125
,274.8733066,0.029296875
,274.8882201,0.3076171875
,274.9091279,0.869140625
,274.944885,1.6845703125
,274.9498287,2.4072265625
,274.9931735,3.0859375
,274.9937687,3.623046875
,275.0095623,3.681640625
,275.0467358,3.681640625
,275.0545051,3.6767578125
,275.0672455,3.6767578125
,275.1046321,3.681640625
,275.1248021,3.681640625
,275.1293144,3.681640625
,275.163839,3.681640625
,275.1845634,3.6767578125
,275.1924957,3.681640625
,275.2419985,3.681640625
,275.2423668,3.486328125
,275.2491609,3.2763671875
,275.2847841,3.076171875
,275.2902133,2.8857421875
,275.3097602,2.685546875
,275.3442942,2.490234375
,275.365152,2.2802734375
,275.369536,2.0703125
,275.4140994,1.85546875
,275.4144794,1.640625
,275.4343906,1.40625
,275.4483658,1.1767578125
,275.4828951,0.9765625
,275.5039257,0.7861328125
,275.5120376,0.6103515625
,275.5320851,0.4443359375
,275.5681148,0.2978515625
,275.5709389,0.17578125
,275.5863618,0.0732421875
,275.625536,0.009765625
,275.6452783,0.0048828125
,275.6510518,0.0048828125
,275.6987582,0.0048828125
,275.6991172,0.0048828125
,275.7080418,0.0048828125
,275.7460427,0.0048828125
,275.7464042,0.0048828125
,275.767033,0.1123046875
,275.8035931,0.654296875
,275.8091051,1.4306640625
,275.8529236,2.177734375
,275.8533212,2.802734375
,275.8734266,3.3642578125
,275.8930977,3.6767578125
,275.9308554,3.681640625
,275.9312642,3.681640625
,275.9678847,3.681640625
,275.9685688,3.681640625
,275.9883292,3.6767578125
,276.0238069,3.681640625
,276.0453141,3.681640625
,276.0521549,3.681640625
,276.1024203,3.6767578125
,276.1027945,3.623046875
,276.1118591,3.4228515625
,276.1335534,3.22265625
,276.1547945,3.0126953125
,276.1743248,2.7978515625
,276.190648,2.587890625
,276.2269868,2.392578125
,276.2303996,2.1923828125
,276.266024,1.982421875
,276.2870204,1.77734375
,276.2922017,1.5673828125
,276.3274373,1.357421875
,276.3333045,1.142578125
,276.3506169,0.9326171875
,276.3873404,0.72265625
,276.3902632,0.52734375
,276.4278262,0.3369140625
,276.4309704,0.166015625
,276.4462985,0.0146484375
,276.484003,0.0048828125
,276.504866,0.0048828125
,276.509915,0.0048828125
,276.5460935,0.0048828125
,276.5662767,0.0048828125
,276.5719269,0.0048828125
,276.60802,0.0048828125
,276.6083821,0.0048828125
,276.627454,0.0048828125
,276.6481926,0.0048828125
,276.686639,0.0048828125
,276.7202661,0.0048828125
,276.7208315,0.0048828125
,276.7305865,0.302734375
,276.7825922,1.03515625
,276.7830233,1.8212890625
,276.7922131,2.5830078125
,276.8278231,3.2421875
,276.8483331,3.681640625
,276.8549248,3.681640625
,276.8760927,3.681640625
,276.9111412,3.6767578125
,276.9117789,3.6767578125
,276.9549598,3.681640625
,276.9553725,3.681640625
,276.9723501,3.681640625
,276.9931997,3.6767578125
,277.0270466,3.681640625
,277.0481515,3.681640625
,277.0557401,3.681640625
,277.0720869,3.6328125
,277.1083509,3.4326171875
,277.1131401,3.2421875
,277.1492532,3.056640625
,277.1525524,2.8564453125
,277.1907127,2.65625
,277.221057,2.451171875
,277.2215339,2.236328125
,277.2355182,2.0263671875
,277.2523212,1.81640625
,277.3008922,1.611328125
,277.3014865,1.40625
,277.3114261,1.1962890625
,277.3469904,0.9912109375
,277.3668518,0.7861328125
,277.3741059,0.5908203125
,277.4238,0.4052734375
,277.4242999,0.2490234375
,277.4451336,0.087890625
,277.452393,0.0048828125
,277.4895135,0.0048828125
,277.4941052,0.0048828125
,277.5106255,0.0048828125
,277.530327,0.0048828125
,277.5658828,0.0048828125
,277.5867301,0.0048828125
,277.5913426,0.0048828125
,277.6129327,0.0048828125
,277.6480848,0.0048828125
,277.6510985,0.0048828125
,277.6890845,0.244140625
,277.6920001,1.044921875
,277.7319383,1.81640625
,277.7325212,2.5537109375
,277.7718388,3.1689453125
,277.791354,3.6083984375
,277.7955555,3.6767578125
,277.8132534,3.681640625
,277.833094,3.681640625
,277.8807201,3.681640625
,277.881372,3.6767578125
,277.895666,3.6767578125
,277.9147385,3.681640625
,277.959591,3.681640625
,277.9601637,3.681640625
,277.9892953,3.6083984375
,277.99245,3.4033203125
,278.0116599,3.2080078125
,278.0521819,3.0126953125
,278.0525435,2.83203125
,278.0734117,2.65625
,278.1143997,2.48046875
,278.1147701,2.2998046875
,278.1503566,2.099609375
,278.1509459,1.9091796875
,278.1845985,1.7138671875
,278.2057062,1.5185546875
,278.2132273,1.328125
,278.2525562,1.142578125
,278.2533057,0.9423828125
,278.2874594,0.7373046875
,278.3085473,0.5224609375
,278.3090182,0.3173828125
,278.3458466,0.126953125
,278.3665994,0.0048828125
,278.3741103,0.0048828125
,278.4099461,0.0048828125
,278.4145658,0.0048828125
,278.4562985,0.0048828125
,278.4567741,0.0048828125
,278.4897165,0.0048828125
,278.5117748,0.0048828125
,278.5122832,0.0048828125
,278.5493955,0.0048828125
,278.553385,0.0439453125
,278.5915881,0.703125
,278.5948698,1.5185546875
,278.6325863,2.24609375
,278.6333394,2.91015625
,278.6729195,3.41796875
,278.6944731,3.681640625
,278.69503,3.681640625
,278.7144991,3.6767578125
,278.7498079,3.681640625
,278.7557005,3.681640625
,278.7989643,3.681640625
,278.7993307,3.6767578125
,278.817403,3.681640625
,278.853494,3.681640625
,278.859001,3.5888671875
,278.8745277,3.3740234375
,278.9114598,3.154296875
,278.9121578,2.9443359375
,278.9461605,2.7392578125
,278.9670577,2.5439453125
,278.9764586,2.3486328125
,279.0121027,2.158203125
,279.0179136,1.9580078125
,279.0370623,1.7626953125
,279.0799349,1.572265625
,279.0805197,1.3818359375
,279.1004309,1.1767578125
,279.1142897,0.966796875
,279.134788,0.76171875
,279.1690096,0.556640625
,279.1894844,0.3857421875
,279.1980679,0.244140625
,279.2116339,0.1416015625
,279.2471769,0.087890625
,279.2677509,0.029296875
,279.2750066,0.0048828125
,279.3115953,0.0048828125
,279.3142731,0.0048828125
,279.3313377,0.0048828125
,279.3623881,0.0048828125
,279.3762948,0.2587890625
,279.4115597,0.8935546875
,279.4171446,1.6455078125
,279.4336511,2.314453125
,279.4709722,2.919921875
,279.5006785,3.3642578125
,279.5011403,3.681640625
,279.5156662,3.6767578125
,279.5633458,3.6767578125
,279.5639996,3.681640625
,279.5834709,3.681640625
,279.5951849,3.681640625
,279.6299208,3.6767578125
,279.6361868,3.6767578125
,279.6716252,3.525390625
,279.6749998,3.3056640625
,279.7120331,3.1005859375
,279.7172231,2.8857421875
,279.7511157,2.6904296875
,279.7712695,2.5048828125
,279.7802016,2.3291015625
,279.817175,2.1533203125
,279.8176947,1.9970703125
,279.8343469,1.845703125
,279.8712909,1.6943359375
,279.8762347,1.5234375
,279.9199399,1.34765625
,279.9203305,1.142578125
,279.9370072,0.9375
,279.9822669,0.712890625
,279.9827356,0.5126953125
,279.9947956,0.3369140625
,280.0288001,0.1806640625
,280.0502683,0.048828125
,280.0568235,0.0048828125
,280.0722937,0.0048828125
,280.1106068,0.0048828125
,280.1410248,0.0048828125
,280.1416323,0.0048828125
,280.1547726,0.0048828125
,280.2040427,0.1953125
,280.2046255,0.859375
,280.2343951,1.611328125
,280.2347609,2.2802734375
,280.271983,2.87109375
,280.2956605,3.291015625
,280.2962982,3.603515625
,280.3426506,3.681640625
,280.3432158,3.6767578125
,280.373618,3.6767578125
,280.3741994,3.681640625
,280.4119047,3.681640625
,280.4358137,3.6767578125
,280.4361798,3.5888671875
,280.4808594,3.3935546875
,280.4812243,3.1884765625
,280.5025381,2.9931640625
,280.5191905,2.7978515625
,280.5365308,2.6171875
,280.5717531,2.44140625
,280.5767392,2.265625
,280.6211285,2.080078125
,280.6217731,1.8994140625
,280.637989,1.708984375
,280.6598945,1.5087890625
,280.6971563,1.3134765625
,280.6976107,1.103515625
,280.7341463,0.9033203125
,280.734584,0.712890625
,280.7698137,0.5322265625
,280.7907606,0.3564453125
,280.7978339,0.1904296875
,280.8145762,0.0390625
,280.8332602,0.0048828125
,280.8677933,0.0048828125
,280.8883414,0.0048828125
,280.8958926,0.0048828125
,280.932236,0.0048828125
,280.9377141,0.0048828125
,280.9732926,0.0048828125
,280.9736601,0.0048828125
,281.0080292,0.0048828125
,281.0287448,0.0048828125
,281.035128,0.0048828125
,281.0713997,0.0048828125
,281.0911744,0.0048828125
,281.0964912,0.0048828125
,281.14958,0.25390625
,281.1502153,1.8896484375
,281.1581035,3.0859375
,281.1915588,3.681640625
,281.2135916,3.681640625
,281.2207658,3.681640625
,281.2556343,3.681640625
,281.2560116,3.681640625
,281.2906386,3.6767578125
,281.3118188,3.681640625
,281.3180482,3.681640625
,281.3664654,3.6767578125
,281.3668519,3.6767578125
,281.3803645,3.681640625
,281.4155552,3.4912109375
,281.435229,3.251953125
,281.4356013,3.037109375
,281.4713131,2.8125
,281.4930078,2.5830078125
,281.4997363,2.333984375
,281.5383955,2.0849609375
,281.5388777,1.8359375
,281.5704375,1.5869140625
,281.5911794,1.3330078125
,281.6009427,1.083984375
,281.6181927,0.8544921875
,281.6522104,0.64453125
,281.6589312,0.4638671875
,281.6962207,0.2978515625
,281.6992918,0.1513671875
,281.7165475,0.0341796875
,281.7395349,0.0048828125
,281.7561361,0.0048828125
,281.7921678,0.0048828125
,281.7968759,0.0048828125
,281.8317719,0.0048828125
,281.8527381,0.0048828125
,281.8595342,0.4296875
,281.8956302,1.2109375
,281.8982258,1.9580078125
,281.9371208,2.6611328125
,281.9414717,3.2568359375
,281.9785652,3.6669921875
,281.9791773,3.6767578125
,281.9990905,3.681640625
,282.0348368,3.681640625
,282.0395181,3.681640625
,282.0596466,3.681640625
,282.0801921,3.681640625
,282.1150577,3.681640625
,282.1205162,3.681640625
,282.1557397,3.4326171875
,282.1775533,3.193359375
,282.1781376,2.94921875
,282.214032,2.724609375
,282.2198331,2.5
,282.2538447,2.2900390625
,282.275017,2.080078125
,282.2803712,1.865234375
,282.3161372,1.650390625
,282.3220841,1.42578125
,282.3371602,1.1962890625
,282.3824902,0.9716796875
,282.3830705,0.7568359375
,282.3982851,0.5517578125
,282.4342918,0.3564453125
,282.439823,0.1806640625
,282.4567634,0.0146484375
,282.476867,0.0048828125
,282.5130153,0.0048828125
,282.5177138,0.0048828125
,282.5554259,0.0048828125
,282.5585188,0.0048828125
,282.5965585,0.0048828125
,282.5971039,0.0048828125
,282.6304373,0.0048828125
,282.6512536,0.0048828125
,282.6587031,0.0048828125
,282.6939667,0.0048828125
,282.6976254,0.0048828125
,282.7398677,0.0048828125
,282.7403775,0.0048828125
,282.7766694,0.068359375
,282.7795049,0.595703125
,282.8138969,1.396484375
,282.8343475,2.265625
,282.8424456,3.0029296875
,282.8805433,3.6669921875
,282.8809002,3.6767578125
,282.8998242,3.6767578125
,282.9341604,3.681640625
,282.939515,3.681640625
,282.9755466,3.681640625
,283.0036331,3.681640625
,283.0040141,3.6767578125
,283.0505379,3.681640625
,283.0511302,3.681640625
,283.060352,3.681640625
,283.0807582,3.6767578125
,283.1166472,3.6767578125
,283.1188897,3.4716796875
,283.1529738,3.2666015625
,283.1741041,3.056640625
,283.1815274,2.8662109375
,283.2191649,2.6708984375
,283.2234654,2.4755859375
,283.2385039,2.2802734375
,283.2724776,2.080078125
,283.2931641,1.8798828125
,283.3011616,1.669921875
,283.3495555,1.4794921875
,283.3501411,1.279296875
,283.3631164,1.0791015625
,283.4122739,0.8740234375
,283.412708,0.6884765625
,283.4226035,0.5078125
,283.439211,0.3515625
,283.474147,0.224609375
,283.506054,0.1123046875
,283.5067432,0.0146484375
,283.520674,0.0048828125
,283.5370955,0.0048828125
,283.5573969,0.0048828125
,283.5932536,0.0048828125
,283.6138535,0.0048828125
,283.6193429,0.0048828125
,283.6536659,0.0048828125
,283.6751605,0.0048828125
,283.6823255,0.0048828125
,283.698736,0.0048828125
,283.7238538,0.0048828125
,283.7402235,0.0048828125
,283.7698308,0.21484375
,283.781419,0.8984375
,283.8305613,1.7626953125
,283.8309212,2.5146484375
,283.8413836,3.2275390625
,283.8769045,3.681640625
,283.8816113,3.681640625
,283.9176201,3.681640625
,283.9248055,3.681640625
,283.9582128,3.681640625
,283.9585754,3.681640625
,283.9929016,3.6767578125
,284.0138809,3.6767578125
,284.0223992,3.681640625
,284.0601914,3.681640625
,284.0650436,3.681640625
,284.0828802,3.681640625
,284.119298,3.4765625
,284.1234558,3.2763671875
,284.158596,3.076171875
,284.1801351,2.8857421875
,284.1807315,2.6953125
,284.2321278,2.5048828125
,284.2324963,2.3095703125
,284.2433154,2.099609375
,284.2792849,1.89453125
,284.2824529,1.6748046875
,284.3191825,1.46484375
,284.3247935,1.2451171875
,284.3403872,1.0302734375
,284.3754518,0.830078125
,284.3953994,0.6396484375
,284.4021178,0.458984375
,284.4371096,0.3076171875
,284.4416868,0.1611328125
,284.4608022,0.0390625
,284.481656,0.0048828125
,284.5312828,0.0048828125
,284.5317583,0.0048828125
,284.5605093,0.0048828125
,284.560876,0.0048828125
,284.5965247,0.0048828125
,284.624488,0.0048828125
,284.6249709,0.0048828125
,284.640304,0.244140625
,284.6630213,0.99609375
,284.6987211,1.748046875
,284.7010043,2.490234375
,284.7384493,3.0859375
,284.7416518,3.564453125
,284.7784449,3.681640625
,284.8098213,3.681640625
,284.8102941,3.681640625
,284.8226072,3.6767578125
,284.8701801,3.681640625
,284.8705489,3.681640625
,284.8916792,3.681640625
,284.9022322,3.681640625
,284.948829,3.6767578125
,284.9494232,3.486328125
,284.9647408,3.2666015625
,285.0006605,3.06640625
,285.0051917,2.8662109375
,285.0413565,2.67578125
,285.0437732,2.4853515625
,285.0776779,2.2998046875
,285.0814739,2.1142578125
,285.1167045,1.93359375
,285.1377573,1.7431640625
,285.1449912,1.552734375
,285.1817401,1.357421875
,285.1823525,1.162109375
,285.217379,0.966796875
,285.2379793,0.76171875
,285.2434016,0.56640625
,285.2917034,0.3857421875
,285.2922031,0.21484375
,285.3044667,0.05859375
,285.3389787,0.0048828125
,285.3393977,0.0048828125
,285.3593143,0.0048828125
,285.3986378,0.0048828125
,285.4181999,0.0048828125
,285.4210862,0.0048828125
,285.4616306,0.0048828125
,285.4619923,0.0048828125
,285.4823465,0.0048828125
,285.5012637,0.0048828125
,285.525229,0.0048828125
,285.5416842,0.0048828125
,285.5798432,0.0048828125
,285.601528,0.0048828125
,285.6019613,0.0048828125
,285.6369565,0.2294921875
,285.6589652,0.8935546875
,285.6637439,1.69921875
,285.7000761,2.4951171875
,285.7036479,3.1787109375
,285.7452284,3.681640625
,285.7762373,3.6767578125
,285.7769005,3.681640625
,285.7879252,3.681640625
,285.8011204,3.681640625
,285.8373201,3.6767578125
,285.8576669,3.681640625
,285.8652291,3.681640625
,285.9020602,3.681640625
,285.9069912,3.6767578125
,285.9432334,3.6767578125
,285.9451436,3.681640625
,285.9639124,3.6279296875
,286.0001766,3.408203125
,286.0048127,3.2080078125
,286.0413558,3.0078125
,286.0461827,2.8076171875
,286.0870914,2.59765625
,286.0879338,2.3876953125
,286.1227112,2.1826171875
,286.1282737,1.9677734375
,286.1429678,1.7626953125
,286.1643233,1.552734375
,286.2114312,1.3427734375
,286.2117933,1.1181640625
,286.2263955,0.9033203125
,286.2450999,0.6787109375
,286.2904539,0.4736328125
,286.2910328,0.2734375
,286.3016487,0.09765625
,286.351091,0.0048828125
,286.3514549,0.0048828125
,286.3720827,0.0048828125
,286.3843316,0.0048828125
,286.4179974,0.0048828125
,286.4390872,0.0048828125
,286.4395493,0.0048828125
,286.4760549,0.0048828125
,286.4971471,0.0048828125
,286.5020416,0.0048828125
,286.5368602,0.0048828125
,286.5572039,0.0048828125
,286.5645432,0.0048828125
,286.60127,0.0048828125
,286.633488,0.0048828125
,286.633899,0.0048828125
,286.6441798,0.0048828125
,286.6791938,0.234375
,286.6990622,0.83984375
,286.7038632,1.6748046875
,286.7400425,2.4560546875
,286.7452137,3.115234375
,286.78967,3.681640625
,286.790034,3.681640625
,286.8082396,3.681640625
,286.8439147,3.681640625
,286.8470814,3.6767578125
,286.8651834,3.681640625
,286.8999677,3.681640625
,286.9054114,3.681640625
,286.9465274,3.6767578125
,286.9471234,3.6767578125
,286.9836775,3.681640625
,286.9873945,3.681640625
,287.0226074,3.5986328125
,287.0533407,3.4228515625
,287.0537482,3.2666015625
,287.0698429,3.125
,287.0855774,2.998046875
,287.1297252,2.8857421875
,287.1303139,2.7880859375
,287.146121,2.7001953125
,287.1820116,2.6220703125
,287.1876486,2.55859375
,287.2393112,2.509765625
,287.2398585,2.4755859375
,287.2434575,2.4560546875
,287.2788419,2.44140625
,287.3010637,2.4267578125
,287.3076155,2.412109375
,287.3479255,2.392578125
,287.3482946,2.3681640625
,287.3942573,2.353515625
,287.3946245,2.3193359375
,287.4082387,2.28515625
,287.4251963,2.236328125
,287.4591167,2.1923828125
,287.4655366,2.1435546875
,287.5028275,2.080078125
,287.5059313,2.01171875
,287.5438032,1.9384765625
,287.5467144,1.8603515625
,287.5822891,1.81640625
,287.6024942,1.8603515625
,287.605204,2.080078125
,287.6413044,2.36328125
,287.6468745,2.6513671875
,287.6833731,2.9052734375
,287.6879852,3.1396484375
,287.7244495,3.33984375
,287.7288617,3.4814453125
,287.768351,3.59375
,287.7687269,3.65234375
,287.8029696,3.681640625
,287.8235843,3.6767578125
,287.8269262,3.662109375
,287.8790666,3.603515625
,287.8794364,3.5205078125
,287.8885716,3.4228515625
,287.9246843,3.3203125
,287.9289846,3.2177734375
,287.9642098,3.125
,287.9647797,3.0322265625
,288.0006968,2.9443359375
,288.0063121,2.8662109375
,288.0434384,2.7783203125
,288.046219,2.685546875
,288.0804413,2.59765625
,288.1003206,2.5048828125
,288.1078508,2.412109375
,288.1439383,2.314453125
,288.1745411,2.2216796875
,288.1749522,2.1435546875
,288.1870525,2.060546875
,288.2222961,1.9873046875
,288.227794,1.9140625
,288.2644223,1.845703125
,288.2679419,1.77734375
,288.2890358,1.708984375
,288.3049831,1.6455078125
,288.3472211,1.591796875
,288.3479427,1.5380859375
,288.3950275,1.4501953125
,288.3956871,1.4013671875
,288.4081639,1.3427734375
,288.4437551,1.279296875
,288.449401,1.220703125
,288.4692261,1.171875
,288.5058724,1.11328125
,288.5114777,1.064453125
,288.5252766,1.015625
,288.5639983,0.966796875
,288.5662404,0.908203125
,288.5994959,0.849609375
,288.6203257,0.80078125
,288.6295746,0.8154296875
,288.6737542,1.0107421875
,288.6748612,1.3623046875
,288.6901714,1.77734375
,288.7058222,2.1240234375
,288.7411967,2.4462890625
,288.7618153,2.705078125
,288.7672153,2.9345703125
,288.8040025,3.1005859375
,288.8240096,3.232421875
,288.8295644,3.310546875
,288.8653208,3.3642578125
,288.8656873,3.37890625
,288.8864939,3.3740234375
,288.9239981,3.33984375
,288.9283887,3.271484375
,288.9484953,3.1884765625
,288.9988368,3.1005859375
,288.9992082,3.0078125
,289.0093082,2.919921875
,289.0445748,2.83203125
,289.0653127,2.7490234375
,289.0722701,2.6416015625
,289.0879467,2.548828125
,289.1213772,2.48046875
,289.1429629,2.4072265625
,289.1501841,2.3291015625
,289.1864202,2.24609375
,289.1889644,2.16796875
,289.224731,2.0947265625
,289.244856,2.0263671875
,289.2471146,1.9580078125
,289.2971094,1.89453125
,289.2977165,1.8359375
,289.3075188,1.7724609375
,289.3411334,1.7138671875
,289.3613966,1.650390625
,289.3691564,1.591796875
,289.4053224,1.533203125
,289.4265013,1.474609375
,289.4270733,1.4208984375
,289.462458,1.3720703125
,289.4851325,1.3232421875
,289.4901575,1.2744140625
,289.5305009,1.220703125
,289.531104,1.1767578125
,289.5512123,1.1279296875
,289.5867181,1.07421875
,289.5870826,1.0205078125
,289.6365574,0.9716796875
,289.6369983,0.9130859375
,289.6483634,0.87890625
,289.6862466,0.9423828125
,289.6906783,1.1572265625
,289.7312951,1.50390625
,289.7319086,1.8408203125
,289.769187,2.1630859375
,289.7697291,2.421875
,289.793533,2.666015625
,289.8100281,2.8271484375
,289.8298412,2.98828125
,289.8499248,3.0908203125
,289.8853288,3.1640625
,289.8910895,3.1884765625
,289.9321787,3.193359375
,289.9328418,3.173828125
,289.9519165,3.115234375
,289.9909758,3.037109375
,289.9913881,2.9541015625
,290.0271777,2.8662109375
,290.0288818,2.783203125
,290.0728844,2.6953125
,290.0733742,2.6123046875
,290.0925375,2.529296875
,290.135055,2.4462890625
,290.135522,2.373046875
,290.1486569,2.294921875
,290.1975845,2.2119140625
,290.1982743,2.1435546875
,290.2104236,2.0703125
,290.25955,1.9970703125
,290.2599309,1.93359375
,290.2796652,1.8603515625
,290.2935034,1.7919921875
,290.3118737,1.7236328125
,290.3277844,1.66015625
,290.3638364,1.6015625
,290.3691579,1.5380859375
,290.4152971,1.484375
,290.4156607,1.4208984375
,290.4370267,1.3623046875
,290.4509465,1.3037109375
,290.4871841,1.25
,290.5114503,1.1865234375
,290.5137647,1.142578125
,290.5294505,1.0595703125
,290.5647598,1.015625
,290.586417,0.966796875
,290.592207,0.91796875
,290.6294722,0.8642578125
,290.6301237,0.810546875
,290.6680281,0.7568359375
,290.6979456,0.703125
,290.6984147,0.693359375
,290.7098902,0.810546875
,290.7457087,1.11328125
,290.7511587,1.484375
,290.7856536,1.85546875
,290.8059999,2.158203125
,290.8120284,2.4267578125
,290.8475355,2.6318359375
,290.8520952,2.7978515625
,290.8704363,2.9052734375
,290.9046247,2.9931640625
,290.9098303,3.0322265625
,290.9485418,3.037109375
,290.9686325,3.0126953125
,290.9721581,2.958984375
,291.0110412,2.880859375
,291.0114596,2.79296875
,291.0463332,2.7099609375
,291.0668048,2.626953125
,291.0723284,2.5537109375
,291.0919016,2.48046875
,291.1343686,2.4072265625
,291.1350679,2.333984375
,291.1513778,2.265625
,291.1853917,2.1875
,291.2078242,2.119140625
,291.2117268,2.05078125
,291.2462318,1.9775390625
,291.2537642,1.8896484375
,291.2709294,1.806640625
,291.3066647,1.7578125
,291.3116435,1.69921875
,291.34675,1.640625
,291.3535539,1.58203125
,291.3991304,1.5234375
,291.3994934,1.4599609375
,291.4203214,1.40625
,291.4302487,1.3427734375
,291.4661189,1.2841796875
,291.4944066,1.23046875
,291.495008,1.171875
,291.5298584,1.1181640625
,291.5304643,1.07421875
,291.5718727,1.025390625
,291.5921302,0.9716796875
,291.5939622,0.91796875
,291.609559,0.859375
,291.6456441,0.8056640625
,291.6662201,0.7666015625
,291.6718631,0.810546875
,291.7088812,0.99609375
,291.7138051,1.3330078125
,291.7490502,1.669921875
,291.7543472,2.001953125
,291.7723684,2.2802734375
,291.8087292,2.5244140625
,291.8093238,2.7099609375
,291.845787,2.8564453125
,291.866447,2.96875
,291.8720873,3.02734375
,291.9064925,3.0615234375
,291.9269798,3.06640625
,291.9342245,3.0419921875
,291.9549036,2.98828125
,291.9760442,2.8955078125
,291.9914084,2.79296875
,292.0434463,2.71484375
,292.0439161,2.6318359375
,292.0534081,2.5537109375
,292.1043494,2.4755859375
,292.1047242,2.40234375
,292.1135867,2.3291015625
,292.148354,2.2509765625
,292.1690342,2.16796875
,292.169491,2.109375
,292.2168703,2.041015625
,292.2174655,1.9677734375
,292.2327699,1.8994140625
,292.2808154,1.8212890625
,292.2813993,1.7529296875
,292.3001723,1.6796875
,292.3167499,1.611328125
,292.3319989,1.5478515625
,292.3528028,1.484375
,292.3899823,1.4208984375
,292.3946633,1.3525390625
,292.4315849,1.2939453125
,292.4319979,1.2353515625
,292.4690077,1.171875
,292.4906006,1.1083984375
,292.4953995,1.0498046875
,292.5123725,0.986328125
,292.5476095,0.9326171875
,292.5522833,0.8740234375
,292.5922238,0.8203125
,292.5925853,0.7666015625
,292.6136284,0.7177734375
,292.6537799,0.6640625
,292.654236,0.6103515625
,292.7017168,0.556640625
,292.7023135,0.48828125
,292.7127728,0.4541015625
,292.7484009,0.498046875
,292.754474,0.703125
,292.7904309,1.09375
,292.7937633,1.5087890625
,292.8143991,1.9140625
,292.8506139,2.255859375
,292.8572048,2.51953125
,292.9070552,2.7490234375
,292.9076489,2.91015625
,292.9134293,3.0322265625
,292.951558,3.10546875
,292.953767,3.1494140625
,292.9984554,3.1494140625
,292.9988319,3.1298828125
,293.0163721,3.0810546875
,293.0535953,2.998046875
,293.0540851,2.900390625
,293.0931273,2.8125
,293.0934926,2.71484375
,293.1152729,2.6220703125
,293.1337701,2.5341796875
,293.1709488,2.4462890625
,293.2001865,2.3583984375
,293.2005604,2.2705078125
,293.2174397,2.1923828125
,293.2319612,2.119140625
,293.2679749,2.041015625
,293.2875374,1.9677734375
,293.2948412,1.89453125
,293.3146391,1.8212890625
,293.3492828,1.748046875
,293.3696267,1.669921875
,293.375547,1.591796875
,293.3961968,1.5185546875
,293.417993,1.4306640625
,293.4338413,1.3427734375
,293.4811434,1.2939453125
,293.481729,1.2353515625
,293.5123237,1.171875
,293.5167897,1.11328125
,293.5513191,1.0498046875
,293.5577183,0.986328125
,293.5772239,0.9228515625
,293.5976038,0.859375
,293.6140205,0.7958984375
,293.6493988,0.7421875
,293.6550156,0.6884765625
,293.6897924,0.6298828125
,293.6965385,0.576171875
,293.7321226,0.517578125
,293.7325117,0.4541015625
,293.7670235,0.4150390625
,293.7873575,0.400390625
,293.7948443,0.4833984375
,293.8152557,0.751953125
,293.8503314,1.15234375
,293.8565778,1.6064453125
,293.902229,1.9775390625
,293.9027135,2.3095703125
,293.9174068,2.55859375
,293.9536138,2.7685546875
,293.9539861,2.9150390625
,293.9903126,3.0224609375
,293.9936133,3.0810546875
,294.0291169,3.10546875
,294.0499275,3.095703125
,294.0541196,3.0517578125
,294.0903945,2.978515625
,294.1122187,2.8955078125
,294.1190975,2.7978515625
,294.1664745,2.7001953125
,294.1670774,2.607421875
,294.1757769,2.5146484375
,294.1963836,2.431640625
,294.2303995,2.353515625
,294.2513031,2.2705078125
,294.2565019,2.1875
,294.2912276,2.109375
,294.3125456,2.0361328125
,294.3177659,1.9580078125
,294.3343118,1.8798828125
,294.3691823,1.81640625
,294.396826,1.748046875
,294.3972046,1.6845703125
,294.4158041,1.6162109375
,294.4508878,1.5478515625
,294.4712906,1.4794921875
,294.4770666,1.4111328125
,294.4994502,1.34765625
,294.5159817,1.279296875
,294.5515185,1.2158203125
,294.5572951,1.1572265625
,294.5928867,1.09375
,294.5960237,1.03515625
,294.6328853,0.9814453125
,294.6643985,0.9228515625
,294.6649996,0.859375
,294.6750499,0.7958984375
,294.7117198,0.7373046875
,294.7167813,0.693359375
,294.752392,0.7470703125
,294.7551234,0.9765625
,294.7916838,1.30859375
,294.7971496,1.6748046875
,294.8322468,1.982421875
,294.8371276,2.275390625
,294.8821335,2.490234375
,294.8826027,2.67578125
,294.9136836,2.8076171875
,294.9140629,2.91015625
,294.9499622,2.958984375
,294.970952,2.98828125
,294.978022,2.9833984375
,295.022043,2.9541015625
,295.0224153,2.890625
,295.0379343,2.8076171875
,295.0747681,2.71484375
,295.0753511,2.6171875
,295.1131857,2.5244140625
,295.1159162,2.4462890625
,295.1624324,2.3681640625
,295.163,2.294921875
,295.1926665,2.216796875
,295.1977216,2.1435546875
,295.2386761,2.0654296875
,295.2392753,2.001953125
,295.2603244,1.9384765625
,295.2778962,1.8701171875
,295.3141302,1.7919921875
,295.3149887,1.7236328125
,295.3634389,1.6455078125
,295.3638276,1.5771484375
,295.3835475,1.5087890625
,295.400329,1.4404296875
,295.4153804,1.3720703125
,295.44938,1.30859375
,295.4702817,1.2451171875
,295.4774821,1.1865234375
,295.5213668,1.1181640625
,295.52184,1.0595703125
,295.5377652,1.0009765625
,295.5744116,0.9423828125
,295.5945535,0.888671875
,295.5995691,0.830078125
,295.6186929,0.7666015625
,295.6382757,0.72265625
,295.6733146,0.673828125
,295.6776383,0.625
,295.7216097,0.576171875
,295.7219749,0.5224609375
,295.742987,0.46875
,295.7579041,0.419921875
,295.7942247,0.4443359375
,295.8146875,0.6103515625
,295.8171493,0.9521484375
,295.8376794,1.3720703125
,295.878148,1.796875
,295.8785959,2.138671875
,295.9130253,2.44140625
,295.9335959,2.6806640625
,295.9391013,2.8857421875
,295.9738427,3.0224609375
,295.9782181,3.1298828125
,296.0145246,3.18359375
,296.0175949,3.2177734375
,296.0549185,3.2177734375
,296.0578247,3.1787109375
,296.0933816,3.1201171875
,296.1135259,3.037109375
,296.1190392,2.9345703125
,296.1550907,2.8369140625
,296.1554622,2.7490234375
,296.1927524,2.6611328125
,296.2217213,2.5732421875
,296.222185,2.490234375
,296.2404304,2.4072265625
,296.2754402,2.32421875
,296.2815284,2.2412109375
,296.3018685,2.1533203125
,296.3378637,2.080078125
,296.3409437,2.01171875
,296.3578334,1.93359375
,296.3933339,1.865234375
,296.3977656,1.796875
,296.4338533,1.7236328125
,296.4547977,1.650390625
,296.4599727,1.58203125
,296.5044522,1.513671875
,296.5048074,1.4501953125
,296.5252567,1.376953125
,296.5393335,1.3232421875
,296.5577908,1.259765625
,296.5933078,1.201171875
,296.6141005,1.1328125
,296.6191187,1.064453125
,296.6619588,0.99609375
,296.6625584,0.9423828125
,296.697179,0.87890625
,296.6977602,0.8203125
,296.7354097,0.76171875
,296.7362486,0.703125
,296.7734685,0.64453125
,296.8028495,0.5908203125
,296.8033134,0.537109375
,296.8202094,0.4931640625
,296.8540093,0.517578125
,296.8743036,0.693359375
,296.876522,1.0546875
,296.9129315,1.4453125
,296.9340513,1.8310546875
,296.9391609,2.1484375
,296.9748089,2.4267578125
,296.9802942,2.65625
,297.0175695,2.8271484375
,297.0203574,2.9541015625
,297.0555996,3.02734375
,297.0758568,3.076171875
,297.0765753,3.0810546875
,297.1284307,3.076171875
,297.1288891,3.037109375
,297.1495659,2.9638671875
,297.1606655,2.8759765625
,297.2072772,2.783203125
,297.2077567,2.6904296875
,297.2215116,2.59765625
,297.2380111,2.509765625
,297.2729937,2.431640625
,297.293202,2.3583984375
,297.2996689,2.28515625
,297.3463838,2.20703125
,297.3469687,2.1337890625
,297.3603236,2.0703125
,297.3949727,2.0068359375
,297.4244512,1.9384765625
,297.4251564,1.865234375
,297.4389238,1.8017578125
,297.4747445,1.728515625
,297.4795025,1.66015625
,297.5172004,1.6015625
,297.5201452,1.5283203125
,297.5673319,1.46484375
,297.5676994,1.4111328125
,297.5793125,1.357421875
,297.6153979,1.3037109375
,297.619466,1.2548828125
,297.6547948,1.2060546875
,297.6759376,1.15234375
,297.6807337,1.103515625
,297.7249646,1.064453125
,297.7253242,1.0107421875
,297.7436274,0.95703125
,297.7857281,0.908203125
,297.7863276,0.9130859375
,297.8000991,1.0205078125
,297.8352057,1.26953125
,297.8406252,1.552734375
,297.8766495,1.8505859375
,297.8810532,2.0947265625
,297.9025296,2.3193359375
,297.9392695,2.48046875
,297.9420231,2.6171875
,297.9866172,2.71484375
,297.9872112,2.7685546875
,298.0166802,2.802734375
,298.0193065,2.802734375
,298.0639219,2.7783203125
,298.0642865,2.7197265625
,298.0854616,2.646484375
,298.1021212,2.568359375
,298.1357876,2.48046875
,298.1561554,2.40234375
,298.1586073,2.3291015625
,298.1969573,2.255859375
,298.2014593,2.1923828125
,298.2504381,2.1337890625
,298.2509423,2.0751953125
,298.2624241,2.0166015625
,298.2989044,1.9482421875
,298.304167,1.875
,298.3194771,1.806640625
,298.3617671,1.7333984375
,298.3622505,1.669921875
,298.3924229,1.6015625
,298.4028257,1.5380859375
,298.4400465,1.474609375
,298.4406469,1.40625
,298.4768895,1.3427734375
,298.4973193,1.2841796875
,298.5025733,1.220703125
,298.5203939,1.162109375
,298.5551791,1.1083984375
,298.5754602,1.0498046875
,298.5811487,0.99609375
,298.6173625,0.9375
,298.6232356,0.8740234375
,298.6592272,0.8154296875
,298.6638407,0.76171875
,298.6996185,0.7080078125
,298.7000226,0.654296875
,298.7347133,0.60546875
,298.7550513,0.5615234375
,298.7635541,0.537109375
,298.7989942,0.595703125
,298.8019319,0.83984375
,298.8230561,1.1865234375
,298.8587094,1.5673828125
,298.8908075,1.89453125
,298.8911778,2.197265625
,298.9015934,2.451171875
,298.9387265,2.63671875
,298.9435487,2.7880859375
,298.9626019,2.8955078125
,299.0126152,2.9736328125
,299.0129924,3.0078125
,299.0257176,3.017578125
,299.0418058,2.998046875
,299.0774636,2.9541015625
,299.0801475,2.8857421875
,299.1172106,2.802734375
,299.1393978,2.7099609375
,299.1439844,2.6171875
,299.1796381,2.529296875
,299.1830255,2.44140625
,299.2321906,2.3583984375
,299.2324884,2.2802734375
,299.2449005,2.20703125
,299.262158,2.1337890625
,299.3104036,2.0703125
,299.3113777,2.0068359375
,299.3292996,1.9384765625
,299.343966,1.8701171875
,299.3797965,1.8017578125
,299.3848253,1.73828125
,299.4204305,1.669921875
,299.4210123,1.6015625
,299.4558843,1.54296875
,299.4766049,1.4794921875
,299.4825644,1.4208984375
,299.5272019,1.3525390625
,299.5275741,1.2890625
,299.5617884,1.220703125
,299.5650671,1.1572265625
,299.6025545,1.083984375
,299.6031449,1.0205078125
,299.6219924,0.9619140625
,299.6683468,0.9033203125
,299.6687109,0.83984375
,299.6893065,0.7763671875
,299.7055651,0.712890625
,299.7418697,0.6494140625
,299.744594,0.6005859375
,299.7628214,0.5419921875
,299.7822369,0.4833984375
,299.825545,0.4248046875
,299.8261071,0.380859375
,299.844421,0.4150390625
,299.886507,0.615234375
,299.8868752,0.99609375
,299.9063976,1.4013671875
,299.9250404,1.7919921875
,299.9620706,2.1044921875
,299.9665113,2.392578125
,299.9829142,2.607421875
,300.0172063,2.79296875
,300.0229984,2.9150390625
,300.0593395,3.0078125
,300.0648188,3.0517578125
,300.0994528,3.076171875
,300.1046982,3.056640625
,300.1386259,3.017578125
,300.1599239,2.9443359375
,300.1630659,2.8564453125
,300.198707,2.763671875
,300.2037039,2.666015625
,300.2405287,2.568359375
,300.2439778,2.48046875
,300.2798013,2.3974609375
,300.299769,2.314453125
,300.3060063,2.2314453125
,300.3227573,2.1533203125
,300.3439681,2.0849609375
,300.3788029,2.0166015625
,300.3990708,1.943359375
,300.4042507,1.8701171875
,300.447111,1.796875
,300.4474766,1.7236328125
,300.481802,1.6455078125
,300.4823835,1.572265625
,300.5271464,1.513671875
,300.5277336,1.4501953125
,300.5429308,1.3818359375
,300.579107,1.318359375
,300.5849949,1.2548828125
,300.6217164,1.1865234375
,300.6271428,1.123046875
,300.6459003,1.064453125
,300.6817138,1.005859375
,300.688871,0.9521484375
,300.705025,0.888671875
,300.7238944,0.830078125
,300.7622052,0.771484375
,300.7667515,0.72265625
,300.806496,0.703125
,300.8070896,0.8154296875
,300.8543033,1.083984375
,300.8549393,1.40625
,300.8679191,1.7333984375
,300.8822275,2.01171875
,300.9180418,2.265625
,300.9383999,2.451171875
,300.9458936,2.6025390625
,300.9653254,2.705078125
,301.008874,2.7783203125
,301.0092368,2.8125
,301.0285002,2.8271484375
,301.044362,2.8076171875
,301.0893666,2.763671875
,301.0897222,2.6953125
,301.1054157,2.6123046875
,301.1523449,2.5244140625
,301.1527359,2.4365234375
,301.1656212,2.353515625
,301.2012605,2.2705078125
,301.2055868,2.197265625
,301.224875,2.12890625
,301.2593897,2.0654296875
,301.2646825,2.001953125
,301.3016595,1.9287109375
,301.3046546,1.8603515625
,301.3550556,1.787109375
,301.3556499,1.708984375
,301.367676,1.6455078125
,301.419013,1.572265625
,301.4193729,1.50390625
,301.4259176,1.4404296875
,301.461817,1.376953125
,301.4642489,1.318359375
,301.500943,1.2548828125
,301.506467,1.19140625
,301.5437106,1.1279296875
,301.5482142,1.0693359375
,301.5913688,1.005859375
,301.5919568,0.9423828125
,301.6046353,0.87890625
,301.6410386,0.830078125
,301.6604369,0.771484375
,301.665704,0.712890625
,301.7022322,0.6494140625
,301.7066321,0.5810546875
,301.7466229,0.5322265625
,301.746989,0.576171875
,301.7648511,0.7763671875
,301.7851013,1.1474609375
,301.8230565,1.54296875
,301.8238,1.875
,301.8599683,2.177734375
,301.8803141,2.4169921875
,301.8857888,2.6171875
,301.9366424,2.7685546875
,301.9371658,2.8857421875
,301.9670812,2.9541015625
,301.9674493,3.0029296875
,302.0019325,3.0126953125
,302.0068252,2.998046875
,302.0263235,2.9541015625
,302.0604583,2.880859375
,302.0816292,2.7978515625
,302.0879032,2.7001953125
,302.1236935,2.6025390625
,302.1292366,2.509765625
,302.1667008,2.421875
,302.1672887,2.3388671875
,302.2009739,2.265625
,302.2063956,2.1875
,302.227506,2.119140625
,302.2650003,2.0458984375
,302.2677137,1.9775390625
,302.3141489,1.904296875
,302.3145204,1.8359375
,302.3269156,1.767578125
,302.363573,1.7138671875
,302.3681096,1.650390625
,302.403503,1.591796875
,302.4066133,1.533203125
,302.4548892,1.4794921875
,302.4554756,1.4208984375
,302.4849755,1.357421875
,302.4882799,1.2939453125
,302.5070522,1.23046875
,302.5257225,1.1767578125
,302.5633369,1.1181640625
,302.5843873,1.0595703125
,302.5889814,1.0009765625
,302.62481,0.9423828125
,302.6273574,0.8935546875
,302.6725595,0.8447265625
,302.673144,0.7958984375
,302.6924791,0.7568359375
,302.7063425,0.712890625
,302.7418439,0.6640625
,302.7470465,0.634765625
,302.7832686,0.673828125
,302.7888615,0.888671875
,302.8296028,1.220703125
,302.8301868,1.5966796875
,302.8610126,1.904296875
,302.8695829,2.1923828125
,302.8872832,2.421875
,302.9229602,2.626953125
,302.9259743,2.7783203125
,302.9626535,2.8955078125
,302.9829457,2.96875
,302.9896369,3.0224609375
,303.0297179,3.0322265625
,303.0300882,3.02734375
,303.0484427,2.978515625
,303.0931155,2.919921875
,303.093699,2.841796875
,303.1086457,2.7490234375
,303.1546792,2.65625
,303.1551695,2.568359375
,303.1674445,2.48046875
,303.2038141,2.3974609375
,303.223861,2.314453125
,303.2264049,2.2314453125
,303.2610172,2.158203125
,303.281767,2.08984375
,303.2877181,2.021484375
,303.324422,1.9580078125
,303.3292797,1.89453125
,303.366046,1.826171875
,303.3726494,1.7626953125
,303.3902765,1.7041015625
,303.4067211,1.630859375
,303.4422726,1.572265625
,303.4471253,1.484375
,303.4839971,1.42578125
,303.5096391,1.357421875
,303.5101201,1.2939453125
,303.5294977,1.2255859375
,303.5504367,1.1572265625
,303.5898337,1.09375
,303.620258,1.03515625
,303.6206347,0.9716796875
,303.629952,0.91796875
,303.6664279,0.8544921875
,303.669142,0.791015625
,303.6894435,0.7177734375
,303.7301109,0.6591796875
,303.7305557,0.6787109375
,303.7596953,0.8447265625
,303.7724848,1.15234375
,303.7878622,1.4697265625
,303.8234768,1.7919921875
,303.8303522,2.060546875
,303.8659959,2.3046875
,303.8690197,2.48046875
,303.9131507,2.6220703125
,303.9137465,2.7197265625
,303.935456,2.7880859375
,303.9472845,2.822265625
,303.9838434,2.83203125
,303.9863513,2.8125
,304.0238362,2.7587890625
,304.0548224,2.685546875
,304.0552416,2.6025390625
,304.0693649,2.509765625
,304.1054797,2.4169921875
,304.1259597,2.3388671875
,304.1264186,2.255859375
,304.163354,2.1826171875
,304.1687522,2.0947265625
,304.2103691,2.041015625
,304.2107269,1.9775390625
,304.2403287,1.9189453125
,304.2496174,1.845703125
,304.2856251,1.77734375
,304.2905556,1.7041015625
,304.3261131,1.6357421875
,304.3264761,1.5673828125
,304.3470514,1.5087890625
,304.3974843,1.4501953125
,304.3981398,1.3818359375
,304.4171425,1.3232421875
,304.4300812,1.2548828125
,304.4662066,1.1865234375
,304.4721601,1.1279296875
,304.4927092,1.0693359375
,304.508543,1.005859375
,304.5521174,0.947265625
,304.5524916,0.8837890625
,304.5707651,0.8154296875
,304.6057548,0.7470703125
,304.6103044,0.7080078125
,304.6468529,0.771484375
,304.6527766,1.0009765625
,304.6876448,1.3232421875
,304.6882944,1.6259765625
,304.7262109,1.923828125
,304.7307885,2.1728515625
,304.7655614,2.3876953125
,304.7707825,2.5439453125
,304.8186115,2.67578125
,304.8189797,2.7587890625
,304.8407711,2.8125
,304.8523866,2.841796875
,304.8722425,2.83203125
,304.8887271,2.7880859375
,304.9310422,2.7490234375
,304.9316935,2.685546875
,304.9599981,2.6025390625
,304.9712592,2.5146484375
,305.0065203,2.431640625
,305.0125465,2.353515625
,305.0502309,2.275390625
,305.054912,2.2021484375
,305.0709982,2.1337890625
,305.1071102,2.0703125
,305.1101616,2.0068359375
,305.1496114,1.9384765625
,305.1501,1.865234375
,305.1971238,1.796875
,305.197521,1.7236328125
,305.2180443,1.6552734375
,305.2301702,1.5771484375
,305.2750008,1.5185546875
,305.2753738,1.4453125
,305.2914175,1.3720703125
,305.3408527,1.298828125
,305.3414938,1.23046875
,305.3509498,1.162109375
,305.387336,1.0986328125
,305.4167758,1.03515625
,305.4173679,0.9765625
,305.4305116,0.9228515625
,305.467904,0.869140625
,305.4725513,0.8154296875
,305.5061479,0.7666015625
,305.5115424,0.7177734375
,305.5470476,0.673828125
,305.5673463,0.6298828125
,305.5678353,0.5810546875
,305.6058486,0.5419921875
,305.637501,0.4736328125
,305.6379815,0.439453125
,305.6505026,0.4150390625
,305.6873189,0.439453125
,305.6918097,0.6494140625
,305.7270671,1.0009765625
,305.7327901,1.435546875
,305.7528025,1.806640625
,305.7874305,2.138671875
,305.8076591,2.4072265625
,305.811018,2.6513671875
,305.8564376,2.8271484375
,305.8568096,2.9638671875
,305.8707806,3.056640625
,305.9049302,3.125
,305.9248028,3.154296875
,305.9341226,3.154296875
,305.9691243,3.125
,305.9993706,3.056640625
,305.9998477,2.9736328125
,306.0115563,2.8857421875
,306.0475642,2.7880859375
,306.0525668,2.6953125
,306.072049,2.6025390625
,306.1066659,2.5146484375
,306.1266777,2.431640625
,306.1317376,2.34375
,306.1693415,2.2607421875
,306.1699991,2.177734375
,306.2071052,2.1044921875
,306.2119273,2.021484375
,306.2489457,1.9384765625
,306.2534215,1.8603515625
,306.2948244,1.787109375
,306.295186,1.708984375
,306.3150486,1.630859375
,306.3350425,1.54296875
,306.353237,1.46484375
,306.3890692,1.4111328125
,306.3926775,1.3525390625
,306.430627,1.298828125
,306.4339436,1.240234375
,306.4548095,1.181640625
,306.4895998,1.1279296875
,306.4944136,1.064453125
,306.5126243,1.0009765625
,306.5334778,0.9521484375
,306.5769715,0.8935546875
,306.5773376,0.8349609375
,306.5935757,0.7763671875
,306.613036,0.712890625
,306.6530421,0.6494140625
,306.6534026,0.5859375
,306.674124,0.5322265625
,306.6930567,0.5126953125
,306.7128273,0.634765625
,306.7497089,0.9130859375
,306.7541861,1.3134765625
,306.794709,1.6748046875
,306.7952813,2.01171875
,306.8149013,2.2802734375
,306.8354297,2.5146484375
,306.8510746,2.6953125
,306.8906803,2.8466796875
,306.8910465,2.939453125
,306.9390707,3.0126953125
,306.9395932,3.046875
,306.9703226,3.046875
,306.9747608,3.0126953125
,307.0106973,2.94921875
,307.0139133,2.861328125
,307.0361776,2.763671875
,307.0578045,2.6416015625
,307.0717319,2.5341796875
,307.1076712,2.451171875
,307.1286006,2.3779296875
,307.1345175,2.2998046875
,307.1689083,2.2265625
,307.188832,2.1484375
,307.1954673,2.0703125
,307.2319462,1.9970703125
,307.2364219,1.923828125
,307.2529485,1.845703125
,307.2730192,1.7724609375
,307.3075237,1.7041015625
,307.3304547,1.6357421875
,307.334942,1.5576171875
,307.3704148,1.484375
,307.3756231,1.416015625
,307.4212168,1.34765625
,307.4216552,1.279296875
,307.4313267,1.220703125
,307.4692819,1.15234375
,307.4737355,1.0888671875
,307.5094728,1.025390625
,307.5152507,0.9619140625
,307.5494673,0.8984375
,307.5546136,0.8349609375
,307.5905087,0.7666015625
,307.5908753,0.693359375
,307.6270325,0.6396484375
,307.6479919,0.654296875
,307.65513,0.8251953125
,307.6911151,1.123046875
,307.694398,1.484375
,307.7341363,1.7919921875
,307.7344995,2.0703125
,307.7554011,2.2900390625
,307.7768652,2.4560546875
,307.7949391,2.5732421875
,307.8300094,2.6953125
,307.8324286,2.763671875
,307.8693891,2.7978515625
,307.8900485,2.802734375
,307.8952905,2.7685546875
,307.9316086,2.705078125
,307.9371778,2.626953125
,307.9837845,2.5439453125
,307.984144,2.4560546875
,307.9931857,2.373046875
,308.0321362,2.2900390625
,308.062173,2.2119140625
,308.0627286,2.1337890625
,308.0760594,2.0751953125
,308.1133957,2.01171875
,308.1164085,1.9482421875
,308.1334767,1.8798828125
,308.1535086,1.81640625
,308.2019368,1.748046875
,308.2025437,1.6845703125
,308.222228,1.6162109375
,308.2356892,1.5478515625
,308.2546801,1.474609375
,308.2911755,1.4111328125
,308.3125396,1.3427734375
,308.3131982,1.2744140625
,308.3586262,1.2158203125
,308.3589893,1.15234375
,308.3735472,1.083984375
,308.4090796,1.015625
,308.429459,0.95703125
,308.4353479,0.8935546875
,308.4864059,0.830078125
,308.4870417,0.7666015625
,308.4983294,0.68359375
,308.5335863,0.6103515625
,308.5340088,0.5517578125
,308.5699609,0.4931640625
,308.5749816,0.439453125
,308.6124714,0.478515625
,308.64377,0.673828125
,308.6441364,1.044921875
,308.6593578,1.4404296875
,308.6789497,1.826171875
,308.6936299,2.1240234375
,308.7284043,2.3974609375
,308.7490372,2.59765625
,308.7569993,2.7685546875
,308.7994764,2.880859375
,308.8002766,2.9638671875
,308.8176441,2.998046875
,308.837264,3.017578125
,308.8773315,2.998046875
,308.8776915,2.9443359375
,308.8989405,2.87109375
,308.9146095,2.783203125
,308.9484183,2.6806640625
,308.9696438,2.5830078125
,308.9771718,2.490234375
,309.0203253,2.40234375
,309.0209272,2.314453125
,309.0327356,2.2314453125
,309.0825247,2.1533203125
,309.082885,2.0849609375
,309.1043483,2.0166015625
,309.116837,1.9384765625
,309.1369927,1.85546875
,309.1719432,1.77734375
,309.1780457,1.6943359375
,309.2237216,1.611328125
,309.2240864,1.533203125
,309.2442356,1.4404296875
,309.2551479,1.3671875
,309.2912918,1.298828125
,309.3188879,1.23046875
,309.3193092,1.162109375
,309.3378723,1.09375
,309.3736129,1.025390625
,309.3768545,0.95703125
,309.4136862,0.8837890625
,309.4432198,0.8056640625
,309.4439107,0.732421875
,309.4565706,0.654296875
,309.4913818,0.5908203125
,309.4975728,0.5224609375
,309.5181686,0.4541015625
,309.5667939,0.3857421875
,309.5673917,0.3076171875
,309.5753325,0.2587890625
,309.6110982,0.224609375
,309.6170874,0.29296875
,309.6532095,0.5615234375
,309.6579766,1.0107421875
,309.7056,1.474609375
,309.7059764,1.8994140625
,309.7188804,2.2216796875
,309.7553475,2.5048828125
,309.756007,2.724609375
,309.7926221,2.9052734375
,309.7956406,3.037109375
,309.831342,3.10546875
,309.8381445,3.1396484375
,309.8779918,3.14453125
,309.8784016,3.115234375
,309.9141667,3.056640625
,309.9175786,2.9638671875
,309.9546412,2.8564453125
,309.9585383,2.734375
,310.0042976,2.6220703125
,310.0048765,2.5244140625
,310.0169251,2.431640625
,310.0525714,2.333984375
,310.0730116,2.24609375
,310.0803493,2.1484375
,310.1160142,2.0654296875
,310.1196492,1.9873046875
,310.1551275,1.904296875
,310.1557,1.8212890625
,310.1895523,1.748046875
,310.2111806,1.6650390625
,310.2190322,1.58203125
,310.2537032,1.50390625
,310.2582747,1.4208984375
,310.2982711,1.337890625
,310.2986346,1.259765625
,310.3190117,1.1767578125
,310.3544311,1.0986328125
,310.3549114,1.015625
,310.3917279,0.9326171875
,310.4134592,0.8447265625
,310.4182255,0.76171875
,310.4549213,0.6787109375
,310.4607928,0.6005859375
,310.4976187,0.5126953125
,310.4983111,0.4345703125
,310.517251,0.3515625
,310.5379017,0.2734375
,310.5714819,0.2490234375
,310.5920668,0.3759765625
,310.5995298,0.712890625
,310.6448715,1.1572265625
,310.6452282,1.630859375
,310.6608344,2.0068359375
,310.6952027,2.32421875
,310.7168235,2.55859375
,310.7172882,2.7587890625
,310.7388284,2.8955078125
,310.7735797,2.9931640625
,310.7793085,3.0419921875
,310.8302205,3.0517578125
,310.83095,3.0322265625
,310.8398996,2.9736328125
,310.8756672,2.8857421875
,310.876029,2.783203125
,310.8972116,2.685546875
,310.9389678,2.578125
,310.9394046,2.4755859375
,310.9741917,2.3779296875
,310.9803457,2.2802734375
,310.9996649,2.1923828125
,311.0361736,2.109375
,311.0366847,2.0263671875
,311.0797154,1.9482421875
,311.0803128,1.865234375
,311.0991139,1.787109375
,311.1393535,1.708984375
,311.1397166,1.6259765625
,311.1606721,1.5478515625
,311.1798889,1.474609375
,311.2183569,1.396484375
,311.2188476,1.318359375
,311.2401555,1.240234375
,311.259201,1.1669921875
,311.2926797,1.0888671875
,311.3123745,1.0107421875
,311.3198719,0.927734375
,311.3561775,0.849609375
,311.3606452,0.7763671875
,311.4037364,0.6982421875
,311.404158,0.6201171875
,311.4383935,0.537109375
,311.4389874,0.4443359375
,311.4764193,0.3662109375
,311.4803618,0.3271484375
,311.5004008,0.4443359375
,311.5359899,0.751953125
,311.54144,1.2158203125
,311.5890042,1.66015625
,311.5893695,2.05078125
,311.6002271,2.34375
,311.6189519,2.6025390625
,311.6555568,2.7978515625
,311.661015,2.9541015625
,311.7000291,3.046875
,311.7006281,3.10546875
,311.7371174,3.1298828125
,311.7404899,3.1201171875
,311.7775887,3.0810546875
,311.7782795,3.0078125
,311.8141416,2.919921875
,311.8194462,2.8125
,311.857746,2.6953125
,311.8581708,2.587890625
,311.8945269,2.48046875
,311.9150927,2.3779296875
,311.9206908,2.2802734375
,311.9385807,2.177734375
,311.9812874,2.0947265625
,311.9818869,2.0166015625
,311.9998536,1.9287109375
,312.0370023,1.8408203125
,312.0399331,1.7578125
,312.0745252,1.6748046875
,312.0957266,1.591796875
,312.0998858,1.5087890625
,312.1375017,1.435546875
,312.1577974,1.34765625
,312.1581673,1.2646484375
,312.197641,1.1865234375
,312.1996631,1.1083984375
,312.2349062,1.025390625
,312.2562796,0.947265625
,312.2631305,0.869140625
,312.2995077,0.7861328125
,312.3041415,0.6982421875
,312.3189978,0.615234375
,312.3547412,0.52734375
,312.3601172,0.44921875
,312.3959338,0.3662109375
,312.4003767,0.29296875
,312.4477714,0.21484375
,312.4482375,0.13671875
,312.4597656,0.05859375
,312.4967659,0.0048828125
,312.5259518,0.0048828125
,312.5264356,0.01953125
,312.5409342,0.3076171875
,312.5764661,0.8154296875
,312.580613,1.376953125
,312.6143982,1.9189453125
,312.6356929,2.314453125
,312.643822,2.646484375
,312.6593812,2.8955078125
,312.6944069,3.115234375
,312.7150749,3.2568359375
,312.7188227,3.3349609375
,312.754945,3.37890625
,312.7767063,3.37890625
,312.7819012,3.349609375
,312.8204516,3.2861328125
,312.8209824,3.193359375
,312.8588986,3.0810546875
,312.8637395,2.9541015625
,312.8806847,2.8369140625
,312.9147755,2.7197265625
,312.9350354,2.607421875
,312.9426758,2.5
,312.9786488,2.3974609375
,312.9818447,2.28515625
,313.0190222,2.177734375
,313.0238353,2.080078125
,313.0598558,1.9873046875
,313.060233,1.89453125
,313.0957188,1.8115234375
,313.1177135,1.7236328125
,313.1227601,1.630859375
,313.1581313,1.54296875
,313.1637619,1.4501953125
,313.1836284,1.357421875
,313.2273889,1.2646484375
,313.2278038,1.171875
,313.2409518,1.083984375
,313.2757858,0.9912109375
,313.2968451,0.8935546875
,313.3017354,0.7958984375
,313.3503241,0.703125
,313.3508305,0.6103515625
,313.3721381,0.517578125
,313.3820156,0.419921875
,313.4183135,0.3564453125
,313.4201316,0.2587890625
,313.4413431,0.1708984375
,313.4764205,0.078125
,313.4767961,0.0048828125
,313.5159823,0.0048828125
,313.5371832,0.0439453125
,313.5442195,0.380859375
,313.5854939,0.8544921875
,313.585863,1.435546875
,313.6007454,1.9287109375
,313.6368257,2.3388671875
,313.6422321,2.6611328125
,313.6794385,2.900390625
,313.6840988,3.0859375
,313.7039994,3.203125
,313.7368363,3.2763671875
,313.7586927,3.30078125
,313.7644602,3.291015625
,313.7809803,3.2373046875
,313.8158139,3.1591796875
,313.8367603,3.056640625
,313.8426889,2.9345703125
,313.8640321,2.8125
,313.8989167,2.6904296875
,313.9039,2.578125
,313.9441313,2.4609375
,313.9445153,2.3486328125
,313.9783718,2.24609375
,313.9832173,2.1435546875
,314.0214088,2.05078125
,314.021827,1.953125
,314.068958,1.865234375
,314.0693855,1.7724609375
,314.0837372,1.6845703125
,314.1170439,1.5966796875
,314.1388777,1.5185546875
,314.1394422,1.4404296875
,314.1773173,1.357421875
,314.2075064,1.2646484375
,314.2080895,1.1767578125
,314.2224714,1.083984375
,314.2579181,0.99609375
,314.2786191,0.9033203125
,314.2846124,0.8203125
,314.3311716,0.7373046875
,314.3316468,0.654296875
,314.3613125,0.5712890625
,314.3616818,0.48828125
,314.3957375,0.4052734375
,314.4168264,0.3515625
,314.422982,0.4150390625
,314.4590169,0.6982421875
,314.4799508,1.123046875
,314.486289,1.6259765625
,314.502348,2.0263671875
,314.5364598,2.3681640625
,314.557333,2.6220703125
,314.5625094,2.83203125
,314.598229,2.9736328125
,314.6202084,3.076171875
,314.6255247,3.125
,314.6617044,3.134765625
,314.6640478,3.1103515625
,314.6832655,3.0517578125
,314.7202501,2.96875
,314.7249396,2.87109375
,314.7433678,2.75390625
,314.7896625,2.646484375
,314.7902831,2.5341796875
,314.8093316,2.431640625
,314.8268866,2.3388671875
,314.8422137,2.2509765625
,314.8763268,2.1630859375
,314.8979671,2.080078125
,314.9046816,1.9970703125
,314.9405047,1.9140625
,314.9430379,1.826171875
,314.9783648,1.73828125
,314.9991481,1.650390625
,315.0070144,1.5625
,315.0442602,1.4794921875
,315.0447994,1.3916015625
,315.079373,1.298828125
,315.0827803,1.2109375
,315.1181736,1.1279296875
,315.1240125,1.044921875
,315.1604794,0.95703125
,315.1661344,0.869140625
,315.2026322,0.7861328125
,315.2053663,0.6982421875
,315.2250243,0.615234375
,315.2431878,0.537109375
,315.28151,0.4541015625
,315.2818758,0.361328125
,315.3167411,0.2734375
,315.3369361,0.244140625
,315.3464413,0.400390625
,315.3797972,0.751953125
,315.4001725,1.2646484375
,315.4007611,1.7431640625
,315.4362038,2.1630859375
,315.4558829,2.4658203125
,315.4628979,2.734375
,315.5146403,2.9296875
,315.515224,3.0810546875
,315.544907,3.1689453125
,315.5456164,3.2275390625
,315.5803603,3.2470703125
,315.6104289,3.2275390625
,315.6110133,3.18359375
,315.6240254,3.1103515625
,315.6721669,3.017578125
,315.6725375,2.9052734375
,315.6931697,2.7880859375
,315.7065277,2.67578125
,315.7411679,2.5634765625
,315.7465974,2.4560546875
,315.7844077,2.353515625
,315.7847836,2.255859375
,315.8207216,2.158203125
,315.8251971,2.0751953125
,315.8630531,1.982421875
,315.8676578,1.8896484375
,315.9065545,1.8017578125
,315.9069581,1.708984375
,315.9447888,1.62109375
,315.9476957,1.5283203125
,315.964317,1.435546875
,315.9983458,1.34765625
,316.018906,1.2548828125
,316.0254174,1.171875
,316.060978,1.083984375
,316.065579,0.9912109375
,316.1016154,0.9033203125
,316.1251735,0.8056640625
,316.125765,0.7177734375
,316.1593102,0.64453125
,316.1805731,0.5615234375
,316.1852809,0.4833984375
,316.2208789,0.41015625
,316.2280306,0.33203125
,316.247353,0.25390625
,316.2628987,0.166015625
,316.2954818,0.1171875
,316.3049203,0.126953125
,316.340107,0.3125
,316.3731956,0.7080078125
,316.3736773,1.2548828125
,316.3876925,1.7626953125
,316.4231372,2.2021484375
,316.4248878,2.51953125
,316.462199,2.79296875
,316.4690138,2.98828125
,316.4891077,3.1396484375
,316.5059836,3.2275390625
,316.5426859,3.291015625
,316.5459358,3.3056640625
,316.5811015,3.2861328125
,316.5864032,3.232421875
,316.6238262,3.14453125
,316.652039,3.0322265625
,316.652577,2.91015625
,316.6690566,2.7880859375
,316.684846,2.666015625
,316.7296275,2.5537109375
,316.7299852,2.4462890625
,316.7496013,2.34375
,316.76705,2.24609375
,316.802632,2.1435546875
,316.8081821,2.05078125
,316.8552399,1.9580078125
,316.8556882,1.865234375
,316.8662522,1.767578125
,316.9025412,1.6796875
,316.9070651,1.591796875
,316.9484379,1.50390625
,316.9488835,1.40625
,316.9952651,1.3134765625
,316.9958244,1.220703125
,317.0097791,1.1279296875
,317.0244804,1.03515625
,317.0727608,0.947265625
,317.073173,0.8544921875
,317.09243,0.76171875
,317.1063428,0.6689453125
,317.1409858,0.576171875
,317.1611412,0.4833984375
,317.1680639,0.3955078125
,317.2041697,0.2978515625
,317.2045278,0.205078125
,317.2248756,0.126953125
,317.2608283,0.0634765625
,317.2680159,0.087890625
,317.2866955,0.3369140625
,317.337745,0.810546875
,317.338339,1.337890625
,317.3499855,1.8603515625
,317.3694226,2.24609375
,317.4040521,2.5537109375
,317.4247066,2.7880859375
,317.4250717,2.978515625
,317.46238,3.1005859375
,317.4669106,3.173828125
,317.5016349,3.2080078125
,317.5220461,3.193359375
,317.5294701,3.1396484375
,317.5489361,3.056640625
,317.5877604,2.94921875
,317.5883612,2.83203125
,317.606617,2.71484375
,317.6406533,2.6025390625
,317.6608717,2.490234375
,317.6678774,2.3828125
,317.7034016,2.2802734375
,317.7083974,2.177734375
,317.7440968,2.080078125
,317.7739311,1.9873046875
,317.7744193,1.8896484375
,317.7854141,1.7919921875
,317.8349783,1.6943359375
,317.8353467,1.5966796875
,317.8650787,1.4990234375
,317.8681097,1.3916015625
,317.9029849,1.2939453125
,317.9237207,1.19140625
,317.9284683,1.09375
,317.9646741,0.99609375
,317.990683,0.9033203125
,317.9910423,0.8154296875
,318.0091815,0.7275390625
,318.0283816,0.64453125
,318.0680976,0.5615234375
,318.0981822,0.4736328125
,318.0987992,0.3857421875
,318.1055965,0.341796875
,318.1594298,0.390625
,318.1600108,0.6298828125
,318.1912728,1.0595703125
,318.1918575,1.5380859375
,318.2101432,1.9970703125
,318.2525528,2.333984375
,318.2531476,2.6171875
,318.2691454,2.83203125
,318.3025594,3.0126953125
,318.325123,3.1201171875
,318.3255546,3.1982421875
,318.3776828,3.2275390625
,318.3782999,3.2275390625
,318.3881119,3.1884765625
,318.4405093,3.1201171875
,318.440875,3.017578125
,318.4499654,2.91015625
,318.4859677,2.7880859375
,318.4864395,2.666015625
,318.5101395,2.5537109375
,318.5288372,2.421875
,318.5800823,2.3291015625
,318.5809241,2.2314453125
,318.5897643,2.1337890625
,318.6110371,2.0458984375
,318.6461824,1.953125
,318.6521654,1.85546875
,318.6876534,1.7626953125
,318.6882217,1.669921875
,318.7373377,1.58203125
,318.737708,1.494140625
,318.750835,1.4013671875
,318.7854336,1.3134765625
,318.7904181,1.220703125
,318.8258911,1.1279296875
,318.8464952,1.03515625
,318.8540142,0.9423828125
,318.8678119,0.8544921875
,318.9045701,0.771484375
,318.908078,0.68359375
,318.9451441,0.6005859375
,318.9503323,0.517578125
,318.9859731,0.439453125
,318.9866172,0.3564453125
,319.0330647,0.29296875
,319.0334253,0.224609375
,319.0543907,0.1953125
,319.0685861,0.341796875
,319.1049048,0.7373046875
,319.1096968,1.2744140625
,319.1452825,1.7724609375
,319.1499175,2.2021484375
,319.1908238,2.51953125
,319.1912341,2.79296875
,319.2072237,2.9931640625
,319.2425394,3.154296875
,319.2483412,3.2177734375
,319.2851557,3.2861328125
,319.2898373,3.30078125
,319.3246738,3.2861328125
,319.346587,3.232421875
,319.3509439,3.154296875
,319.3891274,3.0419921875
,319.3935757,2.919921875
,319.4397387,2.7880859375
,319.4403339,2.6611328125
,319.4490272,2.5439453125
,319.4854009,2.431640625
,319.507029,2.3291015625
,319.5123214,2.2216796875
,319.5477012,2.119140625
,319.5511328,2.0263671875
,319.5875888,1.9287109375
,319.5881627,1.8408203125
,319.6400617,1.7529296875
,319.6404292,1.6650390625
,319.6495759,1.572265625
,319.6889512,1.4794921875
,319.6893111,1.38671875
,319.7250198,1.2890625
,319.7467317,1.1962890625
,319.7540568,1.103515625
,319.7698657,1.005859375
,319.803969,0.91796875
,319.8249471,0.8251953125
,319.8293244,0.7275390625
,319.864884,0.6396484375
,319.8863506,0.546875
,319.887055,0.44921875
,319.9391875,0.380859375
,319.9395566,0.302734375
,319.9689552,0.2001953125
,319.9694747,0.09765625
,320.0165175,0.0048828125
,320.0168832,0.0048828125
,320.0314026,0.0439453125
,320.0671803,0.380859375
,320.0731483,0.8740234375
,320.0924419,1.46484375
,320.1290593,1.9580078125
,320.1339399,2.36328125
,320.1496738,2.6513671875
,320.1868201,2.9052734375
,320.18977,3.076171875
,320.232764,3.203125
,320.2331902,3.271484375
,320.2642128,3.30078125
,320.2734066,3.291015625
,320.3078582,3.2421875
,320.3281813,3.1591796875
,320.3307961,3.0517578125
,320.366235,2.9296875
,320.3721938,2.802734375
,320.3905493,2.67578125
,320.4349769,2.55859375
,320.4353437,2.4462890625
,320.4553388,2.3388671875
,320.4891022,2.2314453125
,320.4895358,2.1240234375
,320.5300824,2.0361328125
,320.5306194,1.93359375
,320.5698857,1.8310546875
,320.5704836,1.728515625
,320.6060825,1.6259765625
,320.6418079,1.513671875
,320.642486,1.4111328125
,320.6493082,1.3037109375
,320.6745931,1.2109375
,320.6953578,1.103515625
,320.711876,1.005859375
,320.7323492,0.9423828125
,320.7802766,0.8837890625
,320.7808689,0.8251953125
,320.7932833,0.7666015625
,320.8280116,0.703125
,320.8335751,0.634765625
,320.8753321,0.56640625
,320.8756815,0.5224609375
,320.905467,0.595703125
,320.9142965,0.83984375
,320.9324198,1.259765625
,320.9703632,1.6943359375
,320.9750647,2.08984375
,321.0152007,2.3828125
,321.0156535,2.6318359375
,321.0348645,2.83203125
,321.051616,2.9638671875
,321.0873397,3.06640625
,321.0920022,3.1201171875
,321.1382765,3.1396484375
,321.1386526,3.1201171875
,321.1537575,3.0712890625
,321.1906184,2.98828125
,321.1945655,2.880859375
,321.2117775,2.7685546875
,321.2318812,2.6513671875
,321.2792249,2.5439453125
,321.2795867,2.44140625
,321.300219,2.3388671875
,321.3147137,2.236328125
,321.3512425,2.138671875
,321.3543542,2.05078125
,321.3908332,1.9580078125
,321.3938566,1.865234375
,321.4169299,1.7578125
,321.4325286,1.650390625
,321.468134,1.572265625
,321.4742272,1.4892578125
,321.5151019,1.4013671875
,321.5154691,1.30859375
,321.5509321,1.2109375
,321.5536868,1.11328125
,321.5966441,1.015625
,321.5970161,0.91796875
,321.6164455,0.8251953125
,321.6334119,0.732421875
,321.6742265,0.6494140625
,321.6746375,0.5517578125
,321.6952,0.458984375
,321.7144666,0.361328125
,321.7324533,0.2685546875
,321.7519285,0.205078125
,321.7887409,0.146484375
,321.7910168,0.048828125
,321.827679,0.0048828125
,321.8489155,0.0048828125
,321.8494231,0.0048828125
,321.8866407,0.1513671875
,321.9075799,0.595703125
,321.9176195,1.1962890625
,321.9320896,1.7626953125
,321.9664526,2.2509765625
,321.9877593,2.6220703125
,321.9928461,2.900390625
,322.0294741,3.1201171875
,322.0346338,3.271484375
,322.070962,3.3740234375
,322.0736073,3.4228515625
,322.1099591,3.4375
,322.1311147,3.4130859375
,322.1362018,3.3349609375
,322.1521504,3.232421875
,322.1895546,3.134765625
,322.1947339,3.0224609375
,322.2319538,2.900390625
,322.2323318,2.7734375
,322.2706887,2.6513671875
,322.2948905,2.5341796875
,322.2952305,2.44140625
,322.3314227,2.333984375
,322.3319414,2.2265625
,322.3683282,2.1240234375
,322.390807,2.03125
,322.3958972,1.9287109375
,322.4171401,1.8310546875
,322.4341257,1.728515625
,322.4701562,1.6259765625
,322.4753442,1.5234375
,322.4935091,1.416015625
,322.5292004,1.3134765625
,322.5344888,1.2158203125
,322.5699253,1.1181640625
,322.5751094,1.015625
,322.6120059,0.908203125
,322.6162409,0.8056640625
,322.6681983,0.6982421875
,322.669171,0.5908203125
,322.6737842,0.478515625
,322.7149865,0.380859375
,322.7155817,0.2734375
,322.7484054,0.1708984375
,322.7705376,0.078125
,322.7710031,0.0048828125
,322.807495,0.0048828125
,322.8394235,0.0048828125
,322.8399008,0.0048828125
,322.8541315,0.0048828125
,322.9008951,0.0341796875
,322.9013207,0.5078125
,322.9148299,1.083984375
,322.951172,1.728515625
,322.9556856,2.2607421875
,322.9914487,2.63671875
,322.9962248,2.94921875
,323.0431122,3.173828125
,323.0435639,3.33984375
,323.0724891,3.4423828125
,323.0728559,3.5107421875
,323.119537,3.5205078125
,323.119895,3.49609375
,323.1487851,3.4375
,323.1582537,3.3349609375
,323.1958737,3.212890625
,323.1962992,3.076171875
,323.2136884,2.9443359375
,323.2584686,2.8076171875
,323.2589349,2.685546875
,323.27517,2.568359375
,323.3108769,2.451171875
,323.3157729,2.34375
,323.3354268,2.236328125
,323.3702581,2.12890625
,323.3911821,2.03125
,323.3918988,1.9287109375
,323.4279282,1.8310546875
,323.4477964,1.728515625
,323.4554849,1.62109375
,323.4897709,1.513671875
,323.5113586,1.4111328125
,323.5170013,1.298828125
,323.5580556,1.1865234375
,323.5586575,1.07421875
,323.6026893,0.9521484375
,323.6030574,0.8447265625
,323.6165999,0.7421875
,323.6363134,0.6396484375
,323.6820047,0.5419921875
,323.682625,0.4443359375
,323.6960754,0.3515625
,323.7311063,0.25390625
,323.7517473,0.15625
,323.7548304,0.0830078125
,323.7910233,0.0146484375
,323.7941611,0.0048828125
,323.8293889,0.1318359375
,323.85172,0.5517578125
,323.8582994,1.083984375
,323.8934442,1.6748046875
,323.8978875,2.1728515625
,323.9334644,2.51953125
,323.9390501,2.8076171875
,323.9547394,3.0078125
,323.9965004,3.1591796875
,323.9971075,3.2470703125
,324.0144074,3.291015625
,324.0514983,3.2861328125
,324.0735361,3.2470703125
,324.0770101,3.173828125
,324.1217645,3.0712890625
,324.1223632,2.9541015625
,324.1355399,2.8369140625
,324.171553,2.7197265625
,324.1752023,2.59765625
,324.2150735,2.4853515625
,324.2470404,2.3779296875
,324.2476501,2.2705078125
,324.2587718,2.1630859375
,324.2958472,2.060546875
,324.2988586,1.9580078125
,324.3383864,1.8505859375
,324.3388403,1.748046875
,324.3725517,1.6552734375
,324.3779668,1.552734375
,324.413027,1.4453125
,324.4183617,1.3330078125
,324.4656031,1.220703125
,324.4661449,1.1083984375
,324.4802522,0.99609375
,324.4957814,0.888671875
,324.5155413,0.78125
,324.551764,0.673828125
,324.5713439,0.56640625
,324.5765141,0.458984375
,324.6123598,0.3564453125
,324.6180684,0.2587890625
,324.6533377,0.1708984375
,324.6734651,0.107421875
,324.6765524,0.0341796875
,324.7163637,0.0048828125
,324.717406,0.0048828125
,324.7534521,0.0048828125
,324.7540364,0.009765625
,324.7929879,0.46875
,324.82467,1.025390625
,324.8250895,1.66015625
,324.8358684,2.1826171875
,324.8718928,2.6171875
,324.8769761,2.94921875
,324.9199096,3.18359375
,324.9202811,3.359375
,324.939699,3.4716796875
,324.9750167,3.53515625
,324.9782849,3.5498046875
,325.013398,3.5302734375
,325.0351473,3.466796875
,325.0425464,3.369140625
,325.0563958,3.251953125
,325.1040135,3.1201171875
,325.1043749,2.9833984375
,325.1256831,2.8515625
,325.140729,2.7197265625
,325.1596947,2.587890625
,325.1943103,2.4658203125
,325.1990001,2.34375
,325.2327773,2.2216796875
,325.2539232,2.109375
,325.254631,2.0068359375
,325.303511,1.8994140625
,325.3039273,1.7919921875
,325.3248617,1.6796875
,325.3405722,1.5673828125
,325.3607262,1.455078125
,325.3942523,1.3427734375
,325.4149693,1.220703125
,325.4170792,1.103515625
,325.4590998,0.9912109375
,325.4594628,0.8642578125
,325.4808561,0.7421875
,325.5161506,0.615234375
,325.5193661,0.48828125
,325.554012,0.3662109375
,325.5746681,0.263671875
,325.5778606,0.166015625
,325.5978504,0.048828125
,325.6187992,0.0048828125
,325.6384733,0.0048828125
,325.6729614,0.0048828125
,325.6926682,0.0048828125
,325.6952086,0.0048828125
,325.7303275,0.0048828125
,325.7518871,0.0048828125
,325.7566665,0.0048828125
,325.8033784,0.0048828125
,325.803828,0.0048828125
,325.8189773,0.56640625
,325.8543949,1.2353515625
,325.8595708,1.9482421875
,325.9110506,2.5048828125
,325.9116484,2.9638671875
,325.9214806,3.28125
,325.9570144,3.525390625
,325.9573954,3.6767578125
,325.9920714,3.681640625
,326.0127573,3.681640625
,326.0185291,3.681640625
,326.0562198,3.681640625
,326.0622956,3.681640625
,326.0979493,3.5888671875
,326.1014639,3.447265625
,326.1185943,3.30078125
,326.1369595,3.1591796875
,326.1781564,3.017578125
,326.2092887,2.8759765625
,326.2096583,2.744140625
,326.2216248,2.6123046875
,326.2705619,2.48046875
,326.2711391,2.353515625
,326.2819729,2.2216796875
,326.2988947,2.0947265625
,326.3356888,1.9775390625
,326.3403555,1.85546875
,326.3599295,1.728515625
,326.3955696,1.6064453125
,326.4017371,1.484375
,326.4406593,1.357421875
,326.4410908,1.2255859375
,326.485989,1.0986328125
,326.4863563,0.9619140625
,326.5029502,0.830078125
,326.519796,0.693359375
,326.5537724,0.5712890625
,326.5603723,0.44921875
,326.5960597,0.322265625
,326.6024329,0.2099609375
,326.621531,0.0927734375
,326.6573173,0.0048828125
,326.6579119,0.0048828125
,326.6775033,0.0048828125
,326.7135508,0.0048828125
,326.7194281,0.0048828125
,326.7560158,0.0048828125
,326.7565905,0.0048828125
,326.7934091,0.0048828125
,326.8153586,0.0048828125
,326.8157909,0.0048828125
,326.8539631,0.0048828125
,326.8747848,0.5078125
,326.8783656,1.2109375
,326.9142082,1.89453125
,326.9348109,2.509765625
,326.9393689,2.96875
,326.9735532,3.3251953125
,326.9945859,3.5546875
,327.0021069,3.6767578125
,327.0198216,3.6767578125
,327.0627107,3.681640625
,327.0633063,3.681640625
,327.0804534,3.6767578125
,327.1170592,3.681640625
,327.1200077,3.5693359375
,327.1570478,3.4130859375
,327.1773407,3.251953125
,327.182676,3.095703125
,327.2184262,2.9443359375
,327.2231034,2.7978515625
,327.241139,2.65625
,327.2601618,2.529296875
,327.2953291,2.4072265625
,327.3157808,2.28515625
,327.3206076,2.158203125
,327.3575243,2.0361328125
,327.3893136,1.9140625
,327.3897434,1.787109375
,327.3990862,1.66015625
,327.435921,1.54296875
,327.438571,1.4208984375
,327.4724858,1.2890625
,327.4937866,1.1572265625
,327.501608,1.0302734375
,327.537737,0.8984375
,327.5583538,0.7763671875
,327.5632339,0.6494140625
,327.5794478,0.5419921875
,327.6231191,0.439453125
,327.6237025,0.3466796875
,327.643042,0.25390625
,327.6622156,0.166015625
,327.6987153,0.0830078125
,327.6990838,0.01953125
,327.7318748,0.0830078125
,327.7411161,0.3857421875
,327.7766058,0.869140625
,327.780973,1.46484375
,327.8164391,2.021484375
,327.8217972,2.5
,327.8565978,2.8466796875
,327.8766859,3.1201171875
,327.8824857,3.30078125
,327.9041621,3.427734375
,327.9384142,3.4912109375
,327.9599981,3.515625
,327.9605836,3.49609375
,327.9959316,3.4375
,328.0016932,3.3447265625
,328.0378282,3.22265625
,328.0410606,3.0859375
,328.0802043,2.9541015625
,328.0818352,2.8271484375
,328.1182573,2.7001953125
,328.1390768,2.5830078125
,328.1396686,2.4755859375
,328.1846062,2.36328125
,328.1849656,2.2509765625
,328.2053608,2.1337890625
,328.2456112,2.021484375
,328.2462073,1.904296875
,328.2635087,1.787109375
,328.2993894,1.6552734375
,328.2997593,1.533203125
,328.3375295,1.40625
,328.3423917,1.2841796875
,328.3631063,1.1474609375
,328.3827706,1.015625
,328.4173764,0.8837890625
,328.4379015,0.7470703125
,328.4428093,0.615234375
,328.4647422,0.498046875
,328.48092,0.380859375
,328.5165083,0.2685546875
,328.5212089,0.1611328125
,328.5408391,0.0537109375
,328.5749384,0.0048828125
,328.5971188,0.0048828125
,328.5975121,0.0048828125
,328.6323711,0.0048828125
,328.6532798,0.0048828125
,328.6601247,0.0048828125
,328.6985881,0.0048828125
,328.7034771,0.0048828125
,328.7386626,0.0634765625
,328.7411382,0.6689453125
,328.7777618,1.38671875
,328.8094401,2.05078125
,328.8098395,2.6171875
,328.826323,3.0322265625
,328.8622007,3.359375
,328.8625683,3.57421875
,328.8991061,3.681640625
,328.9038952,3.6767578125
,328.9247701,3.681640625
,328.9624545,3.681640625
,328.9628971,3.681640625
,328.9971566,3.681640625
,329.0176213,3.564453125
,329.0257821,3.4130859375
,329.0426532,3.2568359375
,329.0780416,3.10546875
,329.082594,2.9638671875
,329.1176715,2.822265625
,329.1373546,2.685546875
,329.1441403,2.5537109375
,329.1788496,2.421875
,329.2000868,2.2900390625
,329.2006806,2.158203125
,329.2372296,2.0458984375
,329.25983,1.923828125
,329.2644666,1.8017578125
,329.3070565,1.6796875
,329.3075141,1.5478515625
,329.324455,1.4208984375
,329.3691772,1.2890625
,329.369656,1.15234375
,329.3857764,1.0205078125
,329.4324702,0.8837890625
,329.4328675,0.7470703125
,329.4442386,0.615234375
,329.4789589,0.4931640625
,329.5103022,0.37109375
,329.5107544,0.2587890625
,329.5248731,0.1611328125
,329.5606555,0.068359375
,329.5900967,0.0048828125
,329.5906798,0.0048828125
,329.6034147,0.0048828125
,329.6390609,0.0048828125
,329.645016,0.0048828125
,329.6837364,0.0048828125
,329.6842089,0.0048828125
,329.701526,0.0048828125
,329.7227984,0.4541015625
,329.7596282,1.142578125
,329.7807179,1.796875
,329.7815231,2.421875
,329.8175361,2.8857421875
,329.8380623,3.2568359375
,329.845472,3.505859375
,329.8853293,3.681640625
,329.8860224,3.681640625
,329.9202651,3.681640625
,329.9389531,3.6767578125
,329.9441473,3.681640625
,329.9777778,3.681640625
,329.9829067,3.6279296875
,330.0184954,3.486328125
,330.0384608,3.330078125
,330.0467777,3.1689453125
,330.0823308,3.017578125
,330.0849285,2.8662109375
,330.1207269,2.724609375
,330.14148,2.587890625
,330.1444504,2.4560546875
,330.1809188,2.32421875
,330.1838364,2.1923828125
,330.2047159,2.0654296875
,330.2262947,1.943359375
,330.2758566,1.8212890625
,330.2763006,1.69921875
,330.285695,1.572265625
,330.3253381,1.4501953125
,330.3256948,1.3232421875
,330.369495,1.19140625
,330.3698582,1.064453125
,330.3840257,0.9326171875
,330.4200033,0.7958984375
,330.4406689,0.654296875
,330.4461392,0.5224609375
,330.4639604,0.3857421875
,330.484387,0.283203125
,330.5050304,0.166015625
,330.5550925,0.0634765625
,330.5554637,0.0048828125
,330.562228,0.0048828125
,330.597233,0.0048828125
,330.6172499,0.0048828125
,330.6225039,0.0048828125
,330.6655747,0.0048828125
,330.6661226,0.0048828125
,330.6860867,0.2099609375
,330.704565,0.83984375
,330.7405136,1.552734375
,330.7462116,2.1728515625
,330.7815764,2.6904296875
,330.7872812,3.0615234375
,330.8234543,3.3447265625
,330.8280931,3.5205078125
,330.8636556,3.6328125
,330.8642402,3.681640625
,330.8842675,3.681640625
,330.9192057,3.662109375
,330.9399243,3.5791015625
,330.9452635,3.45703125
,330.9796382,3.3154296875
,331.0015464,3.1640625
,331.0089375,3.017578125
,331.0281053,2.87109375
,331.0458592,2.7294921875
,331.0646669,2.5927734375
,331.1005451,2.4609375
,331.1072694,2.3193359375
,331.1502647,2.1826171875
,331.1509094,2.041015625
,331.1669349,1.8994140625
,331.2116306,1.7529296875
,331.2120617,1.611328125
,331.2307915,1.46484375
,331.2473704,1.318359375
,331.2660728,1.171875
,331.3012067,1.025390625
,331.3231425,0.888671875
,331.3276787,0.7470703125
,331.368011,0.615234375
,331.3684661,0.498046875
,331.3845145,0.390625
,331.4232695,0.29296875
,331.4238779,0.2001953125
,331.4602373,0.1123046875
,331.4805637,0.0146484375
,331.4834906,0.0048828125
,331.5205613,0.0048828125
,331.5401711,0.0732421875
,331.5436126,0.4443359375
,331.584433,1.0546875
,331.6037461,1.7138671875
,331.6064234,2.275390625
,331.6430693,2.744140625
,331.6478346,3.0810546875
,331.684871,3.3447265625
,331.687324,3.5107421875
,331.7379289,3.623046875
,331.7385052,3.671875
,331.7498694,3.681640625
,331.7671867,3.6572265625
,331.802217,3.603515625
,331.8063332,3.5009765625
,331.841,3.369140625
,331.8623454,3.2275390625
,331.8693995,3.076171875
,331.9061861,2.9248046875
,331.9065988,2.7880859375
,331.9559407,2.646484375
,331.9563108,2.5146484375
,331.9748963,2.3828125
,331.9858421,2.255859375
,332.0211009,2.119140625
,332.0415174,2.001953125
,332.048805,1.875
,332.0968057,1.748046875
,332.0971683,1.6162109375
,332.107121,1.484375
,332.1412197,1.34765625
,332.1462011,1.2109375
,332.1823181,1.0791015625
,332.1884942,0.947265625
,332.2083235,0.8203125
,332.2437453,0.703125
,332.2482721,0.5908203125
,332.2846041,0.4833984375
,332.2849769,0.3662109375
,332.321848,0.283203125
,332.3434349,0.1953125
,332.3493278,0.087890625
,332.3673895,0.0048828125
,332.4072598,0.0048828125
,332.4078542,0.0048828125
,332.4453633,0.0048828125
,332.4459656,0.0048828125
,332.4650817,0.0048828125
,332.5027439,0.0048828125
,332.5061652,0.0048828125
,332.5415395,0.3466796875
,332.5628496,1.0400390625
,332.5698923,1.7822265625
,332.5888496,2.392578125
,332.6285955,2.9052734375
,332.6289925,3.2666015625
,332.651694,3.544921875
,332.6673807,3.681640625
,332.7027988,3.681640625
,332.7074942,3.6767578125
,332.7430997,3.6767578125
,332.7484012,3.681640625
,332.7862329,3.681640625
,332.7868777,3.681640625
,332.8214961,3.6572265625
,332.8425106,3.5107421875
,332.8448931,3.3544921875
,332.8958695,3.203125
,332.8963489,3.0322265625
,332.9268454,2.8955078125
,332.9272964,2.7685546875
,332.9622947,2.6416015625
,332.9835952,2.51953125
,332.9887131,2.3828125
,333.025099,2.2509765625
,333.0447328,2.1240234375
,333.0472808,2.0068359375
,333.0823644,1.904296875
,333.1023883,1.796875
,333.110758,1.6845703125
,333.1458249,1.572265625
,333.1484496,1.4599609375
,333.1824859,1.337890625
,333.2041599,1.2255859375
,333.2115543,1.1083984375
,333.2276213,0.99609375
,333.2482804,0.888671875
,333.2857662,0.791015625
,333.3178368,0.68359375
,333.3182571,0.576171875
,333.3311995,0.46875
,333.3487778,0.3662109375
,333.3785466,0.283203125
,333.3865366,0.2099609375
,333.4218284,0.1171875
,333.4422123,0.0390625
,333.4481684,0.0048828125
,333.4651488,0.0048828125
,333.4872544,0.0048828125
,333.5229757,0.0048828125
,333.5448326,0.0048828125
,333.5454924,0.0048828125
,333.5805301,0.0048828125
,333.6005126,0.4150390625
,333.6102364,1.0986328125
,333.64665,1.845703125
,333.6497104,2.4462890625
