fs,t,y
52.61240462345546,0.0754923999999999,2.060546875
,0.0961091999999999,2.1240234375
,0.10271149999999984,2.2509765625
,0.12336370000000008,2.373046875
,0.13978309999999983,2.490234375
,0.18383340000000015,2.6513671875
,0.1841548999999998,2.7685546875
,0.2017996000000002,2.861328125
,0.2212310999999998,2.9248046875
,0.2557733999999998,2.9736328125
,0.2753646999999999,2.998046875
,0.2826252,3.0078125
,0.2992254999999999,2.978515625
,0.3382227000000002,2.9443359375
,0.33862119999999996,2.8955078125
,0.37263219999999997,2.83203125
,0.39283670000000015,2.7685546875
,0.40127880000000005,2.71484375
,0.4479888000000001,2.6611328125
,0.4482284999999999,2.6025390625
,0.4641446,2.548828125
,0.480518,2.4853515625
,0.5151490000000001,2.431640625
,0.5204857999999999,2.3779296875
,0.5559561999999998,2.3388671875
,0.5616357999999999,2.28515625
,0.6054385999999998,2.2412109375
,0.6056835,2.197265625
,0.6231254000000002,2.177734375
,0.6385358000000001,2.1484375
,0.6724589000000001,2.1435546875
,0.6935753999999998,2.12890625
,0.6989671999999998,2.109375
,0.7368413,2.0947265625
,0.7413173999999998,2.080078125
,0.7923710000000002,2.1142578125
,0.7927455999999999,2.216796875
,0.8233252000000002,2.3876953125
,0.8237212999999999,2.5341796875
,0.8401516999999998,2.6904296875
,0.8754276000000001,2.802734375
,0.8807176000000001,2.900390625
,0.9176644999999999,2.9638671875
,0.921923,3.0224609375
,0.9641700000000002,3.0517578125
,0.9645590999999998,3.06640625
,0.9947506000000002,3.0615234375
,1.0027659,3.02734375
,1.0387784999999998,2.9736328125
,1.0391746,2.9052734375
,1.0611253,2.861328125
,1.0959078,2.802734375
,1.1011823,2.7490234375
,1.1479541000000002,2.7001953125
,1.1481963,2.646484375
,1.167599,2.587890625
,1.1840690999999999,2.5341796875
,1.2000948999999999,2.48046875
,1.2347924,2.431640625
,1.2565496,2.3779296875
,1.2639444000000002,2.3388671875
,1.282819,2.2900390625
,1.3202029,2.265625
,1.3205257000000001,2.236328125
,1.3672445,2.197265625
,1.3676753000000001,2.1826171875
,1.3969583,2.158203125
,1.3993905999999998,2.1533203125
,1.4440005999999999,2.1435546875
,1.4443940999999998,2.1630859375
,1.4736875,2.236328125
,1.481553,2.3876953125
,1.5021187999999999,2.5341796875
,1.5390641,2.6904296875
,1.5689316,2.8125
,1.5692770999999999,2.9296875
,1.5804697,3.0126953125
,1.6302503000000002,3.0908203125
,1.630513,3.14453125
,1.642626,3.1689453125
,1.6781274000000002,3.1689453125
,1.6834669,3.14453125
,1.7191454,3.10546875
,1.7246044,3.046875
,1.7679540999999999,2.958984375
,1.7682020999999999,2.91015625
,1.7823319,2.8759765625
,1.8163188,2.841796875
,1.8363803,2.822265625
,1.8439366000000001,2.7783203125
,1.8785813999999998,2.7392578125
,1.8854638000000001,2.685546875
,1.9241475000000001,2.63671875
,1.9244705,2.5732421875
,1.9423034000000001,2.5341796875
,1.9788922000000002,2.4853515625
,1.9817398000000002,2.4267578125
,2.0164856999999996,2.3779296875
,2.0381973999999996,2.333984375
,2.0450247,2.294921875
,2.0942885,2.2509765625
,2.0945292,2.2216796875
,2.0997385,2.20703125
,2.1381729,2.1923828125
,2.1434811,2.1923828125
,2.1634155,2.2509765625
,2.1833004999999996,2.3681640625
,2.2181331999999996,2.5244140625
,2.2385466000000003,2.6708984375
,2.2455885,2.802734375
,2.2957479999999997,2.919921875
,2.2959854999999996,3.0078125
,2.3027879999999996,3.095703125
,2.3223567999999997,3.154296875
,2.3578908,3.203125
,2.3630224,3.212890625
,2.4051577999999996,3.1982421875
,2.4053962,3.154296875
,2.4252604,3.1005859375
,2.4394294,3.0224609375
,2.4831171999999997,2.96875
,2.4835073000000003,2.900390625
,2.5038335,2.8466796875
,2.5457104,2.7880859375
,2.5461036999999997,2.724609375
,2.5648513,2.65625
,2.6073424999999997,2.6025390625
,2.6077621000000004,2.5439453125
,2.6252221000000002,2.4755859375
,2.6608333,2.4169921875
,2.6813537,2.353515625
,2.6817672999999997,2.3095703125
,2.7202665,2.2607421875
,2.7232665999999996,2.2216796875
,2.7589233,2.197265625
,2.7642762999999997,2.1728515625
,2.8101797,2.1484375
,2.8105684,2.1240234375
,2.8225002000000003,2.099609375
,2.8718997,2.109375
,2.8721449000000003,2.109375
,2.8832981999999996,2.1533203125
,2.9264457999999998,2.265625
,2.9266892,2.4072265625
,2.9450769,2.55859375
,2.9905324999999996,2.6904296875
,2.9909305,2.8125
,3.0020075999999998,2.890625
,3.0379764,2.9638671875
,3.0435131,3.0029296875
,3.0807542999999997,3.037109375
,3.0850822000000004,3.02734375
,3.1223527000000004,3.0078125
,3.1228038,2.958984375
,3.1613108,2.900390625
,3.1617198,2.8271484375
,3.1950446,2.7734375
,3.2152412999999997,2.7099609375
,3.2243126,2.666015625
,3.2437180999999997,2.6171875
,3.2817676000000002,2.568359375
,3.3022393,2.51953125
,3.3049142,2.4658203125
,3.3408961,2.412109375
,3.3462828,2.3583984375
,3.3822297,2.314453125
,3.3826978,2.265625
,3.40308,2.236328125
,3.4385003999999997,2.2021484375
,3.4680253,2.1826171875
,3.4682724,2.1533203125
,3.4848533,2.138671875
,3.5209083000000003,2.1142578125
,3.5278443,2.099609375
,3.5484929000000003,2.08984375
,3.5632801,2.08984375
,3.5973170000000003,2.1728515625
,3.6187441,2.3046875
,3.6253342999999996,2.470703125
,3.6736817000000004,2.6025390625
,3.6740868000000004,2.7392578125
,3.6869721999999996,2.8369140625
,3.7349064,2.9248046875
,3.7351495999999997,2.9736328125
,3.7450498999999997,3.02734375
,3.7809714000000003,3.046875
,3.7870267999999996,3.0517578125
,3.8044889,3.02734375
,3.8461588000000004,2.978515625
,3.8465545,2.9248046875
,3.8926637,2.8857421875
,3.8930822999999997,2.8369140625
,3.9042924,2.783203125
,3.9386602,2.7392578125
,3.9590547999999997,2.6904296875
,3.9640625,2.6318359375
,4.0024021,2.5732421875
,4.0228095,2.51953125
,4.0246605,2.4609375
,4.0648704,2.40234375
,4.0948948,2.3486328125
,4.0952172,2.2607421875
,4.1041495,2.1826171875
,4.140687,2.1923828125
,4.1610127,2.1826171875
,4.1664378,2.1728515625
,4.2024097,2.16796875
,4.2048023,2.1484375
,4.240149,2.1337890625
,4.2603016,2.1435546875
,4.2687225,2.216796875
,4.2837649,2.34375
,4.3215624,2.5048828125
,4.3266011,2.646484375
,4.3737518,2.783203125
,4.3741416,2.8857421875
,4.3861444,2.98828125
,4.4360887,3.0517578125
,4.4365583,3.1005859375
,4.4434472,3.115234375
,4.4806162,3.1201171875
,4.485852,3.0908203125
,4.5289754,3.0517578125
,4.5292197,2.98828125
,4.5474716,2.9150390625
,4.5819042,2.8466796875
,4.5875098,2.7783203125
,4.6232197,2.7197265625
,4.6235017,2.65625
,4.658439,2.607421875
,4.6783153,2.548828125
,4.6849741,2.4951171875
,4.7206282,2.431640625
,4.7405695,2.3779296875
,4.7465163,2.32421875
,4.7890038,2.275390625
,4.7893233,2.2216796875
,4.8053173,2.197265625
,4.8403259,2.1826171875
,4.8443217,2.1533203125
,4.8790218,2.138671875
,4.9012364,2.119140625
,4.9079412,2.1240234375
,4.945515,2.109375
,4.9457862,2.138671875
,4.9938565,2.2021484375
,4.994096,2.3486328125
,5.0140449,2.4853515625
,5.0269847,2.6416015625
,5.0639383,2.7685546875
,5.0643283,2.890625
,5.1046704,2.9736328125
,5.1346973,3.046875
,5.134938,3.0810546875
,5.149076,3.1103515625
,5.1971378,3.10546875
,5.1975396,3.06640625
,5.2050068,3.0224609375
,5.2260758,2.9638671875
,5.260801,2.900390625
,5.281522,2.8369140625
,5.288299,2.7880859375
,5.3382212,2.7294921875
,5.3384637,2.6708984375
,5.3451516,2.6171875
,5.3855765,2.568359375
,5.3858993,2.5244140625
,5.4303812,2.4951171875
,5.4306371,2.4560546875
,5.4459307,2.421875
,5.4828895,2.392578125
,5.488224,2.3486328125
,5.5241926,2.3095703125
,5.5243911,2.265625
,5.5596814,2.2412109375
,5.5664615,2.2119140625
,5.6027409,2.2021484375
,5.6054614,2.177734375
,5.6427695,2.1630859375
,5.666072,2.1484375
,5.6663185,2.1875
,5.7134132,2.2705078125
,5.7138069,2.3828125
,5.7269913,2.51953125
,5.7744705,2.67578125
,5.7749063,2.7880859375
,5.7876841,2.900390625
,5.8071904,2.9833984375
,5.852803,3.0419921875
,5.8531954,3.076171875
,5.8818852,3.0859375
,5.8881499,3.076171875
,5.9076701,3.0419921875
,5.9449468,3.0126953125
,5.9474984,2.9638671875
,5.9843766,2.9150390625
,5.9861012,2.861328125
,6.022934599999999,2.8076171875
,6.0529945000000005,2.75390625
,6.0533909,2.705078125
,6.065431500000001,2.6513671875
,6.1148416999999995,2.607421875
,6.1157527,2.568359375
,6.127284100000001,2.51953125
,6.1616567,2.4755859375
,6.1813357,2.44140625
,6.188834999999999,2.4365234375
,6.225145299999999,2.40234375
,6.2304987999999994,2.373046875
,6.2472081,2.333984375
,6.298546999999999,2.3095703125
,6.298791899999999,2.275390625
,6.306258700000001,2.255859375
,6.3440031999999995,2.216796875
,6.3497568,2.236328125
,6.3850546,2.2998046875
,6.3882306,2.4267578125
,6.4056207,2.5439453125
,6.4409923,2.6953125
,6.450026299999999,2.7783203125
,6.467694699999999,2.83203125
,6.503686200000001,2.9443359375
,6.507183899999999,3.0126953125
,6.543637500000001,3.0615234375
,6.5505645999999995,3.0859375
,6.5964841,3.0859375
,6.5968564,3.0615234375
,6.61008,3.0126953125
,6.6271892,2.94921875
,6.6486871,2.900390625
,6.6856943,2.841796875
,6.6860678,2.7978515625
,6.7364339,2.7490234375
,6.7368223,2.6953125
,6.7670768,2.6513671875
,6.771535200000001,2.587890625
,6.8079737,2.5244140625
,6.8083203,2.4609375
,6.8431161,2.4267578125
,6.8479755,2.373046875
,6.888047500000001,2.3193359375
,6.8883092999999995,2.2705078125
,6.925046,2.236328125
,6.9490353,2.1923828125
,6.9492779,2.1875
,6.9671138,2.158203125
,6.9996989,2.1533203125
,7.0207715,2.1435546875
,7.0296904,2.1728515625
,7.048122899999999,2.2607421875
,7.088746799999999,2.412109375
,7.0891535,2.55859375
,7.1096042,2.6806640625
,7.1524836,2.79296875
,7.1531986,2.880859375
,7.1727688,2.96875
,7.1878159,3.017578125
,7.2223068999999995,3.0615234375
,7.243618700000001,3.076171875
,7.2483415,3.06640625
,7.2846686,3.0224609375
,7.2894904,2.96875
,7.3244094,2.9052734375
,7.3448142,2.8564453125
,7.347061999999999,2.79296875
,7.382903600000001,2.744140625
,7.4028314,2.7001953125
,7.408098600000001,2.646484375
,7.4284526,2.5927734375
,7.4791396,2.5341796875
,7.479383800000001,2.4853515625
,7.500241300000001,2.4365234375
,7.511911400000001,2.3876953125
,7.528730899999999,2.3291015625
,7.5639143,2.2900390625
,7.5689248,2.24609375
,7.6051345999999995,2.20703125
,7.610175699999999,2.1826171875
,7.6510906,2.1630859375
,7.6514962,2.1435546875
,7.686051600000001,2.1240234375
,7.6862911,2.099609375
,7.7290005,2.1142578125
,7.7292431,2.1728515625
,7.7495732,2.2802734375
,7.7906745,2.431640625
,7.7909156,2.5634765625
,7.812267800000001,2.705078125
,7.8318639999999995,2.8125
,7.8670904,2.9150390625
,7.867520900000001,2.98828125
,7.9159334,3.056640625
,7.916327000000001,3.0908203125
,7.9367144,3.1103515625
,7.948750499999999,3.1005859375
,7.993943399999999,3.0810546875
,7.9941809,3.037109375
,8.0241565,2.978515625
,8.0330196,2.919921875
,8.0524095,2.8515625
,8.0871399,2.763671875
,8.0873855,2.7099609375
,8.1202476,2.6708984375
,8.1409655,2.6171875
,8.1510246,2.568359375
,8.1961954,2.509765625
,8.1966782,2.4560546875
,8.2117971,2.40234375
,8.2468101,2.3486328125
,8.2679727,2.2900390625
,8.2682471,2.2607421875
,8.3063768,2.2119140625
,8.3359705,2.1875
,8.3362194,2.1533203125
,8.351087,2.138671875
,8.3883523,2.109375
,8.3931068,2.0849609375
,8.4306663,2.0751953125
,8.4310569,2.0751953125
,8.4491465,2.1435546875
,8.483583,2.2802734375
,8.504494,2.4462890625
,8.5122044,2.5830078125
,8.5326885,2.71484375
,8.5689884,2.8125
,8.5741705,2.900390625
,8.5905561,2.958984375
,8.6257264,3.017578125
,8.6316681,3.0419921875
,8.650983,3.0419921875
,8.686223,3.02734375
,8.6930914,2.978515625
,8.7117534,2.9248046875
,8.7492532,2.87109375
,8.7537977,2.8271484375
,8.7687798,2.7685546875
,8.8049239,2.724609375
,8.8112038,2.67578125
,8.8473621,2.6318359375
,8.8501967,2.578125
,8.8867622,2.5341796875
,8.8924405,2.4755859375
,8.9259732,2.4267578125
,8.9453869,2.373046875
,8.9529441,2.3193359375
,8.9687102,2.2705078125
,9.0057473,2.2607421875
,9.0357067,2.236328125
,9.0359687,2.2119140625
,9.0534819,2.1923828125
,9.0979514,2.177734375
,9.0981977,2.1630859375
,9.1137226,2.16796875
,9.160676,2.236328125
,9.1609155,2.353515625
,9.1813159,2.509765625
,9.1905056,2.6416015625
,9.2392256,2.7685546875
,9.2396912,2.861328125
,9.2608101,2.94921875
,9.2736983,3.0029296875
,9.2932296,3.046875
,9.3142461,3.076171875
,9.3296008,3.0712890625
,9.3650087,3.056640625
,9.3955453,3.0126953125
,9.3957892,2.96875
,9.4135829,2.91015625
,9.4331171,2.8564453125
,9.4686797,2.7978515625
,9.4734334,2.75390625
,9.4883354,2.7001953125
,9.5363588,2.6708984375
,9.5365973,2.6220703125
,9.566926,2.578125
,9.5713443,2.51953125
,9.6125766,2.4658203125
,9.6129855,2.412109375
,9.6337401,2.3681640625
,9.6700471,2.32421875
,9.6745485,2.2802734375
,9.7211886,2.2509765625
,9.7215771,2.20703125
,9.7501218,2.2021484375
,9.7503683,2.1923828125
,9.7980623,2.216796875
,9.7983003,2.28515625
,9.8180703,2.4169921875
,9.8345623,2.5439453125
,9.8547576,2.685546875
,9.8717764,2.7978515625
,9.8918509,2.9150390625
,9.9278935,2.998046875
,9.9322204,3.0712890625
,9.9677025,3.1201171875
,9.9722581,3.1396484375
,10.0194002,3.134765625
,10.0196397,3.115234375
,10.0396203,3.0859375
,10.0522978,3.0322265625
,10.0988282,2.98828125
,10.0992187,2.9296875
,10.112433,2.880859375
,10.1471092,2.8271484375
,10.1537681,2.7783203125
,10.1895558,2.71484375
,10.1947525,2.6611328125
,10.2094342,2.6025390625
,10.2443875,2.55859375
,10.2655138,2.5048828125
,10.2714444,2.4658203125
,10.3064922,2.4169921875
,10.3269797,2.3681640625
,10.3326077,2.32421875
,10.3751501,2.2802734375
,10.3753892,2.2412109375
,10.3960912,2.197265625
,10.4162716,2.1435546875
,10.4315634,2.08984375
,10.4694307,2.119140625
,10.4715148,2.1826171875
,10.5055763,2.314453125
,10.5264298,2.451171875
,10.5339861,2.6025390625
,10.578585,2.7294921875
,10.5788342,2.8515625
,10.5947164,2.958984375
,10.6135383,3.0322265625
,10.6494044,3.1005859375
,10.6545784,3.134765625
,10.6907645,3.154296875
,10.6950771,3.1396484375
,10.7293876,3.10546875
,10.735332,3.0517578125
,10.7717462,2.9931640625
,10.7720856,2.9248046875
,10.8089836,2.8759765625
,10.8145016,2.8173828125
,10.833253,2.7587890625
,10.8744899,2.7001953125
,10.8747298,2.6416015625
,10.9084547,2.578125
,10.9293718,2.529296875
,10.9344681,2.470703125
,10.9524252,2.412109375
,10.9878751,2.36328125
,10.9929325,2.3193359375
,11.0298686,2.2802734375
,11.0625976,2.2412109375
,11.0630262,2.20703125
,11.0765118,2.1875
,11.0948934,2.16796875
,11.113856,2.1484375
,11.1555697,2.138671875
,11.1558217,2.1240234375
,11.1734015,2.1533203125
,11.2186023,2.236328125
,11.2188821,2.3681640625
,11.2343912,2.5244140625
,11.2698044,2.646484375
,11.2896643,2.7685546875
,11.2946979,2.861328125
,11.3321929,2.9541015625
,11.350112,3.0078125
,11.3549296,3.0615234375
,11.3740144,3.0859375
,11.4107111,3.0859375
,11.4149612,3.0517578125
,11.4492935,3.0078125
,11.4696015,2.9443359375
,11.4750767,2.8857421875
,11.4937992,2.8271484375
,11.5141263,2.7783203125
,11.5527744,2.7197265625
,11.5530166,2.6806640625
,11.5879461,2.626953125
,11.6082721,2.568359375
,11.617087,2.509765625
,11.635999,2.4560546875
,11.6702982,2.40234375
,11.6911745,2.34375
,11.6935317,2.3046875
,11.7307468,2.265625
,11.7348539,2.2216796875
,11.7723217,2.197265625
,11.7727149,2.1728515625
,11.8174955,2.1435546875
,11.8177839,2.1240234375
,11.8375334,2.1044921875
,11.8537657,2.109375
,11.8891185,2.1484375
,11.9143822,2.2314453125
,11.9146201,2.3779296875
,11.9592587,2.4951171875
,11.9598258,2.6318359375
,11.9774337,2.7294921875
,12.0132776,2.822265625
,12.0160357,2.8857421875
,12.0517978,2.900390625
,12.0538026,2.939453125
,12.0748898,2.9833984375
,12.1144043,2.9736328125
,12.1146641,2.94921875
,12.162171,2.9052734375
,12.1625165,2.8662109375
,12.1773408,2.8076171875
,12.2108818,2.7685546875
,12.2315052,2.71484375
,12.233717,2.6611328125
,12.2708245,2.6123046875
,12.278103,2.5732421875
,12.2950611,2.5146484375
,12.331116,2.4658203125
,12.3371621,2.4169921875
,12.3584846,2.36328125
,12.3946989,2.314453125
,12.3951124,2.265625
,12.4431164,2.2314453125
,12.4435128,2.197265625
,12.454001,2.1826171875
,12.4891164,2.1630859375
,12.5101457,2.138671875
,12.5155455,2.1337890625
,12.551142,2.12890625
,12.5723526,2.1875
,12.5728094,2.294921875
,12.6086611,2.4560546875
,12.6138691,2.5830078125
,12.648629,2.7197265625
,12.6696398,2.822265625
,12.6751985,2.919921875
,12.7104343,2.9833984375
,12.7307548,3.0419921875
,12.733128,3.06640625
,12.7684988,3.0859375
,12.788698,3.06640625
,12.7936134,3.0322265625
,12.8311268,2.978515625
,12.8514303,2.9248046875
,12.8565559,2.8759765625
,12.8921123,2.8173828125
,12.9124563,2.7685546875
,12.9174259,2.71484375
,12.953593,2.6611328125
,12.9539154,2.607421875
,13.0031852,2.55859375
,13.0034254,2.5048828125
,13.0178404,2.4560546875
,13.0378244,2.4072265625
,13.0736281,2.36328125
,13.0761369,2.3193359375
,13.1135366,2.2998046875
,13.1436394,2.2607421875
,13.1438806,2.236328125
,13.1601178,2.216796875
,13.1768762,2.197265625
,13.21243,2.1923828125
,13.2153392,2.216796875
,13.2561971,2.314453125
,13.2565187,2.44140625
,13.2920905,2.5732421875
,13.3157841,2.7001953125
,13.3161182,2.822265625
,13.3520328,2.919921875
,13.3552962,3.0126953125
,13.3948085,3.06640625
,13.3950925,3.10546875
,13.4393687,3.1201171875
,13.4396503,3.1103515625
,13.459971,3.076171875
,13.4764979,3.037109375
,13.5117956,2.9931640625
,13.5136053,2.9296875
,13.5498081,2.8759765625
,13.5694072,2.8125
,13.5758644,2.7587890625
,13.6106199,2.705078125
,13.6319378,2.6611328125
,13.6398525,2.59765625
,13.689174,2.5439453125
,13.6894129,2.48046875
,13.6943918,2.4365234375
,13.7357934,2.3828125
,13.756123,2.34375
,13.7565984,2.2900390625
,13.795811,2.2509765625
,13.8186899,2.216796875
,13.8190844,2.1923828125
,13.8593841,2.16796875
,13.8597917,2.1435546875
,13.8758123,2.1435546875
,13.9221288,2.1484375
,13.9224503,2.216796875
,13.938433,2.34375
,13.9837468,2.4853515625
,13.9840703,2.607421875
,14.0000022,2.7392578125
,14.0161129,2.83203125
,14.0510874,2.9296875
,14.056163699999999,2.998046875
,14.092013099999999,3.0517578125
,14.0973331,3.0810546875
,14.1319665,3.115234375
,14.152515999999999,3.10546875
,14.159616499999998,3.0712890625
,14.1979519,3.0224609375
,14.198206899999999,2.96875
,14.215558300000001,2.9150390625
,14.236512099999999,2.861328125
,14.2783722,2.8076171875
,14.278784600000002,2.7587890625
,14.3087056,2.705078125
,14.318578800000001,2.646484375
,14.3560606,2.5927734375
,14.360513999999998,2.5341796875
,14.379761599999998,2.451171875
,14.396025999999999,2.3681640625
,14.4334584,2.3388671875
,14.463191900000002,2.314453125
,14.4635906,2.2802734375
,14.4790508,2.2509765625
,14.5131962,2.216796875
,14.534354400000002,2.20703125
,14.539656399999998,2.177734375
,14.574017000000001,2.158203125
,14.577158,2.12890625
,14.6122185,2.1435546875
,14.617913399999999,2.197265625
,14.6544792,2.333984375
,14.6599997,2.4658203125
,14.6960802,2.5927734375
,14.698872600000001,2.7099609375
,14.734750900000002,2.8173828125
,14.735161900000001,2.8955078125
,14.7691309,2.9833984375
,14.7897177,3.0322265625
,14.799483899999998,3.0615234375
,14.8398158,3.0712890625
,14.840074999999999,3.0517578125
,14.8752958,3.0126953125
,14.8804294,2.958984375
,14.9003966,2.900390625
,14.917527100000001,2.841796875
,14.9646228,2.7880859375
,14.964950600000002,2.744140625
,14.978208899999998,2.685546875
,15.027713299999998,2.6318359375
,15.0279578,2.578125
,15.040478400000001,2.51953125
,15.0759464,2.4658203125
,15.081066,2.4169921875
,15.096988499999998,2.3583984375
,15.131978199999999,2.3193359375
,15.1530184,2.275390625
,15.1581333,2.24609375
,15.2001998,2.2021484375
,15.2004686,2.1875
,15.245735,2.1630859375
,15.245940399999999,2.138671875
,15.260694099999998,2.109375
,15.2940888,2.08984375
,15.3147202,2.08984375
,15.315470000000001,2.1630859375
,15.369959000000001,2.294921875
,15.3702841,2.44140625
,15.378653199999999,2.55859375
,15.431937999999999,2.6806640625
,15.4322899,2.783203125
,15.442576500000001,2.8515625
,15.4632531,2.9150390625
,15.478176099999999,2.94921875
,15.4993622,2.9736328125
,15.5181233,2.978515625
,15.570238,2.9638671875
,15.5706412,2.9248046875
,15.5802978,2.880859375
,15.632464299999999,2.83203125
,15.6327155,2.783203125
,15.637222999999999,2.734375
,15.671038800000002,2.705078125
,15.692541599999998,2.6611328125
,15.6980283,2.6171875
,15.7383974,2.578125
,15.738648900000001,2.5244140625
,15.7875686,2.470703125
,15.787959699999998,2.4169921875
,15.818788300000001,2.373046875
,15.8190503,2.3193359375
,15.856130499999999,2.28515625
,15.856521999999998,2.24609375
,15.899172199999999,2.216796875
,15.899566100000001,2.2021484375
,15.9192183,2.1875
,15.956075599999998,2.16796875
,15.9770043,2.1533203125
,15.982164699999998,2.16796875
,16.0177631,2.2314453125
,16.018155,2.3681640625
,16.0624864,2.5244140625
,16.0628761,2.6708984375
,16.0808326,2.7783203125
,16.1234645,2.880859375
,16.1237088,2.9541015625
,16.1591476,3.017578125
,16.1594131,3.056640625
,16.1960078,3.0908203125
,16.2263999,3.0859375
,16.2266463,3.0712890625
,16.2403806,3.02734375
,16.2875935,2.9736328125
,16.2878917,2.91015625
,16.3013401,2.861328125
,16.3363687,2.7978515625
,16.3654803,2.744140625
,16.3657267,2.6904296875
,16.3786303,2.63671875
,16.4290208,2.5927734375
,16.4294147,2.5341796875
,16.4586076,2.490234375
,16.458848,2.44140625
,16.4973541,2.392578125
,16.5003653,2.3486328125
,16.5368634,2.314453125
,16.5370605,2.2607421875
,16.5707563,2.2314453125
,16.5911373,2.2021484375
,16.600605,2.1875
,16.6211006,2.16796875
,16.6583571,2.158203125
,16.6631473,2.177734375
,16.7085133,2.28515625
,16.7088299,2.4267578125
,16.7250966,2.548828125
,16.7430571,2.65625
,16.7613378,2.744140625
,16.7962013,2.87109375
,16.7993797,2.96875
,16.8477939,3.046875
,16.8480329,3.095703125
,16.8693939,3.125
,16.8838854,3.1298828125
,16.9277253,3.1005859375
,16.9279659,3.0517578125
,16.9394869,3.0078125
,16.9883932,2.94921875
,16.9887508,2.890625
,17.0087702,2.841796875
,17.0218534,2.7783203125
,17.0421849,2.71484375
,17.0764365,2.65625
,17.0972525,2.6025390625
,17.0974901,2.5341796875
,17.1330521,2.4853515625
,17.1545848,2.431640625
,17.1595668,2.3876953125
,17.1941769,2.333984375
,17.220552,2.2998046875
,17.2208003,2.255859375
,17.2553971,2.216796875
,17.2760299,2.1826171875
,17.2814147,2.1728515625
,17.3020233,2.1484375
,17.3474309,2.1337890625
,17.3481545,2.1142578125
,17.3607695,2.1337890625
,17.3945978,2.2216796875
,17.4162429,2.353515625
,17.4235273,2.490234375
,17.4391686,2.6171875
,17.4740017,2.763671875
,17.4932561,2.87109375
,17.5019515,2.96875
,17.5210191,3.037109375
,17.5557205,3.0908203125
,17.5764546,3.1103515625
,17.583461,3.115234375
,17.617974,3.0859375
,17.6218044,3.037109375
,17.6564101,2.9833984375
,17.6764694,2.9150390625
,17.6825976,2.8515625
,17.7197936,2.7880859375
,17.7227148,2.734375
,17.7431096,2.67578125
,17.7771897,2.6171875
,17.7986249,2.5634765625
,17.8055478,2.5048828125
,17.8209637,2.44140625
,17.8552396,2.40234375
,17.875655,2.3486328125
,17.8808441,2.3046875
,17.915573,2.2607421875
,17.9363799,2.216796875
,17.9431503,2.1875
,17.9784686,2.16796875
,17.9863756,2.138671875
,18.0003723,2.1044921875
,18.0456853,2.0947265625
,18.0460227,2.080078125
,18.0607952,2.0751953125
,18.1072264,2.119140625
,18.1076455,2.236328125
,18.1280317,2.3779296875
,18.1455606,2.509765625
,18.1609811,2.6318359375
,18.1814473,2.7587890625
,18.217996,2.861328125
,18.2376426,2.958984375
,18.2427006,3.02734375
,18.2800542,3.0712890625
,18.3012837,3.1005859375
,18.3042862,3.076171875
,18.3422239,3.0419921875
,18.3638097,2.978515625
,18.3647099,2.8759765625
,18.3811591,2.8173828125
,18.415638,2.7685546875
,18.4364136,2.71484375
,18.4441332,2.666015625
,18.4800574,2.607421875
,18.4849506,2.55859375
,18.5290864,2.5
,18.5293327,2.44140625
,18.5389363,2.3876953125
,18.575453,2.34375
,18.5959102,2.2900390625
,18.6030029,2.2509765625
,18.6373146,2.20703125
,18.6576589,2.1826171875
,18.6643715,2.158203125
,18.7003265,2.1240234375
,18.7049686,2.0947265625
,18.7225963,2.0751953125
,18.7416574,2.0751953125
,18.7774307,2.0947265625
,18.7980125,2.1826171875
,18.8030235,2.3193359375
,18.8424296,2.4609375
,18.8723383,2.578125
,18.8725953,2.7099609375
,18.8809256,2.8076171875
,18.9171449,2.900390625
,18.9223997,2.978515625
,18.9650244,3.017578125
,18.9655616,3.0419921875
,18.9988101,3.037109375
,19.0048007,3.0078125
,19.0407637,2.9541015625
,19.04594,2.8955078125
,19.0628971,2.8369140625
,19.0822184,2.7880859375
,19.1205328,2.734375
,19.1222739,2.6904296875
,19.1549361,2.6318359375
,19.1767086,2.578125
,19.1858124,2.5244140625
,19.2289828,2.4658203125
,19.229195,2.4072265625
,19.2459897,2.3681640625
,19.2821731,2.3193359375
,19.2827376,2.275390625
,19.3184803,2.236328125
,19.3243989,2.2021484375
,19.3694174,2.1875
,19.370312,2.158203125
,19.3842858,2.1435546875
,19.4186733,2.1142578125
,19.4385821,2.1142578125
,19.4409804,2.1484375
,19.4780838,2.275390625
,19.4836914,2.4169921875
,19.520909,2.568359375
,19.5265701,2.7001953125
,19.5452509,2.822265625
,19.580786,2.9248046875
,19.6004534,2.9931640625
,19.6051059,3.056640625
,19.6231571,3.0859375
,19.6565676,3.1103515625
,19.6760599,3.10546875
,19.685151,3.06640625
,19.7039285,3.0029296875
,19.7386606,2.9345703125
,19.7586763,2.8662109375
,19.7654451,2.8076171875
,19.7835166,2.7392578125
,19.8028058,2.6904296875
,19.8382614,2.63671875
,19.8580386,2.587890625
,19.8636439,2.51953125
,19.8992843,2.470703125
,19.9195189,2.412109375
,19.9246612,2.3486328125
,19.9605784,2.294921875
,19.9826737,2.236328125
,19.9871514,2.1875
,20.0043197,2.1533203125
,20.0393328,2.1337890625
,20.0693445,2.1142578125
,20.0696606,2.08984375
,20.0863344,2.0703125
,20.1044539,2.05078125
,20.1391824,2.05078125
,20.1592684,2.119140625
,20.1619402,2.2412109375
,20.1959058,2.40234375
,20.2176134,2.55859375
,20.2259656,2.6904296875
,20.2708912,2.822265625
,20.2712323,2.9296875
,20.287626,3.0322265625
,20.3325947,3.0908203125
,20.3328385,3.1396484375
,20.3436268,3.1494140625
,20.3808543,3.1494140625
,20.3869309,3.1103515625
,20.4224047,3.056640625
,20.4241146,2.9833984375
,20.472664,2.9150390625
,20.4729078,2.8466796875
,20.4936493,2.783203125
,20.5050697,2.71484375
,20.5407474,2.666015625
,20.5436474,2.607421875
,20.5645001,2.548828125
,20.5986709,2.490234375
,20.6192616,2.431640625
,20.6285912,2.3779296875
,20.6464206,2.32421875
,20.6823785,2.275390625
,20.6867752,2.2314453125
,20.721463,2.158203125
,20.721867,2.109375
,20.7673123,2.109375
,20.7677121,2.1044921875
,20.7977685,2.1044921875
,20.8066728,2.099609375
,20.8271963,2.0849609375
,20.8625657,2.08984375
,20.8836317,2.1142578125
,20.8886192,2.2314453125
,20.9050945,2.3681640625
,20.9249184,2.5341796875
,20.9629531,2.67578125
,20.9677535,2.822265625
,21.0022723,2.9296875
,21.0052983,3.0322265625
,21.027843,3.0908203125
,21.062196,3.14453125
,21.0648399,3.1591796875
,21.1001531,3.1640625
,21.1053798,3.1298828125
,21.1412803,3.0810546875
,21.1467917,3.0029296875
,21.1807923,2.9443359375
,21.2019675,2.87109375
,21.2073671,2.802734375
,21.2464899,2.7294921875
,21.246887,2.666015625
,21.2648115,2.607421875
,21.3001442,2.5537109375
,21.3046854,2.5
,21.3412228,2.4462890625
,21.3622375,2.3876953125
,21.3670266,2.333984375
,21.4045441,2.2705078125
,21.4052568,2.20703125
,21.4351673,2.1875
,21.4453876,2.158203125
,21.4654223,2.138671875
,21.5156626,2.1142578125
,21.5160625,2.0849609375
,21.5279451,2.060546875
,21.575659,2.0361328125
,21.5759076,2.021484375
,21.5894008,2.0068359375
,21.6232954,2.0361328125
,21.6437734,2.12890625
,21.6462563,2.3046875
,21.6808385,2.451171875
,21.7018487,2.59765625
,21.7080545,2.7197265625
,21.7470607,2.8271484375
,21.7473026,2.91015625
,21.7838327,2.978515625
,21.8099203,3.0078125
,21.8101726,3.046875
,21.8272628,3.046875
,21.847243,3.0126953125
,21.8813175,2.96875
,21.9030112,2.9052734375
,21.907773,2.8466796875
,21.944057,2.7880859375
,21.9488435,2.7294921875
,21.9656799,2.6708984375
,22.0012193,2.6220703125
,22.0225368,2.568359375
,22.0267948,2.5146484375
,22.0755621,2.4560546875
,22.075812,2.40234375
,22.0883069,2.3486328125
,22.1232049,2.2998046875
,22.1423515,2.255859375
,22.1451876,2.20703125
,22.1814628,2.1875
,22.1867748,2.16796875
,22.2326232,2.1435546875
,22.2328699,2.119140625
,22.2627313,2.1044921875
,22.267033,2.080078125
,22.3025185,2.080078125
,22.3236096,2.12890625
,22.3307223,2.2314453125
,22.3462205,2.3876953125
,22.3662065,2.55859375
,22.4194047,2.7001953125
,22.4201253,2.83203125
,22.4274284,2.919921875
,22.4633471,2.998046875
,22.4704775,3.056640625
,22.490561,3.0859375
,22.5247223,3.1005859375
,22.5274306,3.076171875
,22.5732109,3.0419921875
,22.5734504,2.98828125
,22.5869929,2.9296875
,22.6232109,2.861328125
,22.6435222,2.802734375
,22.6491912,2.7392578125
,22.6829308,2.6806640625
,22.7047415,2.6171875
,22.7049824,2.568359375
,22.7409188,2.5146484375
,22.7635818,2.4609375
,22.7680102,2.412109375
,22.8036385,2.34375
,22.8088041,2.294921875
,22.8559532,2.2509765625
,22.8562079,2.2119140625
,22.8862505,2.1826171875
,22.8864886,2.177734375
,22.9235575,2.1484375
,22.9266547,2.138671875
,22.9641328,2.1142578125
,22.9688198,2.099609375
,23.0109514,2.099609375
,23.0112888,2.1875
,23.0251652,2.32421875
,23.0732334,2.4951171875
,23.073474,2.626953125
,23.089443,2.7734375
,23.1080406,2.8857421875
,23.1513444,2.9736328125
,23.1516547,3.046875
,23.1808274,3.095703125
,23.1897917,3.115234375
,23.2295351,3.115234375
,23.2298362,3.0908203125
,23.2474562,3.037109375
,23.2902236,2.9833984375
,23.2904713,2.9248046875
,23.3245134,2.8564453125
,23.3292563,2.7880859375
,23.3486726,2.734375
,23.3987865,2.67578125
,23.399111,2.6171875
,23.4171735,2.5634765625
,23.4270665,2.4951171875
,23.4487191,2.4462890625
,23.4931146,2.3876953125
,23.4933864,2.34375
,23.5231635,2.28515625
,23.5312089,2.24609375
,23.5697629,2.197265625
,23.5701669,2.1826171875
,23.6038799,2.1484375
,23.6062039,2.138671875
,23.6428809,2.109375
,23.6628302,2.099609375
,23.6701289,2.0849609375
,23.7141037,2.0947265625
,23.7144382,2.119140625
,23.7304435,2.2509765625
,23.7513165,2.4072265625
,23.7667505,2.5439453125
,23.8022459,2.6953125
,23.8223992,2.8173828125
,23.827799,2.9345703125
,23.8641511,3.017578125
,23.8841342,3.0908203125
,23.8902671,3.134765625
,23.931296,3.154296875
,23.9316128,3.1494140625
,23.9780905,3.1103515625
,23.9784789,3.0517578125
,23.9904207,2.9931640625
,24.0395691,2.9296875
,24.0398152,2.8662109375
,24.0489107,2.8125
,24.0843668,2.7392578125
,24.1051143,2.6806640625
,24.112269,2.6123046875
,24.1320737,2.55859375
,24.1475304,2.48046875
,24.1697673,2.4267578125
,24.2058272,2.3681640625
,24.2107063,2.3193359375
,24.2466723,2.2607421875
,24.2517536,2.216796875
,24.2862623,2.1826171875
,24.2913694,2.158203125
,24.3090518,2.119140625
,24.3477197,2.1044921875
,24.3479659,2.0751953125
,24.3684085,2.0849609375
,24.4066544,2.0751953125
,24.4118636,2.0849609375
,24.4566185,2.1533203125
,24.4570963,2.28515625
,24.4724222,2.44140625
,24.4886377,2.578125
,24.5358771,2.71484375
,24.5361203,2.8271484375
,24.5568907,2.9248046875
,24.5723817,2.998046875
,24.5905968,3.046875
,24.6308547,3.076171875
,24.6312523,3.0859375
,24.6513512,3.0615234375
,24.6720683,2.98828125
,24.7091507,2.9150390625
,24.7094923,2.87109375
,24.7532263,2.8369140625
,24.7535441,2.7880859375
,24.7731851,2.7490234375
,24.7929653,2.6953125
,24.8312117,2.6513671875
,24.8316123,2.59765625
,24.8684653,2.5439453125
,24.8687132,2.4853515625
,24.907168,2.4462890625
,24.9266667,2.392578125
,24.9311144,2.3486328125
,24.968032,2.3046875
,24.9884866,2.2705078125
,24.9910321,2.2314453125
,25.0309081,2.2021484375
,25.0615314,2.1875
,25.0618523,2.158203125
,25.0699997,2.158203125
,25.1070136,2.1630859375
,25.1112584,2.2412109375
,25.1533468,2.3681640625
,25.1536023,2.51953125
,25.1834248,2.65625
,25.192258,2.783203125
,25.2081998,2.8857421875
,25.2451159,2.978515625
,25.2499259,3.037109375
,25.2841836,3.0859375
,25.3047561,3.1005859375
,25.3120689,3.1005859375
,25.3488153,3.076171875
,25.3539877,3.017578125
,25.4019703,2.958984375
,25.4022111,2.900390625
,25.4092404,2.8515625
,25.4316936,2.7978515625
,25.4517291,2.7490234375
,25.4711964,2.6953125
,25.4936023,2.6416015625
,25.5146634,2.5830078125
,25.5341917,2.5244140625
,25.5532114,2.4609375
,25.5901177,2.392578125
,25.5905677,2.333984375
,25.6285043,2.2900390625
,25.6287429,2.24609375
,25.6649413,2.216796875
,25.6866385,2.197265625
,25.6933871,2.1728515625
,25.7278268,2.1484375
,25.7333296,2.1240234375
,25.7753899,2.119140625
,25.7758468,2.1533203125
,25.8051913,2.28515625
,25.8101025,2.4267578125
,25.8455932,2.578125
,25.8656073,2.71484375
,25.8726789,2.8466796875
,25.9085106,2.94921875
,25.9138632,3.046875
,25.9292559,3.10546875
,25.9655615,3.154296875
,25.9940102,3.18359375
,25.9943589,3.1640625
,26.0140415,3.134765625
,26.0498526,3.076171875
,26.0531206,3.0126953125
,26.0755808,2.9443359375
,26.0938389,2.880859375
,26.1113982,2.8125
,26.1470298,2.7587890625
,26.1515881,2.7001953125
,26.1968482,2.646484375
,26.1972565,2.587890625
,26.2146547,2.5390625
,26.2335146,2.48046875
,26.2690547,2.4365234375
,26.2742053,2.373046875
,26.3191345,2.3291015625
,26.31938,2.2802734375
,26.3319927,2.2314453125
,26.3672667,2.20703125
,26.3877236,2.1826171875
,26.3927093,2.1630859375
,26.4421117,2.1533203125
,26.4425377,2.1484375
,26.4625515,2.1728515625
,26.4749934,2.2509765625
,26.4893806,2.3779296875
,26.5345287,2.5341796875
,26.5347706,2.67578125
,26.5540934,2.822265625
,26.5738687,2.939453125
,26.6130079,3.0419921875
,26.6133103,3.1298828125
,26.6483381,3.1689453125
,26.6682822,3.1982421875
,26.6708893,3.193359375
,26.7063936,3.18359375
,26.7275946,3.134765625
,26.7314143,3.076171875
,26.7687766,2.998046875
,26.800972,2.9296875
,26.8012477,2.8515625
,26.8171156,2.79296875
,26.8322277,2.7197265625
,26.877458,2.65625
,26.8777834,2.587890625
,26.9069814,2.529296875
,26.9123762,2.4560546875
,26.9496401,2.4072265625
,26.9538153,2.3486328125
,26.9880226,2.2998046875
,27.0102102,2.2412109375
,27.0166311,2.197265625
,27.0356406,2.12890625
,27.0534789,2.0751953125
,27.0939592,2.0751953125
,27.0941682,2.0654296875
,27.1411378,2.0556640625
,27.1413828,2.041015625
,27.1551968,2.03125
,27.1903658,2.080078125
,27.1948433,2.20703125
,27.2131503,2.353515625
,27.2341124,2.5048828125
,27.2689965,2.6513671875
,27.2718368,2.763671875
,27.307742,2.880859375
,27.3268682,2.9541015625
,27.3345944,3.017578125
,27.37008,3.0419921875
,27.3762642,3.046875
,27.3909087,3.0224609375
,27.4367923,2.98828125
,27.4370402,2.9345703125
,27.4577365,2.8857421875
,27.4747871,2.822265625
,27.4950836,2.763671875
,27.5153873,2.705078125
,27.5510602,2.6513671875
,27.5515781,2.587890625
,27.5987728,2.5439453125
,27.5991257,2.4951171875
,27.6132852,2.44140625
,27.647155,2.3876953125
,27.6685488,2.3291015625
,27.6753213,2.2802734375
,27.7241693,2.2265625
,27.7243772,2.1875
,27.7455313,2.158203125
,27.7519239,2.1435546875
,27.786265,2.119140625
,27.8069977,2.099609375
,27.815344,2.0751953125
,27.8502775,2.0654296875
,27.8535035,2.0703125
,27.8899741,2.12890625
,27.9107542,2.2607421875
,27.9162074,2.40234375
,27.953319,2.5390625
,27.9537701,2.65625
,27.9916024,2.7783203125
,27.991923,2.8662109375
,28.0356949,2.939453125
,28.0360123,2.9833984375
,28.0665685,3.0078125
,28.0759534,3.0029296875
,28.0966207,2.9833984375
,28.1157476,2.9345703125
,28.1592931,2.890625
,28.1595496,2.8369140625
,28.1759614,2.79296875
,28.2217015,2.7392578125
,28.2219418,2.7001953125
,28.2358606,2.65625
,28.2712039,2.59765625
,28.2910881,2.5439453125
,28.2913356,2.4853515625
,28.3292535,2.44140625
,28.3345733,2.392578125
,28.3772106,2.353515625
,28.3774511,2.3095703125
,28.3943202,2.275390625
,28.4295653,2.236328125
,28.4503875,2.2021484375
,28.4535585,2.1826171875
,28.4740876,2.1923828125
,28.5083602,2.1826171875
,28.5163445,2.177734375
,28.5366534,2.20703125
,28.5789197,2.28515625
,28.5791605,2.4267578125
,28.5961657,2.5634765625
,28.6409626,2.7099609375
,28.6411812,2.8271484375
,28.6718973,2.8955078125
,28.6721882,2.9833984375
,28.7186823,3.06640625
,28.7189849,3.1103515625
,28.7399694,3.14453125
,28.7564526,3.1396484375
,28.7959906,3.115234375
,28.8264475,3.0615234375
,28.8267658,3.0029296875
,28.8360433,2.9296875
,28.8726156,2.8857421875
,28.8728581,2.8271484375
,28.9174617,2.7734375
,28.9177264,2.7197265625
,28.9370261,2.6611328125
,28.9803318,2.6025390625
,28.9805843,2.548828125
,28.9993632,2.5
,29.0149117,2.4462890625
,29.0501139,2.40234375
,29.0556455,2.3583984375
,29.0904729,2.3095703125
,29.0956917,2.265625
,29.1355569,2.2314453125
,29.1668047,2.197265625
,29.1670466,2.177734375
,29.1808962,2.1630859375
,29.1950246,2.138671875
,29.2404703,2.177734375
,29.2408785,2.265625
,29.2703278,2.421875
,29.2760312,2.5537109375
,29.2968688,2.705078125
,29.3306375,2.822265625
,29.3525359,2.9345703125
,29.352933,3.0078125
,29.3954949,3.095703125
,29.395888,3.134765625
,29.4260949,3.1689453125
,29.4371878,3.1591796875
,29.4860848,3.134765625
,29.4863836,3.0712890625
,29.4972607,3.0224609375
,29.5324774,2.958984375
,29.5375371,2.890625
,29.5716913,2.8271484375
,29.5946462,2.763671875
,29.5950843,2.7099609375
,29.6307359,2.6513671875
,29.637434,2.6025390625
,29.6740612,2.548828125
,29.6783907,2.4951171875
,29.7136343,2.431640625
,29.7187253,2.3779296875
,29.7344866,2.32421875
,29.7695336,2.28515625
,29.7972739,2.24609375
,29.7975158,2.2119140625
,29.8346067,2.2021484375
,29.8348473,2.16796875
,29.8743623,2.1484375
,29.8954088,2.119140625
,29.8987832,2.109375
,29.9148073,2.109375
,29.9340827,2.1875
,29.9688558,2.314453125
,29.9884195,2.4755859375
,29.997692,2.607421875
,30.0318811,2.763671875
,30.052402999999998,2.8759765625
,30.058098899999997,2.98828125
,30.076163299999997,3.056640625
,30.114556999999998,3.125
,30.114955799999997,3.154296875
,30.153252100000003,3.1787109375
,30.1741084,3.1640625
,30.1786418,3.115234375
,30.197805000000002,3.0517578125
,30.2477435,2.978515625
,30.2481353,2.9052734375
,30.2778555,2.8369140625
,30.2807362,2.7734375
,30.2968464,2.705078125
,30.3405342,2.6513671875
,30.3407742,2.59765625
,30.357263000000003,2.5341796875
,30.3933957,2.4755859375
,30.398283499999998,2.4267578125
,30.4339066,2.3681640625
,30.4644605,2.3193359375
,30.464734200000002,2.2705078125
,30.4764117,2.2216796875
,30.525416900000003,2.197265625
,30.5256609,2.177734375
,30.5548743,2.177734375
,30.561703899999998,2.1533203125
,30.5795046,2.138671875
,30.618209299999997,2.109375
,30.6184558,2.099609375
,30.635525199999996,2.109375
,30.6811242,2.216796875
,30.681518099999998,2.3486328125
,30.7114008,2.5048828125
,30.718175799999997,2.63671875
,30.757535500000003,2.763671875
,30.757786199999998,2.8564453125
,30.7932531,2.9541015625
,30.813964400000003,3.0224609375
,30.816637900000003,3.0517578125
,30.854168199999997,3.0712890625
,30.859443,3.06640625
,30.8786744,3.037109375
,30.9284854,2.9833984375
,30.9287353,2.9345703125
,30.9382387,2.87109375
,30.9747596,2.802734375
,30.980539200000003,2.744140625
,31.0009151,2.65625
,31.0174552,2.5732421875
,31.0683765,2.55859375
,31.068697200000003,2.5244140625
,31.079519599999998,2.4853515625
,31.0985444,2.4462890625
,31.134140799999997,2.3974609375
,31.154927100000002,2.353515625
,31.1608947,2.314453125
,31.208319600000003,2.28515625
,31.208566500000003,2.2412109375
,31.216574,2.2216796875
,31.2531932,2.197265625
,31.261504799999997,2.1875
,31.2791439,2.16796875
,31.318690099999998,2.158203125
,31.348013799999997,2.1630859375
,31.3482579,2.236328125
,31.3554417,2.3486328125
,31.3898535,2.5
,31.409981600000002,2.626953125
,31.419815200000002,2.7685546875
,31.4383324,2.8857421875
,31.473770100000003,2.96875
,31.493732299999998,3.037109375
,31.4991615,3.076171875
,31.536731699999997,3.095703125
,31.566532100000003,3.0908203125
,31.567006300000003,3.0810546875
,31.5779389,3.037109375
,31.6143741,2.9833984375
,31.6177598,2.9248046875
,31.6611452,2.8662109375
,31.6615362,2.802734375
,31.690532400000002,2.7587890625
,31.6962324,2.6953125
,31.739175600000003,2.646484375
,31.7395651,2.59765625
,31.775774400000003,2.5439453125
,31.776234799999997,2.4853515625
,31.817686000000002,2.431640625
,31.848089799999997,2.392578125
,31.848524599999998,2.34375
,31.8606172,2.2998046875
,31.8968032,2.24609375
,31.928733100000002,2.20703125
,31.929130999999998,2.177734375
,31.938686500000003,2.16796875
,31.9755422,2.158203125
,31.9800702,2.1533203125
,32.0146016,2.16796875
,32.0352665,2.255859375
,32.0404785,2.373046875
,32.0769415,2.5244140625
,32.0826176,2.6708984375
,32.0985834,2.783203125
,32.1461981,2.900390625
,32.1465185,2.9833984375
,32.1597707,3.056640625
,32.1951388,3.1005859375
,32.2008658,3.1298828125
,32.2372761,3.1201171875
,32.2419962,3.0859375
,32.2587716,3.037109375
,32.2939734,2.978515625
,32.2988953,2.919921875
,32.3360107,2.861328125
,32.3408292,2.7978515625
,32.3805203,2.7392578125
,32.3808355,2.6904296875
,32.427734,2.626953125
,32.4280813,2.568359375
,32.4587608,2.5048828125
,32.4591545,2.4658203125
,32.50386,2.412109375
,32.5041785,2.3681640625
,32.5240368,2.32421875
,32.5415157,2.28515625
,32.560577,2.2412109375
,32.5947138,2.2216796875
,32.6160162,2.1923828125
,32.6233711,2.1435546875
,32.6398907,2.1240234375
,32.6903646,2.1240234375
,32.6906853,2.1142578125
,32.7017812,2.1435546875
,32.7212588,2.2265625
,32.7571935,2.3486328125
,32.7602342,2.490234375
,32.7976214,2.626953125
,32.8170995,2.763671875
,32.817345,2.8759765625
,32.8533478,2.98828125
,32.8743026,3.0615234375
,32.8811397,3.1201171875
,32.924493,3.1494140625
,32.9248897,3.1494140625
,32.9421008,3.125
,32.984272,3.0810546875
,32.9845572,3.0126953125
,32.9986663,2.9541015625
,33.0332491,2.8955078125
,33.0642725,2.83203125
,33.0646157,2.7734375
,33.0820109,2.7099609375
,33.1265533,2.6611328125
,33.1268297,2.59765625
,33.1566456,2.548828125
,33.1569648,2.48046875
,33.2027242,2.431640625
,33.202963,2.3779296875
,33.2235225,2.333984375
,33.2419178,2.28515625
,33.276278,2.24609375
,33.2819771,2.2021484375
,33.3203792,2.1826171875
,33.3206376,2.1435546875
,33.3598262,2.12890625
,33.364323,2.0654296875
,33.3797569,2.0166015625
,33.4153689,2.0556640625
,33.4353105,2.1435546875
,33.4404792,2.28515625
,33.4766613,2.4267578125
,33.4981835,2.568359375
,33.5027416,2.6904296875
,33.5469596,2.802734375
,33.5473555,2.8857421875
,33.5764631,2.9638671875
,33.5813632,3.0078125
,33.6212842,3.0419921875
,33.6217568,3.037109375
,33.6427046,3.0078125
,33.6845237,2.958984375
,33.6849172,2.8955078125
,33.7148591,2.8271484375
,33.7197324,2.763671875
,33.7609431,2.7197265625
,33.7611856,2.6708984375
,33.7806788,2.6220703125
,33.8243734,2.5634765625
,33.8246115,2.5146484375
,33.8548946,2.4560546875
,33.8639989,2.412109375
,33.8807126,2.353515625
,33.9309476,2.3193359375
,33.9311988,2.2802734375
,33.9411277,2.24609375
,33.9781878,2.2021484375
,33.9822835,2.1923828125
,34.0180238,2.177734375
,34.02333,2.1533203125
,34.0597824,2.1337890625
,34.0602113,2.1142578125
,34.0805903,2.1240234375
,34.1137885,2.1875
,34.1347722,2.3193359375
,34.1421543,2.451171875
,34.1631842,2.5830078125
,34.1963695,2.705078125
,34.2173763,2.822265625
,34.2249238,2.9052734375
,34.2736014,2.978515625
,34.2739615,3.017578125
,34.2821723,3.056640625
,34.3198737,3.0615234375
,34.323053,3.037109375
,34.3671132,2.9931640625
,34.3673526,2.9345703125
,34.3884745,2.880859375
,34.4043278,2.8173828125
,34.4249388,2.7587890625
,34.4407149,2.7001953125
,34.4921873,2.65625
,34.4924633,2.6025390625
,34.5035227,2.55859375
,34.5532356,2.5048828125
,34.5535011,2.451171875
,34.5631532,2.40234375
,34.5986323,2.34375
,34.5988742,2.294921875
,34.6196345,2.2802734375
,34.6541384,2.255859375
,34.6742511,2.216796875
,34.682905,2.2021484375
,34.7194659,2.1826171875
,34.7250393,2.16796875
,34.7614542,2.158203125
,34.7632716,2.197265625
,34.7791987,2.28515625
,34.818673,2.431640625
,34.8219911,2.55859375
,34.8635694,2.6953125
,34.8639653,2.8125
,34.9096561,2.919921875
,34.909989,2.998046875
,34.9245321,3.0615234375
,34.9587385,3.10546875
,34.9809768,3.115234375
,34.9856858,3.06640625
,35.001847,3.0322265625
,35.0493382,3.0029296875
,35.0495823,2.94921875
,35.0811142,2.8955078125
,35.0814716,2.83203125
,35.1199769,2.7783203125
,35.1394608,2.7197265625
,35.1466449,2.67578125
,35.1623097,2.6171875
,35.2037544,2.5732421875
,35.2039982,2.51953125
,35.238216,2.470703125
,35.2593031,2.4169921875
,35.2643295,2.3779296875
,35.2996364,2.3388671875
,35.3301399,2.2900390625
,35.3303864,2.24609375
,35.3435888,2.2021484375
,35.3934862,2.1923828125
,35.3937404,2.1728515625
,35.4033359,2.158203125
,35.4396931,2.158203125
,35.4616865,2.1923828125
,35.4669528,2.28515625
,35.4871092,2.4169921875
,35.5030423,2.5390625
,35.540658,2.6953125
,35.5410233,2.8173828125
,35.579553,2.9296875
,35.5993853,3.02734375
,35.6044308,3.0810546875
,35.6405896,3.1201171875
,35.6452088,3.134765625
,35.6657043,3.134765625
,35.6819889,3.095703125
,35.7159293,3.0517578125
,35.7375436,2.98828125
,35.7443967,2.9345703125
,35.7633391,2.8662109375
,35.7985786,2.8125
,35.8194722,2.7490234375
,35.8261369,2.6953125
,35.8767275,2.6318359375
,35.8770307,2.5634765625
,35.8838107,2.5
,35.922636,2.4560546875
,35.9229503,2.4072265625
,35.9688362,2.353515625
,35.9691047,2.3046875
,35.9871769,2.255859375
,36.0217671,2.20703125
,36.0243649,2.177734375
,36.0623226,2.1533203125
,36.0625223,2.1240234375
,36.1086288,2.1044921875
,36.1089483,2.0849609375
,36.1409397,2.08984375
,36.1454975,2.1484375
,36.1878846,2.275390625
,36.188277,2.40234375
,36.2069987,2.5390625
,36.2429444,2.67578125
,36.2433423,2.783203125
,36.2784176,2.8857421875
,36.2830184,2.9541015625
,36.3247052,3.017578125
,36.3249082,3.037109375
,36.3455139,3.037109375
,36.3874293,3.0029296875
,36.387627,2.958984375
,36.4065509,2.900390625
,36.4405917,2.8466796875
,36.444839,2.7783203125
,36.4803459,2.7197265625
,36.4842457,2.65625
,36.5177856,2.59765625
,36.5445509,2.5390625
,36.5448415,2.4853515625
,36.5821905,2.431640625
,36.5872555,2.3681640625
,36.6209391,2.314453125
,36.6421237,2.255859375
,36.6424567,2.216796875
,36.6840403,2.197265625
,36.7038183,2.1923828125
,36.7063688,2.1728515625
,36.7412714,2.1533203125
,36.7468848,2.12890625
,36.7931426,2.1044921875
,36.7933858,2.080078125
,36.8047303,2.109375
,36.8400449,2.1728515625
,36.845652,2.3095703125
,36.8854842,2.4560546875
,36.8857238,2.568359375
,36.9310935,2.7001953125
,36.9313405,2.7978515625
,36.9494234,2.890625
,36.9648217,2.9443359375
,37.0092205,2.9931640625
,37.0094627,3.0078125
,37.0263122,3.0078125
,37.0710008,2.978515625
,37.0712494,2.939453125
,37.0864145,2.880859375
,37.1230329,2.822265625
,37.1233806,2.763671875
,37.1589684,2.724609375
,37.1784012,2.67578125
,37.1848145,2.63671875
,37.2210237,2.5830078125
,37.2259227,2.529296875
,37.2715384,2.48046875
,37.2717897,2.4169921875
,37.2863873,2.3681640625
,37.3072438,2.3193359375
,37.3300644,2.2314453125
,37.3456392,2.158203125
,37.3664981,2.158203125
,37.4031425,2.1435546875
,37.4064681,2.1337890625
,37.4448335,2.119140625
,37.4474196,2.1142578125
,37.483709,2.099609375
,37.4889537,2.1484375
,37.5372314,2.265625
,37.5375071,2.392578125
,37.545526,2.5439453125
,37.5839941,2.67578125
,37.5864051,2.802734375
,37.6239648,2.8955078125
,37.6245024,2.9736328125
,37.6600072,3.02734375
,37.6809013,3.0615234375
,37.686049,3.06640625
,37.7062379,3.06640625
,37.7423784,3.0322265625
,37.7454522,2.9833984375
,37.7865888,2.9248046875
,37.7869509,2.8564453125
,37.8327244,2.7880859375
,37.8331194,2.734375
,37.8498493,2.685546875
,37.8651105,2.626953125
,37.8998776,2.5732421875
,37.920031,2.5146484375
,37.9273712,2.470703125
,37.9467069,2.412109375
,37.9679567,2.3681640625
,38.0042668,2.314453125
,38.0348116,2.2705078125
,38.0351511,2.2265625
,38.0459351,2.20703125
,38.0977052,2.1826171875
,38.0981037,2.1630859375
,38.1064625,2.138671875
,38.1436141,2.1142578125
,38.1483093,2.1044921875
,38.1679133,2.119140625
,38.205082,2.216796875
,38.208061,2.353515625
,38.2442496,2.5048828125
,38.2466844,2.63671875
,38.2836131,2.7783203125
,38.2882656,2.8857421875
,38.3302994,2.9833984375
,38.3306655,3.0419921875
,38.3483955,3.1005859375
,38.3927813,3.115234375
,38.3930196,3.1103515625
,38.4233137,3.076171875
,38.4260619,3.0322265625
,38.4623827,2.96875
,38.4668909,2.9150390625
,38.5021626,2.8515625
,38.5076313,2.783203125
,38.5476942,2.724609375
,38.5479342,2.666015625
,38.5686074,2.607421875
,38.5850791,2.548828125
,38.6262568,2.5
,38.6265716,2.4462890625
,38.6734632,2.40234375
,38.6738559,2.353515625
,38.6903368,2.3046875
,38.7095509,2.2607421875
,38.7304597,2.2265625
,38.7456909,2.197265625
,38.7965973,2.1923828125
,38.7969357,2.1923828125
,38.8263706,2.16796875
,38.8266873,2.1533203125
,38.8732873,2.1240234375
,38.8736772,2.12890625
,38.8898434,2.1630859375
,38.9343703,2.2900390625
,38.9346944,2.4267578125
,38.951264,2.5341796875
,38.9669148,2.67578125
,39.0097849,2.8271484375
,39.0100643,2.939453125
,39.0437298,3.037109375
,39.0483919,3.095703125
,39.0834058,3.134765625
,39.1175376,3.134765625
,39.1179354,3.1298828125
,39.1312008,3.0859375
,39.1472361,3.0224609375
,39.1948484,2.9638671875
,39.1952444,2.900390625
,39.2097339,2.8369140625
,39.2568267,2.7734375
,39.2570702,2.71484375
,39.2707168,2.6611328125
,39.2918461,2.607421875
,39.3071001,2.548828125
,39.3420061,2.4951171875
,39.3474226,2.44140625
,39.3963941,2.392578125
,39.3967843,2.3388671875
,39.4274795,2.2900390625
,39.4278141,2.2509765625
,39.4746276,2.2021484375
,39.4749372,2.1728515625
,39.4868049,2.1484375
,39.537059,2.1337890625
,39.5372992,2.109375
,39.5482239,2.0947265625
,39.5995738,2.080078125
,39.5998143,2.109375
,39.611418,2.1826171875
,39.6304803,2.3291015625
,39.646899,2.4560546875
,39.6909509,2.6025390625
,39.6915368,2.67578125
,39.7082232,2.802734375
,39.7462298,2.8857421875
,39.7466272,2.9736328125
,39.7874436,3.02734375
,39.8169587,3.0419921875
,39.8172743,3.037109375
,39.8303396,3.0029296875
,39.8675715,2.9541015625
,39.8680162,2.890625
,39.9095989,2.841796875
,39.9099952,2.7880859375
,39.9293972,2.7392578125
,39.949541,2.685546875
,39.9883165,2.6318359375
,39.9929175,2.578125
,40.0118625,2.5244140625
,40.0282944,2.470703125
,40.0665813,2.4267578125
,40.0690017,2.3828125
,40.1042973,2.333984375
,40.1095083,2.294921875
,40.128764,2.2509765625
,40.1655323,2.2265625
,40.1904696,2.2021484375
,40.1907901,2.1826171875
,40.2081494,2.158203125
,40.2450095,2.1435546875
,40.2497167,2.1337890625
,40.2987844,2.158203125
,40.2990254,2.2314453125
,40.3099886,2.373046875
,40.3453296,2.4951171875
,40.3504796,2.6318359375
,40.3675004,2.744140625
,40.3891325,2.8662109375
,40.4250234,2.9638671875
,40.4268101,3.0224609375
,40.4707348,3.06640625
,40.4709782,3.076171875
,40.5013318,3.076171875
,40.5108733,3.0419921875
,40.5466429,2.998046875
,40.5516365,2.939453125
,40.5705858,2.8759765625
,40.589573,2.8076171875
,40.6253148,2.7490234375
,40.654517,2.6953125
,40.6547864,2.6513671875
,40.6702695,2.5927734375
,40.7052018,2.5390625
,40.7131205,2.48046875
,40.7491902,2.4169921875
,40.7523293,2.36328125
,40.7703161,2.3193359375
,40.805329,2.2998046875
,40.8097018,2.265625
,40.846245,2.236328125
,40.8506468,2.20703125
,40.8713084,2.1923828125
,40.9191785,2.16796875
,40.9194278,2.158203125
,40.9291262,2.138671875
,40.965616,2.177734375
,40.9678829,2.255859375
,41.0042156,2.3974609375
,41.0244944,2.5244140625
,41.0298185,2.6708984375
,41.0665029,2.7978515625
,41.0911668,2.900390625
,41.0915566,2.98828125
,41.1093346,3.046875
,41.1461336,3.1005859375
,41.1503173,3.125
,41.1969289,3.1201171875
,41.1972404,3.095703125
,41.2107431,3.046875
,41.2577019,2.978515625
,41.2582289,2.91015625
,41.2781043,2.841796875
,41.293441,2.7490234375
,41.3109467,2.6611328125
,41.3310329,2.6318359375
,41.3832545,2.6025390625
,41.3835632,2.5537109375
,41.3929503,2.509765625
,41.4281405,2.4609375
,41.4330502,2.4169921875
,41.4677462,2.3681640625
,41.472659,2.32421875
,41.4911755,2.275390625
,41.5250569,2.2412109375
,41.530034,2.20703125
,41.5678878,2.197265625
,41.588894,2.1630859375
,41.5923014,2.1484375
,41.6266781,2.119140625
,41.6469481,2.099609375
,41.6503013,2.08984375
,41.6864373,2.1630859375
,41.6912855,2.28515625
,41.7268,2.4267578125
,41.7317866,2.5634765625
,41.7699377,2.6953125
,41.7703042,2.8125
,41.818859,2.91015625
,41.8191064,3.0029296875
,41.8398899,3.056640625
,41.8499999,3.10546875
,41.8864762,3.1201171875
,41.8913379,3.1103515625
,41.9426484,3.0712890625
,41.9428948,3.017578125
,41.9525019,2.9541015625
,41.9900317,2.890625
,42.0112182,2.83203125
,42.0117354,2.763671875
,42.0539644,2.7099609375
,42.0542934,2.65625
,42.0700601,2.6025390625
,42.1076529,2.5390625
,42.1119104,2.490234375
,42.1474751,2.431640625
,42.1779936,2.3828125
,42.1782394,2.32421875
,42.1947717,2.28515625
,42.2106669,2.2314453125
,42.2460831,2.20703125
,42.2717466,2.1728515625
,42.2719852,2.1533203125
,42.3095796,2.1240234375
,42.3119858,2.109375
,42.3458287,2.08984375
,42.3679603,2.0751953125
,42.3742714,2.0947265625
,42.3901453,2.1630859375
,42.4254793,2.3095703125
,42.4450567,2.4462890625
,42.4529759,2.587890625
,42.4739831,2.705078125
,42.5092606,2.8173828125
,42.5133114,2.8955078125
,42.5526625,2.9638671875
,42.5529249,3.0029296875
,42.5885666,3.037109375
,42.5915888,3.02734375
,42.6249086,3.0029296875
,42.646505,2.9638671875
,42.6535411,2.9052734375
,42.6891083,2.841796875
,42.6941288,2.783203125
,42.7415303,2.7294921875
,42.7422207,2.6708984375
,42.7521445,2.626953125
,42.7885191,2.5732421875
,42.792628,2.51953125
,42.8275161,2.48046875
,42.8340875,2.451171875
,42.8698619,2.4072265625
,42.8730336,2.3681640625
,42.9141709,2.333984375
,42.9144515,2.294921875
,42.9321452,2.2509765625
,42.9776556,2.2314453125
,42.9778984,2.2119140625
,42.9940038,2.197265625
,43.0397108,2.1875
,43.0401121,2.1630859375
,43.0536455,2.158203125
,43.0897615,2.20703125
,43.093624,2.32421875
,43.1279069,2.451171875
,43.1319592,2.587890625
,43.1677265,2.71484375
,43.1877831,2.83203125
,43.1917572,2.9150390625
,43.2255998,2.9931640625
,43.2450485,3.037109375
,43.2565639,3.06640625
,43.3027743,3.0810546875
,43.3031681,3.0517578125
,43.3119451,3.017578125
,43.3472673,2.9638671875
,43.3521854,2.919921875
,43.3880999,2.861328125
,43.4102866,2.8076171875
,43.4153042,2.75390625
,43.434447,2.7001953125
,43.452195,2.646484375
,43.4870787,2.6025390625
,43.5080784,2.5537109375
,43.5127611,2.5048828125
,43.5486356,2.4609375
,43.5692198,2.412109375
,43.5740623,2.36328125
,43.6101983,2.3291015625
,43.6314345,2.28515625
,43.6364093,2.2412109375
,43.6561795,2.1728515625
,43.6746001,2.119140625
,43.7092208,2.12890625
,43.7135045,2.1337890625
,43.7483261,2.1728515625
,43.7553791,2.265625
,43.7744821,2.4072265625
,43.8099659,2.5341796875
,43.8303808,2.6806640625
,43.8306279,2.802734375
,43.8741849,2.9296875
,43.8745989,3.0224609375
,43.903226,3.10546875
,43.9132267,3.1640625
,43.9493592,3.1787109375
,43.9548053,3.18359375
,43.9907527,3.154296875
,44.0107968,3.1103515625
,44.0140753,3.0419921875
,44.033244,2.98828125
,44.0746009,2.9248046875
,44.0748566,2.8662109375
,44.121069,2.8076171875
,44.1213086,2.7587890625
,44.134959,2.7001953125
,44.1690644,2.6416015625
,44.1906013,2.5830078125
,44.1910999,2.5341796875
,44.2286432,2.48046875
,44.2339285,2.4365234375
,44.2741196,2.3876953125
,44.2744034,2.3388671875
,44.3212666,2.3046875
,44.321659,2.2705078125
,44.3510791,2.2265625
,44.3512768,2.1923828125
,44.3966801,2.1923828125
,44.3969546,2.1826171875
,44.4180789,2.177734375
,44.4348349,2.2119140625
,44.4711641,2.3095703125
,44.4918656,2.431640625
,44.494233,2.5732421875
,44.5309482,2.7001953125
,44.5530337,2.8271484375
,44.5575462,2.9443359375
,44.5743117,3.0224609375
,44.6179018,3.1005859375
,44.6181587,3.1396484375
,44.6359186,3.1689453125
,44.6809657,3.1591796875
,44.6812658,3.1298828125
,44.6970539,3.076171875
,44.7346282,3.0126953125
,44.7349158,2.939453125
,44.7541481,2.890625
,44.805006,2.83203125
,44.8052162,2.7783203125
,44.8157908,2.724609375
,44.85362,2.666015625
,44.8538391,2.6025390625
,44.9011508,2.568359375
,44.9014409,2.5146484375
,44.9301778,2.4609375
,44.9348549,2.421875
,44.9772224,2.3876953125
,44.9774366,2.34375
,45.0132268,2.3046875
,45.0151369,2.2705078125
,45.0499151,2.2314453125
,45.0699114,2.2021484375
,45.0721151,2.177734375
,45.1078471,2.1728515625
,45.1286301,2.1630859375
,45.1352505,2.197265625
,45.1690333,2.294921875
,45.1905954,2.4267578125
,45.1952278,2.568359375
,45.2322253,2.685546875
,45.2610146,2.8125
,45.261287,2.900390625
,45.2790047,2.9833984375
,45.2946031,3.0322265625
,45.3393897,3.0712890625
,45.3396313,3.0712890625
,45.3599467,3.0615234375
,45.3771256,3.017578125
,45.3968165,2.9736328125
,45.4325019,2.9052734375
,45.4536211,2.841796875
,45.4538311,2.783203125
,45.4957255,2.734375
,45.4959334,2.67578125
,45.5267104,2.6318359375
,45.5372554,2.578125
,45.5572982,2.51953125
,45.603986,2.4609375
,45.6043128,2.4072265625
,45.6182092,2.3583984375
,45.6346635,2.3095703125
,45.6788397,2.275390625
,45.6790886,2.236328125
,45.7136459,2.2119140625
,45.7163047,2.1875
,45.7527881,2.1728515625
,45.7571185,2.1435546875
,45.7943967,2.1337890625
,45.7947981,2.119140625
,45.8298434,2.158203125
,45.8355884,2.2705078125
,45.882004,2.392578125
,45.8822471,2.5244140625
,45.8980737,2.6513671875
,45.9443876,2.7783203125
,45.9446359,2.8662109375
,45.9602018,2.9443359375
,45.9759148,2.98828125
,45.9994185,3.0322265625
,46.0158727,2.9931640625
,46.0511756,3.0029296875
,46.0565034,2.96875
,46.0913368,2.9248046875
,46.0974899,2.87109375
,46.1308106,2.8125
,46.1522487,2.7587890625
,46.1599024,2.7099609375
,46.1948517,2.6611328125
,46.1951203,2.607421875
,46.2279186,2.5634765625
,46.2493312,2.5146484375
,46.2598823,2.470703125
,46.2779587,2.4169921875
,46.3173727,2.373046875
,46.3487938,2.32421875
,46.3491036,2.2802734375
,46.3556744,2.236328125
,46.3947117,2.2119140625
,46.3982751,2.1875
,46.4173163,2.177734375
,46.4574261,2.1533203125
,46.4577261,2.1435546875
,46.4921855,2.1728515625
,46.5124642,2.255859375
,46.5191123,2.3828125
,46.5365797,2.5048828125
,46.5721193,2.6416015625
,46.5774694,2.763671875
,46.6158702,2.8759765625
,46.6161861,2.958984375
,46.6618836,3.02734375
,46.6621271,3.06640625
,46.6802861,3.0908203125
,46.6970025,3.076171875
,46.7165181,3.046875
,46.7367942,3.0029296875
,46.7864688,2.94921875
,46.7871056,2.8857421875
,46.7964274,2.83203125
,46.8303986,2.7734375
,46.8494028,2.7099609375
,46.8588297,2.65625
,46.8950234,2.59765625
,46.9156075,2.5439453125
,46.9161361,2.490234375
,46.9607273,2.451171875
,46.9611193,2.4072265625
,46.9910901,2.373046875
,46.9980675,2.333984375
,47.0333606,2.294921875
,47.0552333,2.2509765625
,47.0599379,2.2216796875
,47.0760248,2.1875
,47.1104298,2.177734375
,47.1312965,2.1826171875
,47.1361095,2.1875
,47.1706772,2.265625
,47.1906078,2.3779296875
,47.1981547,2.5146484375
,47.2198137,2.63671875
,47.2686909,2.7685546875
,47.2689498,2.8759765625
,47.2998412,2.9833984375
,47.3002032,3.0517578125
,47.3179674,3.115234375
,47.3612326,3.1396484375
,47.3616283,3.1396484375
,47.4082593,3.1103515625
,47.408552,3.0517578125
,47.4167632,2.978515625
,47.4510019,2.9296875
,47.4583178,2.8662109375
,47.5006198,2.802734375
,47.5010331,2.7392578125
,47.5475474,2.685546875
,47.547792,2.6220703125
,47.5590921,2.5634765625
,47.597922,2.5146484375
,47.5983175,2.4609375
,47.6212969,2.3681640625
,47.6366077,2.2900390625
,47.6888636,2.265625
,47.6891055,2.2412109375
,47.6985048,2.2119140625
,47.7366298,2.1923828125
,47.7413262,2.1728515625
,47.7615186,2.158203125
,47.7979017,2.138671875
,47.8029367,2.1240234375
,47.8177371,2.1337890625
,47.8611565,2.236328125
,47.8615532,2.34375
,47.8802015,2.48046875
,47.9162514,2.59765625
,47.9208304,2.7294921875
,47.9693115,2.8271484375
,47.9697185,2.9345703125
,47.977016,2.9931640625
,48.0135089,3.0517578125
,48.0183118,3.076171875
,48.0644364,3.076171875
,48.0648298,3.037109375
,48.0817999,2.9931640625
,48.0997941,2.9248046875
,48.1401312,2.8564453125
,48.1403725,2.79296875
,48.1609945,2.7294921875
,48.1790678,2.6708984375
,48.2141262,2.6171875
,48.2193449,2.55859375
,48.2393381,2.5048828125
,48.2743934,2.4462890625
,48.2946058,2.392578125
,48.2998115,2.333984375
,48.3398513,2.28515625
,48.3400944,2.2509765625
,48.3595203,2.216796875
,48.4009767,2.1923828125
,48.4013185,2.1728515625
,48.4199982,2.1484375
,48.4549502,2.119140625
,48.459659,2.0947265625
,48.4941541,2.0849609375
,48.5149578,2.08984375
,48.5222128,2.16796875
,48.5379676,2.28515625
,48.5854567,2.431640625
,48.5857282,2.5439453125
,48.6007217,2.6708984375
,48.6357418,2.7685546875
,48.6405748,2.861328125
,48.6791319,2.919921875
,48.6818548,2.9638671875
,48.6988497,2.9736328125
,48.7182835,2.978515625
,48.7528829,2.958984375
,48.7736475,2.91015625
,48.7780602,2.8564453125
,48.8155903,2.802734375
,48.8226833,2.744140625
,48.8559457,2.6904296875
,48.8604775,2.6416015625
,48.8952535,2.5927734375
,48.8999458,2.548828125
,48.9340376,2.5
,48.9387086,2.4560546875
,48.9759734,2.412109375
,48.9970362,2.3876953125
,49.001578,2.3486328125
,49.0220395,2.3193359375
,49.0609338,2.2998046875
,49.0611685,2.2607421875
,49.080632,2.2265625
,49.1227193,2.2021484375
,49.1229605,2.197265625
,49.1702914,2.1826171875
,49.1706814,2.1923828125
,49.1811981,2.2607421875
,49.2307653,2.3779296875
,49.2309813,2.4951171875
,49.2528277,2.626953125
,49.2601096,2.734375
,49.2806923,2.8466796875
,49.3249559,2.9296875
,49.3252096,2.998046875
,49.3406076,3.0322265625
,49.3863628,3.06640625
,49.386716,3.06640625
,49.407295,3.0322265625
,49.4234919,2.9833984375
,49.4404923,2.9248046875
,49.4789443,2.87109375
,49.4791615,2.8125
,49.5258646,2.763671875
,49.5260901,2.7099609375
,49.5413616,2.65625
,49.5787013,2.59765625
,49.5834082,2.5439453125
,49.5997,2.4853515625
,49.6209268,2.4462890625
,49.6657998,2.3974609375
,49.6660465,2.353515625
,49.6812388,2.314453125
,49.7186171,2.265625
,49.7229428,2.2216796875
,49.7602023,2.197265625
,49.7622378,2.1728515625
,49.7793891,2.1484375
,49.8162375,2.138671875
,49.8356645,2.1435546875
,49.841087,2.2119140625
,49.8804439,2.3193359375
,49.8807534,2.4560546875
,49.9299093,2.55859375
,49.9301862,2.6904296875
,49.9507118,2.79296875
,49.9627449,2.8515625
,49.9794836,2.8759765625
,50.0163402,2.96875
,50.034821,3.02734375
,50.0420796,3.0419921875
,50.0839724,3.0322265625
,50.0842166,2.998046875
,50.1186062,2.94921875
,50.1230337,2.8857421875
,50.1605739,2.822265625
,50.1609006,2.7587890625
,50.2087246,2.7099609375
,50.2091096,2.6611328125
,50.2211386,2.6123046875
,50.260205,2.5537109375
,50.2604323,2.5048828125
,50.300413,2.451171875
,50.3225135,2.40234375
,50.3227375,2.3583984375
,50.3418024,2.3095703125
,50.3782323,2.275390625
,50.3825591,2.236328125
,50.4032888,2.216796875
,50.4238865,2.1923828125
,50.4729392,2.1728515625
,50.4732023,2.1435546875
,50.4851394,2.1337890625
,50.5011459,2.1142578125
,50.5510824,2.16796875
,50.5512911,2.2607421875
,50.5615439,2.392578125
,50.5974466,2.509765625
,50.6260108,2.646484375
,50.6262583,2.7490234375
,50.6429091,2.8564453125
,50.6792477,2.9345703125
,50.7047427,2.9833984375
,50.7049638,3.0322265625
,50.7217569,3.046875
,50.7668766,3.037109375
,50.7672059,3.0029296875
,50.7810745,2.9541015625
,50.8163434,2.890625
,50.846841,2.822265625
,50.8470748,2.763671875
,50.8642025,2.705078125
,50.8811163,2.646484375
,50.9221562,2.6025390625
,50.9224205,2.5537109375
,50.9587974,2.5
,50.9837822,2.4609375
,50.9840626,2.4072265625
,51.0189699,2.353515625
,51.045301,2.3046875
,51.0455863,2.2705078125
,51.0623979,2.2265625
,51.0835053,2.20703125
,51.1027479,2.1875
,51.1403346,2.177734375
,51.1406568,2.1484375
,51.186191,2.1337890625
,51.1865365,2.1142578125
,51.2151805,2.119140625
,51.2192991,2.1630859375
,51.2615966,2.2998046875
,51.2618866,2.4169921875
,51.2835767,2.55859375
,51.3053102,2.6806640625
,51.324109,2.7783203125
,51.3452899,2.861328125
,51.3866624,2.919921875
,51.3869334,2.958984375
,51.4021331,2.978515625
,51.4397706,2.9833984375
,51.4416769,2.9638671875
,51.4793789,2.9248046875
,51.4835088,2.87109375
,51.5199839,2.8173828125
,51.5252223,2.763671875
,51.5461109,2.7197265625
,51.5651349,2.6708984375
,51.6057351,2.5830078125
,51.6059618,2.548828125
,51.623873,2.5048828125
,51.6428841,2.470703125
,51.6811641,2.4267578125
,51.7023315,2.392578125
,51.7044352,2.3486328125
,51.7380041,2.314453125
,51.7606734,2.275390625
,51.7660894,2.24609375
,51.7821908,2.2021484375
,51.8199476,2.1923828125
,51.8256504,2.1728515625
,51.8434111,2.16796875
,51.8834121,2.158203125
,51.8837611,2.177734375
,51.9292682,2.2509765625
,51.9295821,2.392578125
,51.9516696,2.51953125
,51.9617952,2.63671875
,51.9848855,2.75390625
,52.0044061,2.8466796875
,52.0417486,2.9296875
,52.0420267,2.9833984375
,52.086438,3.02734375
,52.0867593,3.0419921875
,52.1150497,3.037109375
,52.1216231,3.0029296875
,52.1556034,2.958984375
,52.1763063,2.9052734375
,52.1839745,2.8564453125
,52.2192859,2.802734375
,52.2422214,2.7490234375
,52.2470143,2.7001953125
,52.2671996,2.646484375
,52.2868724,2.5927734375
,52.3034168,2.5390625
,52.3277668,2.4951171875
,52.3437858,2.392578125
,52.3655544,2.36328125
,52.4015681,2.3193359375
,52.4040259,2.2900390625
,52.4400656,2.2509765625
,52.4607104,2.216796875
,52.4661496,2.1923828125
,52.5018242,2.1728515625
,52.5023988,2.1484375
,52.5382631,2.138671875
,52.5653641,2.1484375
,52.5655729,2.2216796875
,52.6022814,2.3486328125
,52.6074611,2.4755859375
,52.6436521,2.607421875
,52.6482399,2.724609375
,52.6678166,2.841796875
,52.6848356,2.9248046875
,52.7226704,3.0029296875
,52.7228883,3.0517578125
,52.7689228,3.0908203125
,52.7691271,3.0859375
,52.7846913,3.0712890625
,52.8201348,3.0224609375
,52.8405384,2.96875
,52.8449656,2.8955078125
,52.8643766,2.8369140625
,52.9011923,2.7880859375
,52.9054547,2.724609375
,52.9531532,2.6708984375
,52.9534191,2.6123046875
,52.9674989,2.5634765625
,53.0131457,2.5048828125
,53.0133604,2.451171875
,53.0245884,2.392578125
,53.0439295,2.353515625
,53.0797505,2.3095703125
,53.0848954,2.2900390625
,53.1358325,2.2509765625
,53.1361168,2.216796875
,53.1458161,2.197265625
,53.1845821,2.177734375
,53.1848093,2.1484375
,53.2291503,2.1337890625
,53.2296858,2.12890625
,53.2503868,2.1484375
,53.2642458,2.24609375
,53.3072176,2.3779296875
,53.3075663,2.5146484375
,53.3564244,2.646484375
,53.3566319,2.7734375
,53.385241,2.880859375
,53.3882822,2.96875
,53.4039687,3.02734375
,53.4497162,3.0810546875
,53.4500025,3.10546875
,53.465822,3.10546875
,53.5119658,3.0712890625
,53.5121778,3.0224609375
,53.5280084,2.96875
,53.5734386,2.8955078125
,53.5737404,2.83203125
,53.5844393,2.7685546875
,53.6211808,2.7294921875
,53.6253599,2.67578125
,53.6672263,2.6220703125
,53.6675184,2.5634765625
,53.6862189,2.509765625
,53.7231317,2.4462890625
,53.7285709,2.40234375
,53.74428,2.3388671875
,53.7923466,2.3046875
,53.7926698,2.2607421875
,53.8040583,2.2265625
,53.8390098,2.1875
,53.8610711,2.1728515625
,53.8685706,2.1484375
,53.8894676,2.119140625
,53.9090625,2.0947265625
,53.9289139,2.0947265625
,53.9496583,2.099609375
,53.9654359,2.2119140625
,54.0081251,2.3779296875
,54.008341,2.509765625
,54.0280443,2.6513671875
,54.0471979,2.7685546875
,54.0811499,2.87109375
,54.1023184,2.939453125
,54.1102642,3.0029296875
,54.1254286,3.0322265625
,54.1630359,3.0517578125
,54.1675077,3.0419921875
,54.2101451,2.998046875
,54.2104363,2.9443359375
,54.22849,2.880859375
,54.2484544,2.8271484375
,54.268449,2.763671875
,54.317681,2.7099609375
,54.3179911,2.646484375
,54.327832,2.6025390625
,54.347327,2.5537109375
,54.3676157,2.509765625
,54.4099924,2.4560546875
,54.4103229,2.412109375
,54.4276232,2.3583984375
,54.4718406,2.314453125
,54.4721335,2.2705078125
,54.4930449,2.24609375
,54.5057247,2.2265625
,54.5508613,2.20703125
,54.5511931,2.1875
,54.5688376,2.1630859375
,54.5885638,2.1533203125
,54.6276403,2.1728515625
,54.627908,2.2705078125
,54.6466926,2.3974609375
,54.6669657,2.5390625
,54.7043788,2.6708984375
,54.7064971,2.7978515625
,54.7532985,2.890625
,54.7536417,2.9736328125
,54.7811514,3.0224609375
,54.7892748,3.0615234375
,54.828455,3.0810546875
,54.8287492,3.0615234375
,54.8745789,3.02734375
,54.8754196,2.96875
,54.8971709,2.9150390625
,54.9073375,2.8515625
,54.9529691,2.7978515625
,54.9532663,2.7392578125
,54.9696064,2.6904296875
,55.0157316,2.626953125
,55.016048,2.578125
,55.0267592,2.51953125
,55.0619723,2.470703125
,55.0671399,2.4267578125
,55.1106615,2.3779296875
,55.1109765,2.3291015625
,55.129142,2.3046875
,55.164596,2.2705078125
,55.1882567,2.236328125
,55.1913832,2.2021484375
,55.2063681,2.1826171875
,55.2414943,2.177734375
,55.2472732,2.177734375
,55.2828367,2.236328125
,55.3035555,2.3388671875
,55.3100578,2.4755859375
,55.3597957,2.5927734375
,55.3601329,2.7294921875
,55.3643621,2.841796875
,55.4070287,2.958984375
,55.407379,3.0322265625
,55.4383413,3.0908203125
,55.4484602,3.125
,55.498692,3.1298828125
,55.4990382,3.1103515625
,55.5081927,3.06640625
,55.5597638,3.0126953125
,55.5600864,2.939453125
,55.5697291,2.8662109375
,55.5889523,2.79296875
,55.6090255,2.7294921875
,55.644428,2.6708984375
,55.6471148,2.6171875
,55.6858042,2.5537109375
,55.6906385,2.5
,55.7267344,2.4462890625
,55.7293424,2.3876953125
,55.7635421,2.333984375
,55.7662284,2.2998046875
,55.8040796,2.2607421875
,55.8079921,2.216796875
,55.8542048,2.1923828125
,55.8545519,2.1728515625
,55.870107,2.158203125
,55.915845,2.12890625
,55.9163701,2.119140625
,55.9263678,2.12890625
,55.9783919,2.216796875
,55.9786695,2.34375
,55.9882696,2.48046875
,56.0387765,2.59765625
,56.039059,2.7392578125
,56.0505541,2.8515625
,56.0855879,2.9541015625
,56.089923,3.037109375
,56.1083997,3.076171875
,56.1280811,3.115234375
,56.1493661,3.115234375
,56.1950099,3.095703125
,56.1952756,3.046875
,56.2091588,2.9833984375
,56.2439089,2.91015625
,56.2645005,2.8466796875
,56.2721777,2.783203125
,56.2925771,2.685546875
,56.307183,2.5927734375
,56.3427961,2.55859375
,56.3644231,2.51953125
,56.3711895,2.470703125
,56.4129101,2.4169921875
,56.4133774,2.3681640625
,56.4308879,2.3291015625
,56.4672961,2.2802734375
,56.4720827,2.2314453125
,56.4896505,2.1875
,56.5263494,2.16796875
,56.5285483,2.138671875
,56.5671679,2.119140625
,56.5721634,2.1044921875
,56.5911076,2.0849609375
,56.6284216,2.08984375
,56.6327668,2.158203125
,56.6494378,2.275390625
,56.6846153,2.4365234375
,56.6900302,2.5634765625
,56.7091679,2.705078125
,56.7539323,2.8271484375
,56.7543187,2.919921875
,56.7723275,2.9931640625
,56.8160847,3.0322265625
,56.8163372,3.0615234375
,56.827842,3.056640625
,56.8779973,3.0322265625
,56.8782572,2.9833984375
,56.8891941,2.9248046875
,56.9253063,2.8515625
,56.9306411,2.79296875
,56.968259,2.7197265625
,56.972267,2.6611328125
,56.9885017,2.59765625
,57.0323967,2.5537109375
,57.032728,2.5
,57.0495035,2.451171875
,57.0705582,2.40234375
,57.0894659,2.353515625
,57.1242589,2.3046875
,57.1437509,2.265625
,57.1517628,2.216796875
,57.1954189,2.1923828125
,57.1956889,2.177734375
,57.2093414,2.1533203125
,57.2451009,2.138671875
,57.2739968,2.119140625
,57.2743582,2.1142578125
,57.2922483,2.1533203125
,57.3338251,2.2705078125
,57.3342915,2.40234375
,57.3522653,2.5341796875
,57.3984563,2.6806640625
,57.3986992,2.7880859375
,57.426897,2.91015625
,57.4293323,2.9833984375
,57.4669268,3.0419921875
,57.4719077,3.06640625
,57.5095105,3.076171875
,57.5099343,3.046875
,57.5537108,2.9931640625
,57.5543005,2.9296875
,57.5829043,2.8759765625
,57.5901715,2.8125
,57.6326037,2.75390625
,57.6328835,2.7001953125
,57.6814935,2.646484375
,57.6820929,2.5830078125
,57.6910505,2.5390625
,57.7271343,2.4853515625
,57.7475845,2.4365234375
,57.7499777,2.392578125
,57.7859412,2.3486328125
,57.819809,2.3046875
,57.8200969,2.24609375
,57.8310371,2.20703125
,57.8821765,2.177734375
,57.882473,2.1533203125
,57.8939528,2.1337890625
,57.9449077,2.0703125
,57.9456026,2.0751953125
,57.951108,2.1533203125
,57.9879523,2.275390625
,57.990257,2.421875
,58.0256054,2.568359375
,58.0539347,2.7001953125
,58.0542699,2.83203125
,58.0892807,2.919921875
,58.094824,3.0078125
,58.1106848,3.0517578125
,58.1473543,3.095703125
,58.1514466,3.1005859375
,58.1962893,3.0712890625
,58.1965874,3.0224609375
,58.2131748,2.96875
,58.234473,2.900390625
,58.253958,2.8271484375
,58.271406,2.763671875
,58.3215787,2.7099609375
,58.3218961,2.646484375
,58.3306947,2.5927734375
,58.3672454,2.5439453125
,58.3902336,2.48046875
,58.3904534,2.4365234375
,58.4249122,2.3828125
,58.4466495,2.3193359375
,58.4514864,2.265625
,58.4876245,2.2314453125
,58.4899656,2.1923828125
,58.5251631,2.16796875
,58.5454317,2.138671875
,58.5529292,2.1142578125
,58.5991414,2.080078125
,58.5995382,2.0849609375
,58.6102854,2.1142578125
,58.6448238,2.236328125
,58.6650891,2.3388671875
,58.6703056,2.4365234375
,58.706107,2.59765625
,58.7269476,2.744140625
,58.7343359,2.8759765625
,58.7537263,2.96875
,58.8008197,3.0419921875
,58.8012314,3.0859375
,58.8161664,3.10546875
,58.8314558,3.0908203125
,58.866143,3.06640625
,58.8855626,3.0078125
,58.8914002,2.9443359375
,58.9254919,2.8759765625
,58.9461526,2.8125
,58.9537131,2.7392578125
,58.990868,2.6806640625
,58.9959551,2.6171875
,59.0124538,2.5537109375
,59.0324732,2.5
,59.0830765,2.4462890625
,59.0833235,2.3974609375
,59.1125524,2.34375
,59.1127988,2.2998046875
,59.1494357,2.24609375
,59.1545453,2.2021484375
,59.1715577,2.1875
,59.2076632,2.177734375
,59.2122446,2.1728515625
,59.2508001,2.1826171875
,59.2512518,2.1826171875
,59.2874193,2.2021484375
,59.3078585,2.2802734375
,59.3134983,2.3828125
,59.3611153,2.509765625
,59.3613607,2.6318359375
,59.382234,2.783203125
,59.3922774,2.900390625
,59.4387286,3.0078125
,59.43898,3.0712890625
,59.4528575,3.1298828125
,59.5028738,3.1494140625
,59.5032608,3.1640625
,59.5165955,3.1201171875
,59.5636587,3.06640625
,59.563908,2.998046875
,59.5740621,2.9296875
,59.5935887,2.8564453125
,59.6284981,2.802734375
,59.6341865,2.7392578125
,59.6691603,2.67578125
,59.6916065,2.6171875
,59.6961787,2.5537109375
,59.7325352,2.490234375
,59.7330134,2.4365234375
,59.7692576,2.3974609375
,59.7718454,2.353515625
,59.8073763,2.3193359375
,59.8274791,2.275390625
,59.8338419,2.236328125
,59.8680608,2.1923828125
,59.8886512,2.1728515625
,59.8916998,2.1435546875
,59.9262483,2.1240234375
,59.9304436,2.119140625
,59.9714447,2.1142578125
,59.9912585,2.177734375
,59.9929843,2.2802734375
,60.033988,2.421875
,60.054804,2.5390625
,60.0552803,2.67578125
,60.0718998,2.783203125
,60.1104998,2.890625
,60.113939,2.958984375
,60.1573912,3.017578125
,60.1576432,3.0322265625
,60.1734242,3.0322265625
,60.2102928,2.998046875
,60.2153671,2.9443359375
,60.2372626,2.87109375
,60.2572536,2.79296875
,60.277429,2.7099609375
,60.2926122,2.6708984375
,60.3307091,2.63671875
,60.3518906,2.59765625
,60.3549213,2.5537109375
,60.3902262,2.509765625
,60.3958733,2.4755859375
,60.4339762,2.4267578125
,60.4357792,2.3779296875
,60.4527189,2.333984375
,60.4897352,2.294921875
,60.4943521,2.255859375
,60.5345229,2.216796875
,60.53478,2.197265625
,60.5820331,2.177734375
,60.5822786,2.1630859375
,60.6027693,2.1337890625
,60.6179744,2.1484375
,60.6346043,2.2119140625
,60.6695106,2.3583984375
,60.674558,2.4853515625
,60.7102272,2.6220703125
,60.7136656,2.744140625
,60.7559378,2.8662109375
,60.756337,2.94921875
,60.7868722,3.0224609375
,60.7935587,3.0615234375
,60.8272479,3.095703125
,60.8479879,3.095703125
,60.853453,3.06640625
,60.8895793,3.0078125
,60.8946238,2.94921875
,60.9288767,2.880859375
,60.94938,2.8076171875
,60.9567993,2.744140625
,60.9737136,2.6806640625
,60.9953837,2.6318359375
,61.0365935,2.578125
,61.0369932,2.529296875
,61.0727293,2.4755859375
,61.0758526,2.421875
,61.1111696,2.3681640625
,61.1166998,2.32421875
,61.1510232,2.275390625
,61.1712362,2.2314453125
,61.173652,2.1826171875
,61.2231608,2.1728515625
,61.223426,2.158203125
,61.2424602,2.1337890625
,61.2582839,2.119140625
,61.2758476,2.1240234375
,61.3154053,2.2119140625
,61.3449632,2.3291015625
,61.3452101,2.48046875
,61.3546302,2.6171875
,61.3745526,2.7587890625
,61.4233011,2.87109375
,61.4235606,2.978515625
,61.4364764,3.046875
,61.4864202,3.095703125
,61.4867214,3.115234375
,61.4985844,3.1103515625
,61.5137985,3.0712890625
,61.5490557,3.037109375
,61.5697727,2.978515625
,61.5747526,2.9052734375
,61.6136891,2.83203125
,61.6438925,2.7685546875
,61.6442919,2.7001953125
,61.6575148,2.6318359375
,61.6940827,2.578125
,61.6944853,2.509765625
,61.7310476,2.4560546875
,61.7358327,2.3974609375
,61.7708479,2.3486328125
,61.7760142,2.2998046875
,61.8125765,2.265625
,61.8172665,2.2021484375
,61.8617021,2.177734375
,61.8620266,2.1484375
,61.8782797,2.109375
,61.9142883,2.080078125
,61.9388322,2.0556640625
,61.9390868,2.0556640625
,61.9543317,2.0703125
,61.9885179,2.1630859375
,62.0086714,2.294921875
,62.0182106,2.44140625
,62.052484500000006,2.568359375
,62.07371929999999,2.71484375
,62.074121399999996,2.822265625
,62.11182719999999,2.9296875
,62.116235,2.998046875
,62.152001,3.0517578125
,62.157249699999994,3.06640625
,62.204308999999995,3.0712890625
,62.204685,3.037109375
,62.218112000000005,2.978515625
,62.2656901,2.91015625
,62.265932199999995,2.841796875
,62.27705589999999,2.7783203125
,62.297321600000004,2.724609375
,62.3334641,2.67578125
,62.335575500000004,2.6171875
,62.3717786,2.5634765625
,62.391986700000004,2.5048828125
,62.396355400000004,2.451171875
,62.41454950000001,2.392578125
,62.4504168,2.3486328125
,62.4549239,2.2998046875
,62.490454099999994,2.255859375
,62.5107835,2.216796875
,62.517509399999994,2.1826171875
,62.53847519999999,2.1533203125
,62.5891324,2.119140625
,62.5895398,2.1044921875
,62.60048999999999,2.080078125
,62.61933139999999,2.0263671875
,62.636343999999994,1.9873046875
,62.6817166,2.0703125
,62.681959899999995,2.197265625
,62.702266800000004,2.3681640625
,62.718363499999995,2.5
,62.7397534,2.646484375
,62.7606687,2.763671875
,62.8051244,2.87109375
,62.8055303,2.9345703125
,62.816124,3.0078125
,62.851689699999994,3.0419921875
,62.8561148,3.046875
,62.889509700000005,3.0224609375
,62.9103133,2.9736328125
,62.917861900000005,2.9150390625
,62.9611077,2.841796875
,62.961483099999995,2.7783203125
,62.9765151,2.71484375
,63.02311039999999,2.6611328125
,63.023877999999996,2.6123046875
,63.053734000000006,2.5537109375
,63.0587556,2.5
,63.093823900000004,2.451171875
,63.0986111,2.3974609375
,63.120195800000005,2.3486328125
,63.1643059,2.3095703125
,63.1647298,2.255859375
,63.176866200000006,2.2265625
,63.213189,2.1923828125
,63.217620800000006,2.177734375
,63.2574037,2.1484375
,63.2578817,2.12890625
,63.3057008,2.1044921875
,63.3060971,2.0947265625
,63.3164383,2.0947265625
,63.35207389999999,2.1923828125
,63.356832100000005,2.314453125
,63.398398799999995,2.470703125
,63.398742999999996,2.5927734375
,63.4443962,2.7392578125
,63.444642400000006,2.8369140625
,63.459356,2.94921875
,63.494652900000006,3.017578125
,63.5151111,3.0615234375
,63.52067889999999,3.0810546875
,63.53811399999999,3.0712890625
,63.58543400000001,3.046875
,63.58583109999999,3.0078125
,63.59872850000001,2.958984375
,63.6339354,2.8955078125
,63.6385466,2.83203125
,63.678747599999994,2.7734375
,63.679066399999996,2.7099609375
,63.6982117,2.6513671875
,63.718994699999996,2.6025390625
,63.7542419,2.5537109375
,63.759173700000005,2.4951171875
,63.802534699999995,2.451171875
,63.802782300000004,2.3974609375
,63.8214615,2.3486328125
,63.862809799999994,2.3046875
,63.8632197,2.275390625
,63.877463500000005,2.2314453125
,63.924951899999996,2.20703125
,63.925215699999995,2.1923828125
,63.945279,2.1826171875
,63.96034469999999,2.16796875
,64.0038373,2.1923828125
,64.0040825,2.2705078125
,64.0226223,2.3974609375
,64.0360231,2.51953125
,64.0571759,2.6708984375
,64.0981738,2.79296875
,64.0985688,2.919921875
,64.1443242,3.0126953125
,64.1446491,3.0712890625
,64.1613336,3.1103515625
,64.1809991,3.125
,64.2201925,3.115234375
,64.2207011,3.0712890625
,64.2593738,3.017578125
,64.259615,2.94921875
,64.2777677,2.8955078125
,64.3146569,2.83203125
,64.3447494,2.7685546875
,64.3450018,2.705078125
,64.3607304,2.6611328125
,64.3975987,2.6025390625
,64.402163,2.548828125
,64.4389994,2.4951171875
,64.4392484,2.4365234375
,64.4739102,2.3876953125
,64.4794662,2.34375
,64.5169863,2.3046875
,64.521752,2.255859375
,64.5405547,2.2216796875
,64.5775912,2.1923828125
,64.5798293,2.1728515625
,64.6128955,2.138671875
,64.6175335,2.138671875
,64.639718,2.138671875
,64.675143,2.197265625
,64.6796522,2.3046875
,64.715518,2.44140625
,64.7212761,2.568359375
,64.7553992,2.7099609375
,64.7759995,2.841796875
,64.7789894,2.9345703125
,64.8142982,3.02734375
,64.8176714,3.0810546875
,64.8591254,3.115234375
,64.859526,3.1201171875
,64.8945805,3.1103515625
,64.9160446,3.056640625
,64.921221,2.998046875
,64.9394797,2.919921875
,64.9745515,2.8564453125
,64.9768371,2.7392578125
,65.0134561,2.7001953125
,65.0334057,2.646484375
,65.0394504,2.587890625
,65.0605575,2.5390625
,65.1072453,2.48046875
,65.1074963,2.431640625
,65.12165,2.3779296875
,65.1558517,2.333984375
,65.1772747,2.2802734375
,65.1801033,2.24609375
,65.2157984,2.2119140625
,65.221404,2.1923828125
,65.2404534,2.16796875
,65.2765636,2.1484375
,65.298412,2.119140625
,65.3018694,2.099609375
,65.3180154,2.080078125
,65.3570874,2.1142578125
,65.3574,2.2021484375
,65.4027432,2.36328125
,65.4030687,2.5146484375
,65.4487557,2.6513671875
,65.4490875,2.7880859375
,65.4622368,2.890625
,65.5119245,2.978515625
,65.512127,3.0322265625
,65.5213091,3.0810546875
,65.5580892,3.095703125
,65.5602396,3.0859375
,65.6062971,3.0419921875
,65.6066801,2.9736328125
,65.6227986,2.9052734375
,65.6585908,2.841796875
,65.6590001,2.7734375
,65.6783089,2.71484375
,65.7149132,2.666015625
,65.735412,2.6025390625
,65.7406871,2.548828125
,65.7755201,2.4853515625
,65.781492,2.4365234375
,65.8185191,2.373046875
,65.8238051,2.32421875
,65.8598801,2.265625
,65.8645185,2.216796875
,65.8800176,2.1728515625
,65.9163458,2.16796875
,65.9190222,2.138671875
,65.963598,2.1240234375
,65.9638413,2.099609375
,65.9845665,2.0751953125
,66.0036497,2.0703125
,66.0399517,2.1240234375
,66.0442415,2.24609375
,66.0595624,2.3779296875
,66.0948412,2.5146484375
,66.099341,2.6416015625
,66.1357611,2.7587890625
,66.1559438,2.8466796875
,66.1626618,2.9248046875
,66.2152465,2.9638671875
,66.2156452,2.98828125
,66.2190069,2.9833984375
,66.2624859,2.9541015625
,66.2628101,2.91015625
,66.2808748,2.8564453125
,66.3159088,2.802734375
,66.3373837,2.744140625
,66.3421992,2.6953125
,66.3799956,2.6318359375
,66.3856359,2.5830078125
,66.4003304,2.529296875
,66.4486668,2.5
,66.4490656,2.4560546875
,66.4630471,2.4169921875
,66.5110623,2.3681640625
,66.5113155,2.32421875
,66.524253,2.2705078125
,66.5576703,2.236328125
,66.5627246,2.1923828125
,66.5980282,2.12890625
,66.6186015,2.1142578125
,66.621485,2.109375
,66.6647642,2.099609375
,66.6650655,2.1484375
,66.681228,2.24609375
,66.7171376,2.3681640625
,66.737819,2.509765625
,66.7437123,2.6416015625
,66.7910031,2.7734375
,66.7914005,2.8759765625
,66.8025677,2.978515625
,66.8503181,3.0419921875
,66.8505697,3.0908203125
,66.8629957,3.1103515625
,66.914384,3.095703125
,66.9146847,3.056640625
,66.9240843,3.0126953125
,66.940124,2.94921875
,66.9765874,2.890625
,67.0066839,2.83203125
,67.0071181,2.7734375
,67.023515,2.71484375
,67.0695028,2.6513671875
,67.0701213,2.5927734375
,67.0851195,2.5341796875
,67.1048731,2.48046875
,67.1212789,2.421875
,67.1568674,2.373046875
,67.1617679,2.333984375
,67.1991436,2.294921875
,67.2009726,2.2509765625
,67.2367595,2.20703125
,67.2576223,2.177734375
,67.2640246,2.1533203125
,67.281198,2.12890625
,67.3180604,2.138671875
,67.3240813,2.177734375
,67.3631165,2.2265625
,67.3634674,2.3876953125
,67.4103836,2.529296875
,67.4108021,2.6806640625
,67.4246535,2.8076171875
,67.4711374,2.9345703125
,67.471383,3.0224609375
,67.4855664,3.0908203125
,67.501439,3.1201171875
,67.5496946,3.14453125
,67.5501074,3.125
,67.5648308,3.0859375
,67.5830664,3.0224609375
,67.6264419,2.9541015625
,67.6268116,2.8857421875
,67.6478729,2.8076171875
,67.6654093,2.734375
,67.6822977,2.6708984375
,67.7019112,2.626953125
,67.7363138,2.5732421875
,67.7571945,2.5146484375
,67.7626853,2.4609375
,67.8133745,2.4072265625
,67.8136276,2.353515625
,67.8241271,2.3046875
,67.8590707,2.255859375
,67.85959,2.216796875
,67.9064979,2.197265625
,67.9067453,2.1728515625
,67.9266787,2.1435546875
,67.9454419,2.138671875
,67.9799686,2.119140625
,67.9847237,2.1044921875
,68.0313156,2.1533203125
,68.0317008,2.2607421875
,68.0438641,2.412109375
,68.078325,2.5439453125
,68.0831151,2.6904296875
,68.1251641,2.8076171875
,68.1254719,2.91015625
,68.1614752,2.9833984375
,68.1664673,3.037109375
,68.2068881,3.056640625
,68.2072859,3.06640625
,68.2221008,3.037109375
,68.2605184,2.998046875
,68.263428,2.9443359375
,68.3137562,2.87109375
,68.3141281,2.802734375
,68.3254817,2.7294921875
,68.3747527,2.6708984375
,68.3750052,2.607421875
,68.3861223,2.548828125
,68.4043492,2.48046875
,68.4428048,2.431640625
,68.4431087,2.3828125
,68.4796306,2.3486328125
,68.5036493,2.294921875
,68.5038996,2.2509765625
,68.5527688,2.2021484375
,68.5531673,2.177734375
,68.5833295,2.138671875
,68.5836745,2.1337890625
,68.6190593,2.119140625
,68.639394,2.08984375
,68.6452581,2.0703125
,68.680631,2.060546875
,68.685646,2.119140625
,68.7208562,2.236328125
,68.7410505,2.3876953125
,68.7412943,2.5244140625
,68.7762213,2.666015625
,68.7970437,2.7783203125
,68.8044646,2.87109375
,68.8247198,2.9345703125
,68.8606298,2.9833984375
,68.8662083,3.0029296875
,68.8860773,2.9931640625
,68.923939,2.9638671875
,68.9282997,2.9052734375
,68.9640268,2.8076171875
,68.9644805,2.75390625
,68.9852797,2.71484375
,69.0320715,2.6708984375
,69.0324639,2.6318359375
,69.0461427,2.578125
,69.0823255,2.5390625
,69.0892662,2.4853515625
,69.1075207,2.4365234375
,69.1240918,2.3828125
,69.1718592,2.34375
,69.17218,2.2998046875
,69.1863596,2.265625
,69.2200236,2.216796875
,69.2269968,2.20703125
,69.2625876,2.1875
,69.2670364,2.16796875
,69.3025336,2.1435546875
,69.3228615,2.1240234375
,69.3233748,2.1484375
,69.372187,2.2412109375
,69.3725504,2.3876953125
,69.3868904,2.5244140625
,69.4340976,2.666015625
,69.4343407,2.7880859375
,69.4475836,2.890625
,69.4646367,2.9736328125
,69.4988307,3.056640625
,69.5031666,3.1005859375
,69.5381176,3.125
,69.5584179,3.1201171875
,69.565788,3.0712890625
,69.6050894,3.0224609375
,69.6054871,2.9541015625
,69.6403094,2.8955078125
,69.6620192,2.822265625
,69.6644927,2.7685546875
,69.6986398,2.7197265625
,69.7194395,2.666015625
,69.7263482,2.6123046875
,69.7767019,2.5634765625
,69.7770025,2.5048828125
,69.8075775,2.4609375
,69.807847,2.4072265625
,69.855026,2.3583984375
,69.855502,2.3046875
,69.8646888,2.2705078125
,69.9003286,2.2265625
,69.9061216,2.197265625
,69.9413267,2.1728515625
,69.9468856,2.1435546875
,69.9928003,2.1337890625
,69.993049,2.1728515625
,70.0082067,2.2900390625
,70.0244174,2.421875
,70.0724075,2.578125
,70.072672,2.71484375
,70.0928725,2.8466796875
,70.106721,2.9443359375
,70.1266896,3.0322265625
,70.1645346,3.0810546875
,70.1694397,3.115234375
,70.2059561,3.125
,70.206204,3.1005859375
,70.2251941,3.06640625
,70.2596221,3.0126953125
,70.279555,2.958984375
,70.287139,2.890625
,70.3223094,2.822265625
,70.3272072,2.7587890625
,70.3623693,2.7001953125
,70.3627645,2.63671875
,70.3999723,2.5927734375
,70.4043718,2.5341796875
,70.4497626,2.48046875
,70.4501584,2.431640625
,70.4691883,2.3828125
,70.4865248,2.3388671875
,70.5278667,2.3095703125
,70.5282693,2.275390625
,70.5737748,2.2314453125
,70.5741972,2.197265625
,70.5940467,2.1728515625
,70.6052101,2.1630859375
,70.6395728,2.1484375
,70.6682391,2.1875
,70.6686034,2.2705078125
,70.7032387,2.4072265625
,70.7229344,2.5341796875
,70.7288195,2.67578125
,70.7465375,2.79296875
,70.7825563,2.9248046875
,70.7849738,3.0078125
,70.8217709,3.0712890625
,70.842051,3.115234375
,70.8463877,3.115234375
,70.8826533,3.1005859375
,70.9034626,3.056640625
,70.9091675,2.9931640625
,70.9240078,2.9248046875
,70.95871,2.861328125
,70.9801692,2.79296875
,70.9873929,2.734375
,71.0311838,2.6708984375
,71.0314361,2.6220703125
,71.0473724,2.5634765625
,71.0832192,2.5048828125
,71.1046241,2.4462890625
,71.1055591,2.3974609375
,71.141879,2.34375
,71.146366,2.3046875
,71.1671022,2.255859375
,71.2022032,2.2119140625
,71.2217882,2.1826171875
,71.2290882,2.1533203125
,71.2782116,2.1240234375
,71.2786653,2.0947265625
,71.289725,2.0458984375
,71.306263,2.01171875
,71.3397121,2.0947265625
,71.3609631,2.2314453125
,71.3678088,2.392578125
,71.4036034,2.529296875
,71.4088939,2.67578125
,71.4439054,2.7880859375
,71.4648733,2.8955078125
,71.4699505,2.96875
,71.4883073,3.0029296875
,71.5235549,3.0322265625
,71.5261178,3.037109375
,71.5622798,3.02734375
,71.5831494,2.9833984375
,71.5889641,2.9296875
,71.6258237,2.8662109375
,71.6305088,2.8125
,71.6474981,2.744140625
,71.6964614,2.705078125
,71.6968015,2.65625
,71.7087921,2.607421875
,71.7585962,2.548828125
,71.7588647,2.5
,71.7739929,2.4365234375
,71.7893067,2.40234375
,71.832101,2.3583984375
,71.8324673,2.314453125
,71.8492067,2.2900390625
,71.883991,2.24609375
,71.8867346,2.2119140625
,71.9373283,2.1923828125
,71.9375738,2.1728515625
,71.958612,2.158203125
,71.9712815,2.1533203125
,71.9886123,2.2021484375
,72.030115,2.3291015625
,72.0303621,2.4755859375
,72.0481476,2.6220703125
,72.083328,2.75390625
,72.104139,2.8759765625
,72.1091159,2.978515625
,72.1304977,3.037109375
,72.1644043,3.0859375
,72.1846139,3.1005859375
,72.1922453,3.10546875
,72.2078192,3.0712890625
,72.24363,3.0322265625
,72.2484858,2.96875
,72.2672067,2.9150390625
,72.3042342,2.8515625
,72.3085386,2.7978515625
,72.3443813,2.734375
,72.3747636,2.685546875
,72.3752727,2.6171875
,72.3882057,2.5732421875
,72.4253788,2.509765625
,72.4279368,2.470703125
,72.4672684,2.4169921875
,72.4881876,2.3681640625
,72.490742,2.32421875
,72.5247104,2.2802734375
,72.5453822,2.2314453125
,72.5456466,2.1923828125
,72.5927378,2.1875
,72.5929811,2.177734375
,72.6149673,2.1630859375
,72.6294796,2.16796875
,72.6506924,2.2412109375
,72.6864917,2.3583984375
,72.6909202,2.5048828125
,72.7081219,2.63671875
,72.7473504,2.7783203125
,72.7478086,2.900390625
,72.7692148,2.9833984375
,72.8085717,3.0615234375
,72.8374715,3.1103515625
,72.8377243,3.1494140625
,72.8517419,3.1396484375
,72.9002941,3.115234375
,72.9006188,3.0615234375
,72.9211159,2.998046875
,72.9287427,2.919921875
,72.9500954,2.8564453125
,72.9927649,2.79296875
,72.9930108,2.7392578125
,73.0103868,2.6806640625
,73.0542964,2.626953125
,73.054695,2.5634765625
,73.1010449,2.5146484375
,73.1013511,2.4609375
,73.1092502,2.4072265625
,73.1308159,2.3583984375
,73.1657204,2.314453125
,73.1689925,2.275390625
,73.1905638,2.2314453125
,73.2258279,2.2021484375
,73.2317382,2.177734375
,73.2721525,2.1484375
,73.2723976,2.12890625
,73.2896824,2.1240234375
,73.3256892,2.158203125
,73.3313095,2.2705078125
,73.3500832,2.412109375
,73.3848171,2.5537109375
,73.4064626,2.705078125
,73.4117354,2.822265625
,73.4487145,2.9248046875
,73.449031,3.0029296875
,73.4690675,3.076171875
,73.5052218,3.1103515625
,73.5101291,3.1298828125
,73.5452888,3.1103515625
,73.550154,3.0712890625
,73.5841369,3.0126953125
,73.6038063,2.9638671875
,73.6089646,2.8955078125
,73.6443261,2.8466796875
,73.649641,2.7392578125
,73.6923287,2.7001953125
,73.6927137,2.646484375
,73.7119675,2.6025390625
,73.7467695,2.5537109375
,73.752418,2.5
,73.8046098,2.451171875
,73.8048542,2.3974609375
,73.8138799,2.3486328125
,73.8293322,2.3046875
,73.8657924,2.275390625
,73.8699977,2.2314453125
,73.9063478,2.20703125
,73.9265111,2.177734375
,73.9319669,2.1533203125
,73.9756345,2.119140625
,73.976034,2.1044921875
,73.9897868,2.109375
,74.0365801,2.2021484375
,74.0371091,2.3486328125
,74.0512117,2.48046875
,74.0718411,2.6220703125
,74.1080068,2.7490234375
,74.1111331,2.87109375
,74.1504893,2.94921875
,74.1534021,3.0126953125
,74.1694667,3.0419921875
,74.2051013,3.06640625
,74.2254768,3.0517578125
,74.2305205,3.0224609375
,74.2677915,2.9638671875
,74.2710286,2.9052734375
,74.3080799,2.8369140625
,74.3140208,2.7783203125
,74.3286823,2.71484375
,74.3635835,2.6806640625
,74.3929195,2.6318359375
,74.3931607,2.5830078125
,74.4108467,2.5341796875
,74.4452015,2.48046875
,74.4659114,2.44140625
,74.4737694,2.4072265625
,74.5086419,2.373046875
,74.5133719,2.333984375
,74.5492631,2.294921875
,74.5496794,2.255859375
,74.5837808,2.2265625
,74.6039784,2.216796875
,74.6128801,2.2119140625
,74.6548443,2.197265625
,74.6552427,2.1875
,74.67505,2.2314453125
,74.694613,2.32421875
,74.7310375,2.4658203125
,74.7314807,2.59765625
,74.7682824,2.744140625
,74.7702217,2.8564453125
,74.8042032,2.958984375
,74.8248452,3.0224609375
,74.8335189,3.076171875
,74.8731084,3.1005859375
,74.8733526,3.1103515625
,74.8899882,3.0810546875
,74.926759,3.0419921875
,74.9310523,2.98828125
,74.9806733,2.9345703125
,74.9810673,2.8759765625
,75.0109519,2.83203125
,75.0112,2.783203125
,75.048626,2.734375
,75.0730733,2.6806640625
,75.0733331,2.6318359375
,75.1086642,2.587890625
,75.111715,2.5439453125
,75.1499068,2.509765625
,75.1523485,2.4658203125
,75.1980241,2.421875
,75.19841,2.3828125
,75.2195037,2.3486328125
,75.2356561,2.314453125
,75.2770344,2.2314453125
,75.2774416,2.2119140625
,75.2930492,2.216796875
,75.3400371,2.2509765625
,75.3404363,2.32421875
,75.3538026,2.4658203125
,75.4015955,2.59765625
,75.4018488,2.7490234375
,75.4163193,2.861328125
,75.463443,2.9736328125
,75.4637956,3.046875
,75.4741325,3.125
,75.4932299,3.1591796875
,75.531797,3.1884765625
,75.5321278,3.173828125
,75.571672,3.1396484375
,75.5742779,3.0810546875
,75.6094657,3.0224609375
,75.6098918,2.9541015625
,75.6488687,2.9248046875
,75.66856,2.8857421875
,75.673289,2.8369140625
,75.7095467,2.7880859375
,75.7120833,2.7392578125
,75.7573876,2.6904296875
,75.7577296,2.6416015625
,75.786672,2.587890625
,75.7922816,2.529296875
,75.8320688,2.490234375
,75.8323175,2.451171875
,75.8664638,2.412109375
,75.8873274,2.373046875
,75.8952269,2.3486328125
,75.9448846,2.314453125
,75.9452831,2.28515625
,75.9548455,2.2705078125
,75.9713765,2.265625
,76.0071979,2.3486328125
,76.0282502,2.4755859375
,76.0328273,2.6416015625
,76.0693475,2.7685546875
,76.1015234,2.91015625
,76.1017687,3.0126953125
,76.1164226,3.115234375
,76.1347552,3.173828125
,76.1698354,3.22265625
,76.1901176,3.232421875
,76.1931013,3.2373046875
,76.2392252,3.2177734375
,76.2395944,3.1689453125
,76.2633708,3.10546875
,76.2758882,3.0419921875
,76.3176911,2.978515625
,76.3178912,2.9150390625
,76.354115,2.8564453125
,76.3545698,2.7978515625
,76.3735262,2.744140625
,76.3962754,2.7001953125
,76.415767,2.6513671875
,76.435409,2.6025390625
,76.4551853,2.5537109375
,76.4901624,2.509765625
,76.5118751,2.4609375
,76.5121258,2.421875
,76.5474683,2.392578125
,76.5676975,2.3583984375
,76.5736204,2.32421875
,76.6097132,2.3046875
,76.6138232,2.2705078125
,76.6491373,2.2509765625
,76.6712924,2.255859375
,76.675374,2.3291015625
,76.6926253,2.451171875
,76.7392436,2.6123046875
,76.7396399,2.75390625
,76.7545074,2.8955078125
,76.8012023,3.0078125
,76.8015691,3.1103515625
,76.8152439,3.173828125
,76.8365392,3.2177734375
,76.8797705,3.2373046875
,76.8800122,3.2373046875
,76.8943712,3.203125
,76.9142628,3.1640625
,76.9479974,3.1103515625
,76.9686505,3.037109375
,76.9761194,2.9833984375
,76.9947824,2.919921875
,77.0307472,2.861328125
,77.0507899,2.802734375
,77.0563587,2.744140625
,77.0738838,2.685546875
,77.0950656,2.63671875
,77.1442494,2.587890625
,77.1449776,2.5439453125
,77.1755453,2.4951171875
,77.175947,2.4560546875
,77.210538,2.412109375
,77.2159146,2.373046875
,77.2551416,2.3486328125
,77.25541,2.3095703125
,77.2742744,2.2900390625
,77.314547,2.2607421875
,77.3149548,2.24609375
,77.3512917,2.255859375
,77.3573823,2.3388671875
,77.3765774,2.4658203125
,77.4229885,2.6123046875
,77.4232552,2.7392578125
,77.4330794,2.880859375
,77.4553515,2.9736328125
,77.501738,3.0615234375
,77.5019853,3.115234375
,77.5168004,3.154296875
,77.5650696,3.1591796875
,77.5653144,3.1494140625
,77.5759683,3.1103515625
,77.5983419,3.0517578125
,77.6175235,2.958984375
,77.6349968,2.8662109375
,77.6705634,2.8369140625
,77.6756698,2.8076171875
,77.7140205,2.783203125
,77.7142892,2.744140625
,77.7654564,2.705078125
,77.7658572,2.666015625
,77.7969971,2.6171875
,77.7973977,2.5732421875
,77.8153142,2.5439453125
,77.834719,2.5048828125
,77.870292,2.4658203125
,77.9042471,2.44140625
,77.9044944,2.40234375
,77.9162324,2.373046875
,77.9515124,2.34375
,77.9721429,2.3193359375
,77.9744128,2.294921875
,78.0100779,2.32421875
,78.0169629,2.4072265625
,78.0361148,2.5439453125
,78.0760889,2.67578125
,78.0763447,2.8173828125
,78.1211388,2.919921875
,78.1213969,3.017578125
,78.1422867,3.0859375
,78.1546817,3.154296875
,78.1992697,3.18359375
,78.1996636,3.212890625
,78.2159781,3.1982421875
,78.2592972,3.1640625
,78.259544,3.10546875
,78.2781008,3.046875
,78.315109,2.978515625
,78.3155306,2.919921875
,78.3519465,2.87109375
,78.3559829,2.8173828125
,78.3764546,2.763671875
,78.4142453,2.71484375
,78.4146207,2.6611328125
,78.4582158,2.607421875
,78.4585504,2.5634765625
,78.4903217,2.51953125
,78.4988641,2.4658203125
,78.5355129,2.431640625
,78.5359237,2.3828125
,78.5712306,2.3583984375
,78.575561,2.3193359375
,78.6145793,2.294921875
,78.6191526,2.265625
,78.6390246,2.2900390625
,78.6779522,2.3681640625
,78.6781989,2.5
,78.6959918,2.6220703125
,78.7310459,2.7734375
,78.7521307,2.890625
,78.757276,2.998046875
,78.8027145,3.076171875
,78.803111,3.1396484375
,78.8198707,3.1640625
,78.8547417,3.18359375
,78.8577462,3.1689453125
,78.8764308,3.125
,78.9259276,3.0712890625
,78.9262513,3.0126953125
,78.9363378,2.9541015625
,78.9714692,2.8955078125
,78.99148,2.8369140625
,78.9978541,2.7783203125
,79.0330507,2.724609375
,79.0538428,2.666015625
,79.0567169,2.6220703125
,79.0923352,2.568359375
,79.0981947,2.5244140625
,79.1339295,2.4755859375
,79.1386994,2.4267578125
,79.1756126,2.392578125
,79.1803144,2.34375
,79.200033,2.3046875
,79.235245,2.2607421875
,79.2399639,2.236328125
,79.2561712,2.197265625
,79.2907816,2.2119140625
,79.3105719,2.2509765625
,79.3187207,2.3583984375
,79.3624495,2.470703125
,79.3626933,2.6171875
,79.379917,2.7392578125
,79.4254139,2.8564453125
,79.4257043,2.9443359375
,79.4372197,3.037109375
,79.4858546,3.0859375
,79.4861128,3.125
,79.4977851,3.14453125
,79.5341748,3.1201171875
,79.5377703,3.0810546875
,79.5800533,3.0224609375
,79.5803996,2.9638671875
,79.6109594,2.890625
,79.616104,2.841796875
,79.6514883,2.783203125
,79.6719721,2.7294921875
,79.6773703,2.67578125
,79.7116091,2.6220703125
,79.7326101,2.568359375
,79.7401748,2.5341796875
,79.7567022,2.490234375
,79.7963745,2.4560546875
,79.7966788,2.431640625
,79.8445244,2.392578125
,79.8448416,2.3583984375
,79.8688394,2.3193359375
,79.8783438,2.28515625
,79.8995127,2.24609375
,79.9338922,2.2119140625
,79.9554484,2.197265625
,79.9629805,2.1630859375
,79.9780316,2.1875
,80.0253551,2.333984375
,80.0257086,2.470703125
,80.0383159,2.6171875
,80.0866305,2.75390625
,80.0868756,2.8857421875
,80.1005195,2.978515625
,80.1364786,3.0712890625
,80.1419147,3.1298828125
,80.15884,3.154296875
,80.2100118,3.1640625
,80.2105893,3.1396484375
,80.2190418,3.1005859375
,80.2583281,3.037109375
,80.2588448,2.9736328125
,80.303262,2.91015625
,80.3035145,2.8466796875
,80.3159888,2.7880859375
,80.3523491,2.734375
,80.3821584,2.685546875
,80.3824672,2.6318359375
,80.4008773,2.578125
,80.4193871,2.51953125
,80.4612332,2.470703125
,80.4615281,2.4169921875
,80.4920241,2.36328125
,80.4990333,2.3193359375
,80.5377785,2.2900390625
,80.5380287,2.2509765625
,80.5856359,2.2314453125
,80.5859787,2.2021484375
,80.6069215,2.1875
,80.620572,2.16796875
,80.6557363,2.158203125
,80.6561532,2.158203125
,80.6887722,2.24609375
,80.7103265,2.36328125
,80.7191523,2.5
,80.7539456,2.6025390625
,80.7594697,2.744140625
,80.7943451,2.8515625
,80.8203215,2.9248046875
,80.8205653,2.98828125
,80.8574195,3.0224609375
,80.8624692,3.037109375
,80.8780617,3.0224609375
,80.9131342,2.9931640625
,80.9188891,2.9443359375
,80.9557075,2.890625
,80.9603089,2.8369140625
,80.9955561,2.783203125
,81.001694,2.7294921875
,81.0373677,2.685546875
,81.0376679,2.63671875
,81.0862655,2.587890625
,81.0866173,2.5537109375
,81.1158153,2.5048828125
,81.1185718,2.4609375
,81.1633399,2.412109375
,81.1635813,2.3828125
,81.1942641,2.3388671875
,81.2018478,2.2998046875
,81.2180919,2.2509765625
,81.2558109,2.2314453125
,81.2609427,2.2119140625
,81.3035891,2.2119140625
,81.303836,2.197265625
,81.3192471,2.2216796875
,81.3543771,2.28515625
,81.3749839,2.4072265625
,81.3780778,2.51953125
,81.3982031,2.6708984375
,81.4431049,2.802734375
,81.4433611,2.8955078125
,81.4597411,2.978515625
,81.4797236,3.037109375
,81.5149192,3.0810546875
,81.5360841,3.1005859375
,81.542666,3.10546875
,81.5620626,3.076171875
,81.5973608,2.9931640625
,81.618473,2.94921875
,81.6187517,2.9052734375
,81.6616935,2.8564453125
,81.6619419,2.8076171875
,81.698282,2.7587890625
,81.7012654,2.705078125
,81.7239207,2.6611328125
,81.7427812,2.6123046875
,81.7859406,2.5634765625
,81.786338,2.51953125
,81.8160301,2.5
,81.8209909,2.4609375
,81.8623408,2.431640625
,81.8626645,2.3974609375
,81.8994306,2.36328125
,81.904238,2.3291015625
,81.9380113,2.2998046875
,81.9383391,2.2607421875
,81.972908,2.2509765625
,82.0015076,2.265625
,82.0018111,2.34375
,82.0498242,2.4560546875
,82.0501454,2.6025390625
,82.0616096,2.744140625
,82.0825677,2.8515625
,82.1194729,2.958984375
,82.1197395,3.037109375
,82.1396406,3.10546875
,82.1755605,3.14453125
,82.2062458,3.1689453125
,82.206496,3.154296875
,82.2212069,3.125
,82.2582012,3.0712890625
,82.2627576,3.0078125
,82.2788498,2.9443359375
,82.3295782,2.900390625
,82.3298391,2.8466796875
,82.3391341,2.79296875
,82.3761603,2.744140625
,82.3964136,2.6953125
,82.4017939,2.646484375
,82.4385638,2.5927734375
,82.4430883,2.548828125
,82.4788796,2.490234375
,82.4840378,2.44140625
,82.498903,2.392578125
,82.5349131,2.36328125
,82.5556231,2.3291015625
,82.5613308,2.2998046875
,82.5992666,2.2607421875
,82.6296803,2.2314453125
,82.6300913,2.20703125
,82.6446423,2.2216796875
,82.6603747,2.2607421875
,82.7088163,2.3828125
,82.7092173,2.5146484375
,82.739298,2.63671875
,82.7416365,2.7685546875
,82.7864265,2.8759765625
,82.7868184,2.9736328125
,82.8159869,3.0419921875
,82.824411,3.1103515625
,82.8389781,3.134765625
,82.8771589,3.1591796875
,82.8821943,3.1396484375
,82.9033407,3.10546875
,82.9422234,3.0419921875
,82.942469,2.9931640625
,82.9884145,2.9248046875
,82.9888537,2.861328125
,83.0181577,2.8076171875
,83.0214387,2.75390625
,83.065757,2.705078125
,83.066156,2.6611328125
,83.0830467,2.6123046875
,83.1027328,2.5634765625
,83.1367047,2.5146484375
,83.1569863,2.4658203125
,83.1642798,2.4169921875
,83.1996029,2.3779296875
,83.2058697,2.333984375
,83.2216485,2.2900390625
,83.2411213,2.2607421875
,83.2763432,2.2314453125
,83.2958479,2.2119140625
,83.3030542,2.197265625
,83.3401466,2.20703125
,83.3430844,2.255859375
,83.3796304,2.3388671875
,83.3850222,2.4658203125
,83.4005501,2.587890625
,83.4363465,2.7294921875
,83.456421,2.841796875
,83.4633246,2.9443359375
,83.4838331,3.0078125
,83.5191379,3.056640625
,83.5387656,3.0810546875
,83.5450763,3.0810546875
,83.5621928,3.0517578125
,83.5982438,3.02734375
,83.6033566,2.9736328125
,83.6415399,2.919921875
,83.6418038,2.8759765625
,83.6879474,2.822265625
,83.6883616,2.7685546875
,83.7157168,2.7197265625
,83.7257934,2.666015625
,83.7408924,2.6171875
,83.7793207,2.578125
,83.7839337,2.529296875
,83.8023607,2.490234375
,83.8373888,2.4462890625
,83.8574322,2.431640625
,83.862199,2.3974609375
,83.9002581,2.373046875
,83.9051567,2.34375
,83.9254912,2.2802734375
,83.9425897,2.216796875
,83.97713,2.24609375
,83.9972413,2.255859375
,84.0028771,2.28515625
,84.0245422,2.3779296875
,84.0714978,2.5
,84.0719271,2.646484375
,84.0866607,2.7685546875
,84.1078824,2.890625
,84.1230177,2.978515625
,84.142007,3.06640625
,84.1822314,3.1201171875
,84.2135622,3.154296875
,84.2139671,3.1640625
,84.2256247,3.1494140625
,84.2457101,3.10546875
,84.2916431,3.046875
,84.2919186,2.998046875
,84.3125208,2.9296875
,84.3232399,2.8857421875
,84.3586542,2.83203125
,84.3787328,2.7978515625
,84.3839461,2.744140625
,84.4324586,2.7001953125
,84.4327026,2.646484375
,84.453564,2.607421875
,84.4631221,2.548828125
,84.4991993,2.51953125
,84.5021503,2.4755859375
,84.542183,2.4462890625
,84.5424337,2.4072265625
,84.5631242,2.373046875
,84.5997662,2.333984375
,84.6200836,2.32421875
,84.6257768,2.2998046875
,84.6422653,2.294921875
,84.6824833,2.3583984375
,84.6828243,2.48046875
,84.7061631,2.6171875
,84.724068,2.7392578125
,84.7586497,2.8662109375
,84.7799809,2.96875
,84.7873485,3.0517578125
,84.8374912,3.1103515625
,84.8377989,3.1494140625
,84.844125,3.1640625
,84.88556,3.1787109375
,84.8859083,3.154296875
,84.9321214,3.115234375
,84.9323634,3.06640625
,84.9451743,3.0029296875
,84.9796858,2.94921875
,85.0000902,2.890625
,85.0066368,2.8369140625
,85.0229636,2.7783203125
,85.0573999,2.734375
,85.0789428,2.685546875
,85.0843049,2.6416015625
,85.1347962,2.5927734375
,85.1350395,2.5537109375
,85.1461491,2.5048828125
,85.1971586,2.470703125
,85.1975072,2.431640625
,85.2034916,2.40234375
,85.239897,2.3681640625
,85.2474736,2.34375
,85.2662883,2.314453125
,85.2856265,2.28515625
,85.3224439,2.28515625
,85.3267649,2.34375
,85.3662847,2.4609375
,85.3665313,2.5830078125
,85.3846019,2.734375
,85.4302708,2.8564453125
,85.4305167,2.978515625
,85.4460038,3.0615234375
,85.4931995,3.134765625
,85.4935359,3.173828125
,85.5092574,3.203125
,85.5291743,3.193359375
,85.5474532,3.1640625
,85.569185,3.125
,85.5849486,3.0615234375
,85.6062606,3.0078125
,85.6253827,2.9541015625
,85.6642709,2.9052734375
,85.6645376,2.8466796875
,85.7106206,2.7978515625
,85.7109441,2.744140625
,85.741596,2.7001953125
,85.7418543,2.646484375
,85.7887032,2.6025390625
,85.7889471,2.5537109375
,85.8180602,2.5146484375
,85.8268528,2.4755859375
,85.8462822,2.44140625
,85.8972105,2.40234375
,85.8974624,2.3876953125
,85.907883,2.36328125
,85.9254157,2.333984375
,85.9754797,2.314453125
,85.9759009,2.294921875
,85.9871756,2.3095703125
,86.0063235,2.3681640625
,86.0412404,2.4853515625
,86.0610182,2.6123046875
,86.0674424,2.744140625
,86.0843322,2.8564453125
,86.1199059,2.978515625
,86.125417,3.0615234375
,86.1756826,3.134765625
,86.1759407,3.173828125
,86.1876475,3.193359375
,86.2371784,3.193359375
,86.2375128,3.1494140625
,86.2480582,3.095703125
,86.2670363,3.0322265625
,86.3024185,2.939453125
,86.3053157,2.8466796875
,86.3410025,2.8173828125
,86.3462132,2.7783203125
,86.3930815,2.744140625
,86.3933325,2.7001953125
,86.4062948,2.666015625
,86.4426121,2.6123046875
,86.4478288,2.5830078125
,86.4657794,2.5341796875
,86.5031091,2.5048828125
,86.5054857,2.4658203125
,86.5396327,2.44140625
,86.5616343,2.4072265625
,86.5680325,2.373046875
,86.6029196,2.3388671875
,86.6088081,2.3095703125
,86.6444067,2.28515625
,86.644816,2.275390625
,86.690356,2.32421875
,86.6906037,2.431640625
,86.7208835,2.568359375
,86.726698,2.6953125
,86.7637771,2.8125
,86.7682461,2.91015625
,86.8038362,2.9931640625
,86.8043392,3.046875
,86.8458213,3.0908203125
,86.8617514,3.1201171875
,86.864867,3.1103515625
,86.9019518,3.0810546875
,86.9221888,3.0322265625
,86.9273132,2.98828125
,86.963571,2.9345703125
,86.9688681,2.890625
,86.9857742,2.841796875
,87.0329422,2.8076171875
,87.0331874,2.763671875
,87.0462721,2.724609375
,87.0812888,2.67578125
,87.1021433,2.6416015625
,87.1080073,2.59765625
,87.1440039,2.55859375
,87.1494573,2.5146484375
,87.1889804,2.490234375
,87.1892244,2.4609375
,87.2092986,2.4267578125
,87.2427533,2.4072265625
,87.2483274,2.3876953125
,87.2688737,2.36328125
,87.3134819,2.34375
,87.3137375,2.3486328125
,87.3282105,2.4072265625
,87.3635389,2.51953125
,87.3835082,2.6318359375
,87.3852177,2.7685546875
,87.4252283,2.8857421875
,87.4256302,2.9931640625
,87.4616746,3.076171875
,87.4824444,3.134765625
,87.4897454,3.18359375
,87.5248175,3.1982421875
,87.5300073,3.193359375
,87.5463833,3.154296875
,87.5812803,3.125
,87.6028085,3.0615234375
,87.608265,3.0078125
,87.6562477,2.94921875
,87.6564936,2.900390625
,87.6704444,2.8466796875
,87.71576,2.802734375
,87.7161615,2.7490234375
,87.7253289,2.7197265625
,87.7623664,2.6708984375
,87.7936251,2.6318359375
,87.7940389,2.587890625
,87.8079822,2.55859375
,87.8539137,2.5146484375
,87.8542389,2.48046875
,87.8701067,2.4462890625
,87.9057709,2.412109375
,87.9106049,2.3779296875
,87.9265048,2.3583984375
,87.9623632,2.3681640625
,87.9833343,2.412109375
,87.9879131,2.509765625
,88.0248105,2.6220703125
,88.0300433,2.75390625
,88.0507929,2.87109375
,88.0871997,2.9833984375
,88.087623,3.06640625
,88.1230837,3.14453125
,88.1260897,3.2080078125
,88.1636035,3.2275390625
,88.1834931,3.232421875
,88.1884861,3.212890625
,88.2278065,3.173828125
,88.2575701,3.115234375
,88.2583068,3.056640625
,88.2683942,2.98828125
,88.3031996,2.9443359375
,88.3084062,2.890625
,88.3531608,2.841796875
,88.3535259,2.7880859375
,88.3697273,2.744140625
,88.4143615,2.6904296875
,88.4146115,2.646484375
,88.4282063,2.5927734375
,88.4634454,2.5732421875
,88.4698905,2.5439453125
,88.4878758,2.5048828125
,88.5233154,2.470703125
,88.5447914,2.44140625
,88.5494936,2.4072265625
,88.5863138,2.373046875
,88.5907121,2.3486328125
,88.6071262,2.333984375
,88.6327582,2.36328125
,88.6484005,2.392578125
,88.6933852,2.529296875
,88.6936344,2.666015625
,88.7092029,2.8076171875
,88.757597,2.919921875
,88.7579931,3.0224609375
,88.7716997,3.10546875
,88.8051566,3.1494140625
,88.8121355,3.1787109375
,88.8284678,3.1787109375
,88.8665691,3.1787109375
,88.8873816,3.14453125
,88.8900377,3.095703125
,88.9097409,3.0322265625
,88.9454717,2.978515625
,88.9767023,2.919921875
,88.9769973,2.8759765625
,88.9892454,2.8173828125
,89.0257356,2.783203125
,89.0289748,2.734375
,89.0698707,2.685546875
,89.0701152,2.6416015625
,89.1046759,2.59765625
,89.1260041,2.55859375
,89.1322226,2.509765625
,89.1802521,2.470703125
,89.18068,2.431640625
,89.189286,2.4072265625
,89.2239985,2.373046875
,89.2303742,2.34375
,89.2666429,2.314453125
,89.2723462,2.28515625
,89.3069131,2.2607421875
,89.3101583,2.265625
,89.3294652,2.3193359375
,89.3692591,2.44140625
,89.3696767,2.55859375
,89.4168325,2.6806640625
,89.4172309,2.8076171875
,89.4316061,2.890625
,89.4502456,2.96875
,89.4924878,3.017578125
,89.4928923,3.06640625
,89.5135314,3.0712890625
,89.5569635,3.0712890625
,89.5573892,3.037109375
,89.5687075,3.0078125
,89.6044788,2.9541015625
,89.6255002,2.9052734375
,89.6312012,2.8564453125
,89.6679244,2.8076171875
,89.6703129,2.75390625
,89.7062159,2.705078125
,89.7260078,2.65625
,89.7282338,2.6318359375
,89.763543,2.5927734375
,89.7851387,2.548828125
,89.7919755,2.5146484375
,89.8121345,2.4755859375
,89.8461428,2.451171875
,89.8664293,2.412109375
,89.8733304,2.3828125
,89.8891992,2.34375
,89.9241514,2.3291015625
,89.9445708,2.2998046875
,89.9504065,2.2802734375
,89.9864631,2.265625
,89.9909751,2.3095703125
,90.0116295,2.3974609375
,90.0467793,2.5244140625
,90.0673269,2.6611328125
,90.0675783,2.7587890625
,90.1059747,2.87109375
,90.1088369,2.94921875
,90.1470027,3.0224609375
,90.1523533,3.056640625
,90.1714165,3.0859375
,90.2159708,3.076171875
,90.2162925,3.0615234375
,90.2330644,3.0224609375
,90.2783943,2.94921875
,90.2791225,2.900390625
,90.2919898,2.8759765625
,90.3396904,2.841796875
,90.3400986,2.802734375
,90.3508458,2.7587890625
,90.387959,2.724609375
,90.4182421,2.67578125
,90.4185752,2.6318359375
,90.4352869,2.5830078125
,90.4511476,2.5390625
,90.498127,2.5
,90.4983697,2.470703125
,90.5126173,2.44140625
,90.5485796,2.412109375
,90.5534127,2.3828125
,90.5898607,2.3486328125
,90.5922084,2.3291015625
,90.6098881,2.3046875
,90.6446939,2.3046875
,90.6682055,2.3291015625
,90.6729352,2.4169921875
,90.6911606,2.5439453125
,90.732968,2.65625
,90.7333614,2.7734375
,90.7638863,2.87109375
,90.7735689,2.9736328125
,90.7905637,3.0322265625
,90.82729,3.095703125
,90.8562836,3.125
,90.8568267,3.1396484375
,90.8729573,3.1201171875
,90.9179597,3.0908203125
,90.9183549,3.0419921875
,90.9322822,2.9931640625
,90.966501,2.939453125
,90.9690841,2.8955078125
,91.0102372,2.8466796875
,91.010492,2.8173828125
,91.0460554,2.783203125
,91.0659373,2.7392578125
,91.073125,2.7001953125
,91.1084357,2.65625
,91.1129193,2.6123046875
,91.1458857,2.568359375
,91.1665,2.529296875
,91.1693386,2.4853515625
,91.2043944,2.4609375
,91.2245346,2.4267578125
,91.2325941,2.40234375
,91.2788289,2.373046875
,91.2792301,2.3583984375
,91.2944214,2.3388671875
,91.3297144,2.3388671875
,91.3345197,2.40234375
,91.3521079,2.490234375
,91.3864644,2.6171875
,91.3920467,2.7294921875
,91.412584,2.8466796875
,91.4486849,2.9345703125
,91.4541528,3.017578125
,91.4962922,3.06640625
,91.4965415,3.115234375
,91.5128367,3.125
,91.5487095,3.1396484375
,91.5515934,3.115234375
,91.5865289,3.076171875
,91.6059361,3.0224609375
,91.6119075,2.96875
,91.6522099,2.9052734375
,91.6843163,2.861328125
,91.6846431,2.8125
,91.691017,2.7587890625
,91.7294481,2.724609375
,91.7341418,2.6806640625
,91.7526046,2.6416015625
,91.7897644,2.5927734375
,91.7950792,2.55859375
,91.815058,2.51953125
,91.8507308,2.48046875
,91.8551299,2.4365234375
,91.9018997,2.4072265625
,91.902305,2.3681640625
,91.9313883,2.3486328125
,91.9316403,2.3193359375
,91.967245,2.2998046875
,91.98679,2.2900390625
,91.9949956,2.2802734375
,92.0410553,2.3193359375
,92.0413103,2.4267578125
,92.0562774,2.568359375
,92.0724659,2.6806640625
,92.1081817,2.8125
,92.1350253,2.91015625
,92.1354265,3.0029296875
,92.1526078,3.056640625
,92.1885666,3.1005859375
,92.1955457,3.115234375
,92.2302538,3.1103515625
,92.2304962,3.0810546875
,92.2749858,3.0419921875
,92.2752343,2.98828125
,92.2929684,2.9541015625
,92.3385331,2.9052734375
,92.3389334,2.8515625
,92.3547362,2.802734375
,92.3896939,2.75390625
,92.4094685,2.705078125
,92.4119679,2.6611328125
,92.4613099,2.6220703125
,92.461577,2.5830078125
,92.4743483,2.5439453125
,92.5095036,2.5
,92.5158298,2.4560546875
,92.5358263,2.4169921875
,92.5872613,2.392578125
,92.5876342,2.3583984375
,92.5962768,2.2900390625
,92.6184392,2.236328125
,92.6345661,2.2216796875
,92.6796694,2.24609375
,92.679994,2.294921875
,92.6960347,2.3974609375
,92.7158445,2.4951171875
,92.7525178,2.6220703125
,92.7572957,2.7197265625
,92.8030208,2.822265625
,92.8034355,2.890625
,92.8120545,2.9638671875
,92.8633611,2.998046875
,92.8636165,3.02734375
,92.8753348,3.0224609375
,92.9239983,3.0029296875
,92.9242455,2.958984375
,92.9360844,2.9248046875
,92.9729315,2.8759765625
,92.9733267,2.822265625
,93.0096387,2.783203125
,93.0122399,2.744140625
,93.0647249,2.705078125
,93.0651599,2.6611328125
,93.0953902,2.626953125
,93.0956968,2.5927734375
,93.1408863,2.5537109375
,93.1411353,2.5146484375
,93.152735,2.4853515625
,93.1737573,2.451171875
,93.2194261,2.4267578125
,93.2198256,2.3876953125
,93.2404568,2.353515625
,93.2571248,2.3388671875
,93.296086,2.3046875
,93.2965535,2.28515625
,93.312647,2.3046875
,93.3486394,2.40234375
,93.3560278,2.5146484375
,93.3902865,2.646484375
,93.395231,2.744140625
,93.4308133,2.8515625
,93.4524746,2.9248046875
,93.4569578,2.9931640625
,93.4915758,3.0322265625
,93.4972968,3.0615234375
,93.5141231,3.0615234375
,93.5517956,3.0615234375
,93.5716079,3.0224609375
,93.5749552,2.98828125
,93.6151398,2.939453125
,93.6442723,2.8857421875
,93.6445225,2.83203125
,93.6559349,2.783203125
,93.6940577,2.734375
,93.6944539,2.6806640625
,93.7309056,2.646484375
,93.7361233,2.607421875
,93.7558026,2.5634765625
,93.7889731,2.5244140625
,93.8110636,2.4755859375
,93.8178337,2.4365234375
,93.8627609,2.40234375
,93.8630704,2.3681640625
,93.874294,2.34375
,93.9242985,2.32421875
,93.9248045,2.2998046875
,93.9352838,2.28515625
,93.9691252,2.294921875
,93.9902094,2.3681640625
,93.9975195,2.4658203125
,94.0324522,2.5830078125
,94.0327721,2.6904296875
,94.069246,2.8076171875
,94.0885906,2.8955078125
,94.095624,2.98828125
,94.1160947,3.0419921875
,94.1540951,3.0859375
,94.1571744,3.1005859375
,94.1942792,3.0908203125
,94.1988524,3.0517578125
,94.2477681,3.017578125
,94.248033,2.9638671875
,94.254785,2.900390625
,94.2943503,2.8564453125
,94.3149844,2.8125
,94.3159383,2.763671875
,94.3591121,2.71484375
,94.3593567,2.67578125
,94.3774555,2.626953125
,94.4207466,2.578125
,94.4211345,2.5341796875
,94.4358143,2.4951171875
,94.4728507,2.4609375
,94.4775957,2.4267578125
,94.4967331,2.3876953125
,94.5441673,2.353515625
,94.5444221,2.3291015625
,94.5573505,2.2900390625
,94.5929261,2.2607421875
,94.5951774,2.2412109375
,94.6372216,2.275390625
,94.6375794,2.3486328125
,94.6714615,2.4658203125
,94.676465,2.5732421875
,94.7153499,2.6953125
,94.7443163,2.7880859375
,94.7445669,2.8857421875
,94.7536203,2.9443359375
,94.788157,3.0078125
,94.8081984,3.0419921875
,94.8154319,3.056640625
,94.8521978,3.037109375
,94.8575018,3.0126953125
,94.9011832,2.9638671875
,94.9017352,2.91015625
,94.920413,2.8564453125
,94.9395874,2.7978515625
,94.961767,2.7099609375
,94.9775311,2.626953125
,95.0262797,2.6123046875
,95.0266808,2.5830078125
,95.0381675,2.548828125
,95.0733421,2.5048828125
,95.0791463,2.470703125
,95.1163173,2.4267578125
,95.1166723,2.40234375
,95.1367259,2.3583984375
,95.1716451,2.34375
,95.1780164,2.3193359375
,95.2150047,2.2802734375
,95.2154421,2.2509765625
,95.2542367,2.216796875
,95.2591251,2.216796875
,95.2956788,2.2021484375
,95.2985655,2.2412109375
,95.3154061,2.3193359375
,95.3356636,2.4365234375
,95.372855,2.5341796875
,95.3786982,2.65625
,95.4260863,2.7490234375
,95.426335,2.83203125
,95.4379331,2.8857421875
,95.4739419,2.9248046875
,95.4940942,2.9345703125
,95.4966729,2.9541015625
,95.5167764,2.939453125
,95.566507,2.900390625
,95.5668285,2.8564453125
,95.5791918,2.802734375
,95.6287234,2.75390625
,95.6291195,2.705078125
,95.6406405,2.6611328125
,95.6566907,2.6171875
,95.7072906,2.5830078125
,95.7075425,2.548828125
,95.7172578,2.5048828125
,95.7528603,2.4609375
,95.7585545,2.431640625
,95.7956281,2.392578125
,95.7978994,2.353515625
,95.8458581,2.32421875
,95.8461029,2.2900390625
,95.8664669,2.2607421875
,95.8767181,2.2265625
,95.9122023,2.2314453125
,95.9320946,2.2119140625
,95.9377907,2.2119140625
,95.9728348,2.236328125
,95.993375,2.3193359375
,96.0003444,2.4169921875
,96.0477161,2.5341796875
,96.0481151,2.6416015625
,96.0573702,2.75390625
,96.0927153,2.8369140625
,96.098408,2.9052734375
,96.140022,2.939453125
,96.1404134,2.98828125
,96.1603427,3.0029296875
,96.2002241,2.98828125
,96.2004765,2.9541015625
,96.2166179,2.9052734375
,96.253553,2.861328125
,96.2576962,2.8125
,96.293726,2.7734375
,96.3142639,2.7294921875
,96.3193431,2.6806640625
,96.3394413,2.63671875
,96.3733204,2.5830078125
,96.3939485,2.5390625
,96.3970672,2.5048828125
,96.4338423,2.470703125
,96.4382315,2.431640625
,96.4736422,2.4072265625
,96.4786933,2.36328125
,96.4991456,2.3291015625
,96.534473,2.2900390625
,96.5403629,2.2705078125
,96.5921768,2.2314453125
,96.592424,2.2119140625
,96.5978594,2.2021484375
,96.6327117,2.2509765625
,96.6537824,2.3291015625
,96.658088,2.4560546875
,96.6929096,2.55859375
,96.7158581,2.685546875
,96.7205423,2.7783203125
,96.7597113,2.87109375
,96.759956,2.919921875
,96.7784097,2.98828125
,96.8264389,3.0224609375
,96.8267753,3.0322265625
,96.8392564,3.017578125
,96.8883309,2.9833984375
,96.8887301,2.9296875
,96.9024045,2.8759765625
,96.9220988,2.822265625
,96.9370076,2.7685546875
,96.9732954,2.7197265625
,96.9962945,2.6708984375
,96.9966889,2.6220703125
,97.0420544,2.5732421875
,97.0423581,2.5341796875
,97.0715146,2.48046875
,97.0814955,2.44140625
,97.1004581,2.3974609375
,97.1171432,2.353515625
,97.1525061,2.32421875
,97.1728125,2.294921875
,97.1783666,2.275390625
,97.2135835,2.24609375
,97.234093,2.2216796875
,97.242113,2.2021484375
,97.2772143,2.197265625
,97.2776221,2.1923828125
,97.3219308,2.24609375
,97.322399,2.2802734375
,97.342413,2.421875
,97.3584996,2.529296875
,97.3968068,2.6611328125
,97.3986462,2.763671875
,97.4458609,2.8662109375
,97.4461254,2.9443359375
,97.4614553,2.98828125
,97.4975626,3.017578125
,97.497804,3.0224609375
,97.5182703,3.0126953125
,97.569812,2.978515625
,97.5700619,2.9345703125
,97.5801545,2.880859375
,97.6015261,2.8271484375
,97.6473507,2.7734375
,97.6475998,2.724609375
,97.6582625,2.6708984375
,97.6934139,2.6416015625
,97.7139134,2.5927734375
,97.7194334,2.548828125
,97.7574708,2.5048828125
,97.7884599,2.451171875
,97.7887226,2.4072265625
,97.8021863,2.3583984375
,97.8376065,2.32421875
,97.8380348,2.28515625
,97.8753673,2.2509765625
,97.880581,2.2265625
,97.9154841,2.2119140625
,97.920994,2.1923828125
,97.9725469,2.1826171875
,97.9727982,2.1630859375
,97.9809298,2.158203125
,97.9981258,2.1923828125
,98.0340843,2.294921875
,98.038607,2.40234375
,98.074983,2.5244140625
,98.0979486,2.6513671875
,98.1027574,2.744140625
,98.1209287,2.83203125
,98.1580476,2.890625
,98.1632292,2.9296875
,98.2060015,2.9443359375
,98.2063845,2.958984375
,98.2199869,2.9345703125
,98.2550017,2.900390625
,98.2603844,2.8466796875
,98.281427,2.79296875
,98.3153449,2.7392578125
,98.3369414,2.6953125
,98.342598,2.63671875
,98.377798,2.5927734375
,98.4084026,2.5439453125
,98.4087925,2.490234375
,98.4223547,2.451171875
,98.4689733,2.40234375
,98.4692984,2.3583984375
,98.4821149,2.3193359375
,98.5300229,2.2802734375
,98.5302235,2.2314453125
,98.543383,2.1923828125
,98.5585638,2.1630859375
,98.5948839,2.158203125
,98.615699,2.1435546875
,98.6216579,2.12890625
,98.6594942,2.109375
,98.65989,2.0947265625
,98.695119,2.0849609375
,98.7214521,2.12890625
,98.7218556,2.2314453125
,98.7685807,2.34375
,98.7689756,2.470703125
,98.7804836,2.578125
,98.8153772,2.6806640625
,98.8368087,2.763671875
,98.8436539,2.83203125
