fs,t,y
50.590015577191615,0.5129839,1.3720703125
,0.5512731999999998,1.376953125
,0.5519085000000001,1.4208984375
,0.5879715999999999,1.4892578125
,0.6118361000000001,1.5966796875
,0.6162312999999999,1.69921875
,0.6591182,1.8017578125
,0.6596275,1.875
,0.6731234000000001,1.943359375
,0.7083436999999999,1.982421875
,0.7131208999999998,2.001953125
,0.7489735999999998,2.0068359375
,0.7563860999999998,1.9921875
,0.7923257000000001,1.9677734375
,0.7957953,1.9384765625
,0.8455282999999998,1.8994140625
,0.8461547,1.8603515625
,0.8571515999999999,1.826171875
,0.8753079000000001,1.796875
,0.8935892000000001,1.77734375
,0.9301488,1.7529296875
,0.9347348000000002,1.7431640625
,0.9705819999999998,1.728515625
,0.9753474,1.708984375
,1.0121238,1.689453125
,1.0222603000000001,1.6650390625
,1.0340454000000001,1.6357421875
,1.0708191,1.6162109375
,1.0740226000000002,1.5966796875
,1.1143480000000001,1.5673828125
,1.1148866000000002,1.5478515625
,1.1518202,1.5234375
,1.1561808,1.50390625
,1.2051325,1.4794921875
,1.2054999999999998,1.4697265625
,1.2151819000000001,1.4501953125
,1.2506152,1.4404296875
,1.2537922,1.42578125
,1.2914662,1.416015625
,1.3107824,1.40625
,1.3164633000000001,1.416015625
,1.3513932,1.435546875
,1.3721155,1.4990234375
,1.3767185,1.591796875
,1.3940248,1.689453125
,1.4304289,1.7822265625
,1.4358167000000002,1.865234375
,1.4552969999999998,1.9384765625
,1.4927712,1.9775390625
,1.4956499,2.0068359375
,1.5314975999999998,2.0068359375
,1.5365205,1.9970703125
,1.572689,1.97265625
,1.5779383,1.943359375
,1.5941979000000002,1.904296875
,1.6291373,1.875
,1.6491576000000001,1.8408203125
,1.6558388000000002,1.8115234375
,1.6940019,1.7822265625
,1.6971116,1.767578125
,1.7346653,1.748046875
,1.7391383,1.7236328125
,1.7740719999999999,1.7041015625
,1.7746743999999999,1.6796875
,1.8093832,1.66015625
,1.8292334000000001,1.640625
,1.8358907000000002,1.6162109375
,1.8575327000000001,1.5869140625
,1.8931943000000002,1.5625
,1.8986068,1.533203125
,1.9332582,1.513671875
,1.9338715,1.4892578125
,1.971165,1.484375
,1.9756771999999998,1.4697265625
,2.0106165999999996,1.455078125
,2.0317144999999996,1.4453125
,2.0392817,1.42578125
,2.0568571,1.416015625
,2.0960596000000002,1.4013671875
,2.1170007,1.396484375
,2.1175987999999997,1.40625
,2.135801,1.4599609375
,2.1697327,1.5380859375
,2.1924044,1.6455078125
,2.1968742,1.7431640625
,2.2316488999999997,1.845703125
,2.2369844,1.9091796875
,2.2849028999999996,1.97265625
,2.2855273,2.001953125
,2.3049286999999996,2.0166015625
,2.3167104,2.01171875
,2.3523974,2.0166015625
,2.3555392,1.9921875
,2.408721,1.9580078125
,2.4092179,1.9189453125
,2.4170229,1.8798828125
,2.4516715,1.8408203125
,2.4732640000000004,1.8115234375
,2.4809953,1.787109375
,2.4965804,1.7626953125
,2.5165872,1.748046875
,2.5364946,1.728515625
,2.5732871,1.7041015625
,2.5787278999999996,1.6748046875
,2.627454,1.650390625
,2.6278945,1.62109375
,2.6393509,1.591796875
,2.6767114999999997,1.5625
,2.6773133,1.533203125
,2.7131293000000003,1.513671875
,2.7155877999999998,1.4892578125
,2.7521373999999996,1.474609375
,2.7569501,1.455078125
,2.7913778000000002,1.4404296875
,2.8124466999999997,1.4208984375
,2.8202928,1.4111328125
,2.8352161000000002,1.3916015625
,2.8734399,1.3916015625
,2.8784441999999997,1.3818359375
,2.8964634,1.3818359375
,2.9388324,1.4013671875
,2.9394285,1.4599609375
,2.9600635000000004,1.5478515625
,2.9966701000000002,1.66015625
,2.9972675000000004,1.767578125
,3.0340768999999996,1.8505859375
,3.055294,1.923828125
,3.0557758,1.9677734375
,3.0973334,1.9970703125
,3.0979446,2.0068359375
,3.1342717,2.0068359375
,3.1375515,1.9873046875
,3.1736253999999997,1.9580078125
,3.1938888,1.923828125
,3.1989726000000003,1.884765625
,3.2176732,1.845703125
,3.2371485,1.8212890625
,3.2734376000000003,1.796875
,3.2782431,1.77734375
,3.3154016000000004,1.7626953125
,3.3192383999999997,1.73828125
,3.3555278,1.71875
,3.3599841,1.689453125
,3.4070938999999996,1.669921875
,3.4075106,1.6455078125
,3.4281157,1.6259765625
,3.4390809000000004,1.6015625
,3.4745587,1.5771484375
,3.4771466,1.5478515625
,3.5174854,1.5380859375
,3.5499022,1.5185546875
,3.5504783,1.50390625
,3.5553054,1.4794921875
,3.5968381999999997,1.4697265625
,3.5974359,1.455078125
,3.6271685,1.4453125
,3.6380862,1.4306640625
,3.6879247,1.416015625
,3.6882937,1.40625
,3.7086325999999996,1.416015625
,3.7184156,1.455078125
,3.7535795,1.533203125
,3.7803265,1.640625
,3.7808130999999996,1.7333984375
,3.7995916000000003,1.8310546875
,3.8437137999999997,1.8994140625
,3.8441916999999997,1.953125
,3.8605720999999997,1.982421875
,3.9058751999999997,1.9970703125
,3.9063266,1.9921875
,3.9218811999999996,1.9775390625
,3.9594799,1.953125
,3.9600877,1.9140625
,3.9770848,1.8798828125
,4.0135445,1.845703125
,4.0192234,1.8212890625
,4.053338,1.796875
,4.0747803,1.77734375
,4.0799636,1.748046875
,4.1124173,1.7333984375
,4.133285,1.708984375
,4.1377456,1.6943359375
,4.18905,1.669921875
,4.1894957,1.650390625
,4.1999748,1.6162109375
,4.23551,1.591796875
,4.2407208,1.5625
,4.2763104,1.54296875
,4.2816232,1.5185546875
,4.2977441,1.4892578125
,4.3352472,1.474609375
,4.3379906,1.455078125
,4.374306,1.4404296875
,4.3800465,1.42578125
,4.4163974,1.4111328125
,4.4210917,1.4013671875
,4.4554011,1.38671875
,4.4619545,1.3720703125
,4.5037931,1.3671875
,4.5043499,1.38671875
,4.5189051,1.4697265625
,4.5569246,1.5673828125
,4.5601003,1.6796875
,4.5972556,1.787109375
,4.5995614,1.8701171875
,4.6336456,1.9384765625
,4.6550498,1.982421875
,4.6622536,2.0166015625
,4.6782843,2.0263671875
,4.7141266,2.0263671875
,4.7366692,2.0068359375
,4.7396525,1.982421875
,4.7760915,1.943359375
,4.7815047,1.9091796875
,4.8175411,1.875
,4.8215592,1.8408203125
,4.8386449,1.8115234375
,4.8738294,1.796875
,4.8948412,1.7724609375
,4.8998149,1.7578125
,4.9210577,1.7333984375
,4.9564973,1.708984375
,4.9594356,1.6796875
,4.9949498,1.650390625
,5.0163498,1.62109375
,5.0185799,1.5869140625
,5.0549816,1.572265625
,5.0606188,1.54296875
,5.0978617,1.5234375
,5.0984449,1.494140625
,5.1360072,1.4697265625
,5.1418737,1.4453125
,5.1614328,1.4306640625
,5.1833354,1.40625
,5.2186563,1.3720703125
,5.2212016,1.3671875
,5.2561678,1.3525390625
,5.2583189,1.357421875
,5.2935405,1.3720703125
,5.3290694,1.42578125
,5.3296792,1.5087890625
,5.3416322,1.62109375
,5.390574,1.71875
,5.3910886,1.81640625
,5.4196074,1.884765625
,5.420022,1.9482421875
,5.4653605,1.9775390625
,5.4658999,1.9970703125
,5.4811784,1.9970703125
,5.5299124,1.9775390625
,5.5304028,1.953125
,5.5613945,1.9287109375
,5.5620016,1.8994140625
,5.5976345,1.865234375
,5.5982289,1.8408203125
,5.6353838,1.81640625
,5.655105,1.796875
,5.6606286,1.7724609375
,5.6967538,1.7529296875
,5.7170762,1.7333984375
,5.7226892,1.708984375
,5.7384843,1.6845703125
,5.7746995,1.66015625
,5.7801779,1.6357421875
,5.8013333,1.62109375
,5.8373831,1.591796875
,5.8399726,1.5673828125
,5.8748556,1.54296875
,5.8945221,1.513671875
,5.9020674,1.494140625
,5.9525736,1.4697265625
,5.9531679,1.455078125
,5.9609987,1.435546875
,5.99805,1.42578125
,6.0012027,1.416015625
,6.0353592,1.40625
,6.055404599999999,1.396484375
,6.060664299999999,1.4208984375
,6.0970934,1.4599609375
,6.1183879,1.54296875
,6.1216487,1.640625
,6.1577935,1.7431640625
,6.1599635,1.826171875
,6.1946242,1.8994140625
,6.2148565,1.9482421875
,6.222787500000001,1.97265625
,6.260111200000001,1.982421875
,6.2633046,1.97265625
,6.2997633,1.953125
,6.3001244,1.923828125
,6.3355528,1.89453125
,6.3425081,1.8603515625
,6.3896245,1.8310546875
,6.3900744,1.796875
,6.4045611000000005,1.7724609375
,6.4412482,1.748046875
,6.4445633,1.7333984375
,6.4592873,1.7138671875
,6.494153000000001,1.69921875
,6.5173533,1.6845703125
,6.5218051,1.66015625
,6.5604686999999995,1.6357421875
,6.5896416,1.6064453125
,6.5900137,1.5869140625
,6.605153,1.5576171875
,6.62609,1.533203125
,6.6442736,1.50390625
,6.682937600000001,1.46484375
,6.6835106,1.4453125
,6.7135856,1.4404296875
,6.7241763,1.42578125
,6.760443,1.4111328125
,6.7623052,1.396484375
,6.799037,1.3818359375
,6.8038281000000005,1.3671875
,6.8413199,1.3720703125
,6.8461967,1.38671875
,6.8612538,1.435546875
,6.898075,1.533203125
,6.9292117,1.6357421875
,6.9299214,1.748046875
,6.9434048,1.8310546875
,6.9922802,1.9091796875
,6.9928743,1.9580078125
,7.022306499999999,1.9873046875
,7.022678600000001,2.001953125
,7.0417208,2.0068359375
,7.0876699,1.9921875
,7.0885862,1.97265625
,7.1031817,1.9384765625
,7.1470476000000005,1.8994140625
,7.147421700000001,1.8701171875
,7.164103000000001,1.8408203125
,7.2087211,1.8115234375
,7.2090833,1.787109375
,7.221220199999999,1.77734375
,7.2575704000000005,1.7529296875
,7.263590000000001,1.73828125
,7.2994006,1.7138671875
,7.3026631,1.689453125
,7.350392599999999,1.66015625
,7.350871400000001,1.6357421875
,7.3807624,1.6015625
,7.3847469,1.5576171875
,7.403497700000001,1.533203125
,7.4231415,1.5185546875
,7.458276400000001,1.494140625
,7.464285800000001,1.484375
,7.504812599999999,1.46484375
,7.505226499999999,1.4453125
,7.541345400000001,1.4306640625
,7.545370699999999,1.4111328125
,7.5662368,1.396484375
,7.583611899999999,1.3818359375
,7.6175145,1.38671875
,7.623315,1.4013671875
,7.658689900000001,1.4453125
,7.6631347000000005,1.5234375
,7.6984464,1.6259765625
,7.718877900000001,1.728515625
,7.7271146,1.8212890625
,7.743877599999999,1.8896484375
,7.778504,1.9482421875
,7.784898800000001,1.9921875
,7.805459300000001,2.0068359375
,7.825740400000001,2.0068359375
,7.864711399999999,1.9970703125
,7.865076200000001,1.97265625
,7.899957199999999,1.9384765625
,7.9057843000000005,1.904296875
,7.924445800000001,1.8603515625
,7.943057700000001,1.8359375
,7.9886003,1.806640625
,7.9890851000000005,1.7919921875
,8.010205,1.7626953125
,8.0250538,1.748046875
,8.0471071,1.71875
,8.0651246,1.69921875
,8.0864726,1.669921875
,8.1083289,1.6357421875
,8.1263129,1.6015625
,8.1749057,1.58203125
,8.1752869,1.5673828125
,8.1824905,1.5478515625
,8.2216982,1.5234375
,8.2251405,1.50390625
,8.2614962,1.4794921875
,8.2680626,1.4599609375
,8.2869181,1.4453125
,8.302738,1.42578125
,8.3373858,1.416015625
,8.357903,1.4013671875
,8.3649337,1.3916015625
,8.4082729,1.38671875
,8.4086527,1.40625
,8.4260713,1.455078125
,8.4715618,1.5234375
,8.4722622,1.630859375
,8.4831576,1.7236328125
,8.5182204,1.8212890625
,8.548954,1.884765625
,8.5495388,1.9384765625
,8.5664855,1.962890625
,8.6112747,1.982421875
,8.611637,1.9775390625
,8.6279853,1.9677734375
,8.6431513,1.9384765625
,8.6784801,1.9140625
,8.6993544,1.8798828125
,8.7043944,1.8505859375
,8.7392791,1.8212890625
,8.7595133,1.8017578125
,8.7668452,1.7822265625
,8.8021562,1.7578125
,8.8067649,1.73828125
,8.8291895,1.71875
,8.8744983,1.6748046875
,8.8751404,1.650390625
,8.8843322,1.6357421875
,8.9221332,1.6162109375
,8.9429894,1.591796875
,8.9436517,1.5673828125
,8.9827537,1.5380859375
,9.0025556,1.513671875
,9.0093247,1.494140625
,9.0246623,1.4697265625
,9.0758664,1.455078125
,9.0764209,1.4453125
,9.0845914,1.4306640625
,9.1229245,1.416015625
,9.1434205,1.40625
,9.1463033,1.396484375
,9.1872782,1.396484375
,9.216717,1.4208984375
,9.2173802,1.4697265625
,9.2244739,1.572265625
,9.262449,1.6796875
,9.2837758,1.7919921875
,9.2843811,1.8701171875
,9.3206392,1.943359375
,9.3412776,1.982421875
,9.3468059,2.01171875
,9.3635285,2.021484375
,9.4011396,2.0263671875
,9.4043045,2.01171875
,9.4384371,1.9775390625
,9.4589739,1.9384765625
,9.4662284,1.8994140625
,9.4862937,1.8603515625
,9.5261876,1.826171875
,9.526587,1.796875
,9.5467255,1.767578125
,9.5902105,1.7236328125
,9.5905734,1.69921875
,9.620739,1.6845703125
,9.6264821,1.669921875
,9.6640088,1.6552734375
,9.6682454,1.630859375
,9.7029547,1.6064453125
,9.7228477,1.58203125
,9.729191,1.552734375
,9.7641013,1.5234375
,9.7646942,1.494140625
,9.8003801,1.4794921875
,9.8203387,1.4599609375
,9.827788,1.4404296875
,9.8716493,1.416015625
,9.872013,1.396484375
,9.8878288,1.3818359375
,9.9226806,1.3671875
,9.9431112,1.3525390625
,9.9437077,1.357421875
,9.9967376,1.38671875
,9.9973358,1.4599609375
,10.0067547,1.5576171875
,10.0411889,1.669921875
,10.0617117,1.77734375
,10.0675205,1.8505859375
,10.1067159,1.9140625
,10.1071875,1.953125
,10.1369691,1.982421875
,10.1466208,1.9970703125
,10.1823494,1.9970703125
,10.1876666,1.97265625
,10.2301539,1.9482421875
,10.2305482,1.9140625
,10.2646683,1.8798828125
,10.2692696,1.845703125
,10.2891696,1.8017578125
,10.3066573,1.7626953125
,10.3408507,1.7626953125
,10.3627205,1.7578125
,10.3676649,1.7431640625
,10.3884813,1.7236328125
,10.4320648,1.7041015625
,10.4327037,1.6845703125
,10.4494495,1.66015625
,10.4866222,1.6357421875
,10.4870233,1.6064453125
,10.5227226,1.5869140625
,10.5276948,1.5673828125
,10.5729647,1.5478515625
,10.5733308,1.5234375
,10.5880059,1.50390625
,10.6241835,1.484375
,10.6520956,1.4697265625
,10.6524574,1.4501953125
,10.6664082,1.4501953125
,10.7020078,1.4501953125
,10.7284651,1.4453125
,10.7288579,1.46484375
,10.7763554,1.5087890625
,10.776718,1.5966796875
,10.8065216,1.689453125
,10.8072494,1.787109375
,10.851502,1.8603515625
,10.8518638,1.93359375
,10.8669669,1.9775390625
,10.902393,2.001953125
,10.9075539,2.01171875
,10.9440561,2.01171875
,10.9648195,1.9921875
,10.9695879,1.962890625
,11.0054681,1.9287109375
,11.0109633,1.884765625
,11.0477203,1.8310546875
,11.0481071,1.806640625
,11.0843574,1.7919921875
,11.0863171,1.7724609375
,11.1330574,1.7529296875
,11.1334208,1.7333984375
,11.153186,1.71875
,11.1706733,1.6943359375
,11.2064357,1.6748046875
,11.2070242,1.6455078125
,11.2418829,1.6259765625
,11.2621093,1.5966796875
,11.267712,1.5673828125
,11.3050004,1.5380859375
,11.3262939,1.5185546875
,11.3300203,1.4990234375
,11.3522467,1.474609375
,11.3875949,1.4501953125
,11.3882022,1.435546875
,11.4296975,1.4208984375
,11.4303023,1.4111328125
,11.4659465,1.396484375
,11.4706383,1.38671875
,11.5064593,1.396484375
,11.5093758,1.4306640625
,11.5461936,1.5087890625
,11.546775,1.6064453125
,11.5812704,1.71875
,11.6019139,1.8115234375
,11.6105879,1.8896484375
,11.6300115,1.9482421875
,11.6799674,1.982421875
,11.6804105,2.001953125
,11.6919324,2.01171875
,11.7275802,2.01171875
,11.7305729,1.9873046875
,11.7538681,1.943359375
,11.7679411,1.89453125
,11.8043083,1.8798828125
,11.8103744,1.8603515625
,11.8502319,1.8408203125
,11.8507994,1.81640625
,11.8836835,1.8017578125
,11.903347,1.77734375
,11.9106813,1.7578125
,11.9286819,1.728515625
,11.9630084,1.71875
,11.9684192,1.6943359375
,12.0084796,1.6650390625
,12.0088961,1.640625
,12.0447214,1.6162109375
,12.0649088,1.5869140625
,12.0706278,1.5576171875
,12.1161843,1.5283203125
,12.1165497,1.50390625
,12.1370394,1.484375
,12.1509299,1.4697265625
,12.1864094,1.4501953125
,12.1901445,1.435546875
,12.2248897,1.42578125
,12.2291943,1.4111328125
,12.2723595,1.4013671875
,12.2728363,1.416015625
,12.3016591,1.4501953125
,12.3094425,1.5380859375
,12.3452278,1.630859375
,12.3512152,1.73828125
,12.3950295,1.8212890625
,12.3955212,1.89453125
,12.4128863,1.943359375
,12.448124,1.9775390625
,12.4514826,1.9921875
,12.4891307,1.982421875
,12.4895027,1.953125
,12.5240998,1.9482421875
,12.5505527,1.9189453125
,12.5512214,1.8896484375
,12.5989236,1.85546875
,12.5995152,1.826171875
,12.6108372,1.796875
,12.6468902,1.7724609375
,12.6671197,1.7529296875
,12.6696106,1.7333984375
,12.7037225,1.71875
,12.7256938,1.69921875
,12.730683,1.6845703125
,12.7658762,1.66015625
,12.7731189,1.6357421875
,12.8091358,1.611328125
,12.8118254,1.58203125
,12.8271595,1.552734375
,12.8649385,1.5283203125
,12.8706471,1.5087890625
,12.9105507,1.484375
,12.910918,1.474609375
,12.9452267,1.455078125
,12.9728669,1.4404296875
,12.9732399,1.4208984375
,13.0094947,1.416015625
,13.0098801,1.4013671875
,13.0459167,1.396484375
,13.0504218,1.396484375
,13.0857259,1.4306640625
,13.0916414,1.484375
,13.1292144,1.58203125
,13.1345587,1.6748046875
,13.1532624,1.767578125
,13.173931,1.8359375
,13.1933387,1.8798828125
,13.2095399,1.904296875
,13.2456596,1.9482421875
,13.2505241,1.9677734375
,13.299718,1.962890625
,13.3000803,1.9482421875
,13.3192928,1.9189453125
,13.3328766,1.8896484375
,13.3679878,1.85546875
,13.392434,1.826171875
,13.3928028,1.796875
,13.4268024,1.7822265625
,13.4307677,1.767578125
,13.4655574,1.7529296875
,13.4861653,1.728515625
,13.4939228,1.7138671875
,13.5130304,1.6845703125
,13.5636644,1.66015625
,13.5640335,1.6357421875
,13.5693743,1.6064453125
,13.6059092,1.58203125
,13.6109167,1.5576171875
,13.6585169,1.533203125
,13.6588864,1.5087890625
,13.6798935,1.4892578125
,13.692949,1.4697265625
,13.7366838,1.4501953125
,13.7371449,1.435546875
,13.7565421,1.435546875
,13.7731698,1.42578125
,13.7925564,1.416015625
,13.8300338,1.4111328125
,13.8306312,1.40625
,13.8668009,1.416015625
,13.8873512,1.474609375
,13.8942159,1.5576171875
,13.914548,1.6455078125
,13.9350206,1.7236328125
,13.9523012,1.7919921875
,13.9874875,1.875
,13.9923191,1.9287109375
,14.013269600000001,1.9677734375
,14.0506059,1.982421875
,14.0551487,1.982421875
,14.0736937,1.9677734375
,14.1078197,1.943359375
,14.1280648,1.904296875
,14.1324951,1.875
,14.1675407,1.8408203125
,14.1725909,1.8115234375
,14.2071991,1.7919921875
,14.213740300000001,1.767578125
,14.2497525,1.7529296875
,14.254152099999999,1.7333984375
,14.2984304,1.71875
,14.299025,1.6943359375
,14.3198583,1.6748046875
,14.332041400000001,1.6552734375
,14.3665366,1.6259765625
,14.3882884,1.6015625
,14.393290100000002,1.572265625
,14.4152986,1.54296875
,14.449652100000002,1.513671875
,14.4500232,1.4892578125
,14.4831429,1.474609375
,14.5048447,1.4599609375
,14.5139943,1.4453125
,14.5493657,1.435546875
,14.553793899999999,1.4208984375
,14.5937886,1.4111328125
,14.5941471,1.396484375
,14.614754699999999,1.38671875
,14.6361193,1.376953125
,14.656830800000002,1.376953125
,14.673026,1.40625
,14.708163299999999,1.5087890625
,14.713500199999999,1.62109375
,14.749216100000002,1.728515625
,14.7548128,1.81640625
,14.7916454,1.89453125
,14.794746100000001,1.9482421875
,14.831988200000001,1.982421875
,14.835253900000001,1.9970703125
,14.8520267,1.9970703125
,14.8885739,1.982421875
,14.8936006,1.962890625
,14.912848799999999,1.9287109375
,14.9491664,1.8896484375
,14.9699965,1.8505859375
,14.9747552,1.81640625
,15.010321900000001,1.787109375
,15.011140300000001,1.7626953125
,15.046774800000001,1.748046875
,15.0674207,1.7333984375
,15.072854499999998,1.7138671875
,15.1073943,1.6943359375
,15.128445200000002,1.669921875
,15.135870100000002,1.6455078125
,15.1723852,1.62109375
,15.1753699,1.5966796875
,15.192214199999999,1.5625
,15.229524999999999,1.54296875
,15.250696399999999,1.5185546875
,15.2525644,1.4990234375
,15.292465799999999,1.4794921875
,15.313576600000001,1.46484375
,15.314243000000001,1.4501953125
,15.349477700000001,1.435546875
,15.3718775,1.4208984375
,15.375969399999999,1.38671875
,15.393417199999998,1.357421875
,15.427655999999999,1.3623046875
,15.4491491,1.3623046875
,15.453965700000001,1.3818359375
,15.488816700000001,1.4306640625
,15.5096028,1.50390625
,15.517579300000001,1.6064453125
,15.5527506,1.708984375
,15.555271399999999,1.8017578125
,15.5749466,1.865234375
,15.6178652,1.923828125
,15.618256800000001,1.953125
,15.664302500000002,1.97265625
,15.6646784,1.962890625
,15.674015099999998,1.953125
,15.7117109,1.923828125
,15.7160936,1.8896484375
,15.7328699,1.8505859375
,15.7745785,1.8212890625
,15.775044099999999,1.796875
,15.794640399999999,1.787109375
,15.828810099999998,1.7724609375
,15.8498369,1.7529296875
,15.855093199999999,1.73828125
,15.8906314,1.71875
,15.911097600000002,1.69921875
,15.914318699999999,1.6796875
,15.9473706,1.66015625
,15.9530721,1.630859375
,15.988683000000002,1.6015625
,16.0086838,1.5771484375
,16.0169597,1.552734375
,16.0349055,1.5283203125
,16.0733179,1.5087890625
,16.073987,1.484375
,16.0965317,1.4697265625
,16.1173906,1.435546875
,16.1344281,1.4013671875
,16.1791816,1.40625
,16.1798431,1.396484375
,16.1946717,1.396484375
,16.241225,1.3818359375
,16.2422139,1.3818359375
,16.2720115,1.396484375
,16.2805317,1.4453125
,16.2939645,1.5283203125
,16.3287168,1.6455078125
,16.35063,1.7431640625
,16.3553349,1.8359375
,16.3951291,1.904296875
,16.395717,1.953125
,16.4310145,1.9775390625
,16.4512379,1.9921875
,16.4583316,1.9921875
,16.4761947,1.9677734375
,16.5234954,1.9482421875
,16.5241906,1.9140625
,16.5365696,1.8798828125
,16.573509,1.8408203125
,16.5763442,1.8115234375
,16.6123602,1.787109375
,16.6180342,1.7626953125
,16.6351097,1.7431640625
,16.6713159,1.728515625
,16.6744792,1.708984375
,16.708901,1.6943359375
,16.7297218,1.669921875
,16.7357614,1.6455078125
,16.7846421,1.62109375
,16.7850124,1.591796875
,16.797777,1.5673828125
,16.8163503,1.5380859375
,16.8391166,1.4990234375
,16.855802,1.4599609375
,16.8903951,1.455078125
,16.8977852,1.4453125
,16.9326031,1.435546875
,16.9381748,1.4208984375
,16.9585863,1.4111328125
,16.9787989,1.396484375
,17.0142683,1.38671875
,17.0148327,1.3720703125
,17.0501584,1.376953125
,17.0553744,1.3916015625
,17.093031,1.4501953125
,17.0961991,1.54296875
,17.1324236,1.6455078125
,17.1375841,1.7529296875
,17.1574465,1.8408203125
,17.1924286,1.9091796875
,17.222703,1.9580078125
,17.2230691,1.9970703125
,17.23533,2.0166015625
,17.2700281,2.0166015625
,17.291504,2.001953125
,17.2965296,1.97265625
,17.3321869,1.9384765625
,17.3535698,1.904296875
,17.3541278,1.8701171875
,17.3951303,1.8408203125
,17.3957353,1.8212890625
,17.4438472,1.7919921875
,17.4442781,1.7724609375
,17.4734781,1.7431640625
,17.4767938,1.7236328125
,17.513969,1.6943359375
,17.5192001,1.669921875
,17.5356953,1.640625
,17.5604217,1.62109375
,17.5765827,1.5673828125
,17.6130691,1.552734375
,17.6162484,1.5283203125
,17.6512841,1.5087890625
,17.6719826,1.484375
,17.6774372,1.46484375
,17.7112292,1.4453125
,17.7315191,1.4306640625
,17.737979,1.416015625
,17.7569023,1.396484375
,17.8012942,1.3916015625
,17.8018405,1.3818359375
,17.8172845,1.3720703125
,17.8533638,1.3671875
,17.8577952,1.38671875
,17.8945829,1.42578125
,17.9001293,1.50390625
,17.9154758,1.6015625
,17.954671,1.71875
,17.9752754,1.8115234375
,17.978177,1.89453125
,18.0146515,1.943359375
,18.0178299,1.9775390625
,18.0631925,2.001953125
,18.0637796,1.9970703125
,18.0794302,1.982421875
,18.0960192,1.953125
,18.131744,1.9287109375
,18.1524103,1.8896484375
,18.1576448,1.85546875
,18.191831,1.826171875
,18.2125866,1.796875
,18.2183662,1.767578125
,18.2542971,1.748046875
,18.2546531,1.7236328125
,18.2810535,1.708984375
,18.2973229,1.6650390625
,18.3314902,1.6552734375
,18.3528536,1.6357421875
,18.3596127,1.6259765625
,18.3966029,1.6064453125
,18.3995782,1.5869140625
,18.4364968,1.5673828125
,18.4419722,1.5478515625
,18.4610395,1.5283203125
,18.4780856,1.50390625
,18.5131867,1.494140625
,18.5185436,1.4794921875
,18.5614479,1.4599609375
,18.5621236,1.4501953125
,18.5790128,1.435546875
,18.6159833,1.4208984375
,18.6211974,1.4111328125
,18.6387624,1.4013671875
,18.6755166,1.416015625
,18.6776092,1.46484375
,18.7139732,1.5380859375
,18.7196941,1.640625
,18.7549544,1.73828125
,18.7601198,1.8310546875
,18.7958192,1.8896484375
,18.825575,1.9384765625
,18.8259582,1.9580078125
,18.8369363,1.97265625
,18.8732194,1.97265625
,18.8786687,1.962890625
,18.9195591,1.93359375
,18.9200319,1.8994140625
,18.939621,1.865234375
,18.9813409,1.8310546875
,18.9817199,1.796875
,18.9964556,1.77734375
,19.0330015,1.7578125
,19.0386993,1.7138671875
,19.0592968,1.7041015625
,19.1079422,1.689453125
,19.1084047,1.6748046875
,19.1274154,1.6552734375
,19.1416587,1.6357421875
,19.1768453,1.6064453125
,19.1801783,1.58203125
,19.1983603,1.552734375
,19.2335893,1.5380859375
,19.2660306,1.5087890625
,19.2665891,1.494140625
,19.2811639,1.4697265625
,19.3004336,1.4501953125
,19.3345575,1.4404296875
,19.355613,1.4208984375
,19.3631687,1.40625
,19.3786229,1.3916015625
,19.4137327,1.3916015625
,19.4366375,1.3818359375
,19.4370926,1.38671875
,19.4847841,1.416015625
,19.4852261,1.4794921875
,19.5156139,1.572265625
,19.522367,1.689453125
,19.5390794,1.7822265625
,19.5776712,1.875
,19.5781876,1.9384765625
,19.6151323,1.9873046875
,19.6201643,2.01171875
,19.6555743,2.0263671875
,19.6606431,2.021484375
,19.6949194,1.9970703125
,19.7157492,1.9677734375
,19.7163757,1.93359375
,19.7532181,1.8994140625
,19.772912,1.8359375
,19.7802709,1.81640625
,19.8305058,1.7919921875
,19.8309085,1.7724609375
,19.8405034,1.7529296875
,19.8766261,1.7333984375
,19.8816255,1.708984375
,19.9186723,1.6943359375
,19.9190727,1.669921875
,19.9555926,1.650390625
,19.9598875,1.630859375
,19.9946315,1.6015625
,19.9996603,1.5771484375
,20.0350955,1.54296875
,20.0572853,1.5234375
,20.0622241,1.494140625
,20.0997809,1.474609375
,20.1003608,1.4501953125
,20.1345662,1.4404296875
,20.1394582,1.42578125
,20.1876676,1.4208984375
,20.1882611,1.4013671875
,20.2002423,1.3916015625
,20.2502865,1.38671875
,20.2506447,1.396484375
,20.2819469,1.42578125
,20.2828297,1.5185546875
,20.3002833,1.6259765625
,20.3359145,1.7236328125
,20.3408142,1.826171875
,20.3601041,1.8994140625
,20.3973722,1.953125
,20.4025532,1.982421875
,20.4384194,2.001953125
,20.4390114,2.001953125
,20.4724361,1.9970703125
,20.4933786,1.97265625
,20.5019855,1.9384765625
,20.5370124,1.904296875
,20.5423883,1.8701171875
,20.5762619,1.8408203125
,20.5967855,1.8115234375
,20.6027582,1.7919921875
,20.6424324,1.767578125
,20.6430184,1.7529296875
,20.6610746,1.728515625
,20.6819302,1.7138671875
,20.71647,1.6943359375
,20.7218006,1.6748046875
,20.7655668,1.6455078125
,20.7662659,1.62109375
,20.7842953,1.591796875
,20.8038679,1.5673828125
,20.8210676,1.5380859375
,20.8546437,1.5185546875
,20.8599793,1.4990234375
,20.8955159,1.4794921875
,20.9197184,1.4599609375
,20.9243023,1.4501953125
,20.9659575,1.4404296875
,20.9663247,1.4208984375
,20.9832387,1.4111328125
,21.0018868,1.396484375
,21.0216451,1.40625
,21.0608348,1.4404296875
,21.0614002,1.513671875
,21.0963886,1.611328125
,21.1030037,1.71875
,21.1236078,1.806640625
,21.157672,1.8798828125
,21.1789315,1.9287109375
,21.1821402,1.9677734375
,21.2006498,1.982421875
,21.235769,1.982421875
,21.2574052,1.97265625
,21.2630853,1.943359375
,21.3009712,1.9140625
,21.3017276,1.875
,21.3370244,1.8408203125
,21.3582879,1.806640625
,21.3652397,1.7822265625
,21.3819846,1.7529296875
,21.4035209,1.7431640625
,21.422907,1.7236328125
,21.4573811,1.7138671875
,21.4627605,1.689453125
,21.4959889,1.669921875
,21.5160322,1.6455078125
,21.5251368,1.62109375
,21.5401438,1.591796875
,21.577812,1.572265625
,21.5985005,1.552734375
,21.6037707,1.5234375
,21.6385811,1.4990234375
,21.6431567,1.4794921875
,21.6783975,1.455078125
,21.7016843,1.435546875
,21.7022511,1.4208984375
,21.7213519,1.40625
,21.7568519,1.4013671875
,21.7640935,1.38671875
,21.7821646,1.3818359375
,21.8261169,1.38671875
,21.8266333,1.42578125
,21.8447562,1.4892578125
,21.8647145,1.591796875
,21.8986977,1.7041015625
,21.9196162,1.796875
,21.9218214,1.884765625
,21.9425201,1.9482421875
,21.9778007,1.9970703125
,21.9831123,2.021484375
,22.0197643,2.03125
,22.022941,2.021484375
,22.0600676,2.0068359375
,22.0799187,1.97265625
,22.085768,1.9384765625
,22.1037837,1.89453125
,22.1377611,1.8701171875
,22.1427658,1.8408203125
,22.1766116,1.81640625
,22.1984205,1.7919921875
,22.2061938,1.77734375
,22.2264033,1.7529296875
,22.2608936,1.7236328125
,22.2657738,1.69921875
,22.2832871,1.6796875
,22.3195008,1.6552734375
,22.3248058,1.630859375
,22.3617557,1.6015625
,22.3621178,1.5771484375
,22.3962078,1.5478515625
,22.4175181,1.5234375
,22.4255302,1.494140625
,22.4415889,1.4697265625
,22.4765822,1.4599609375
,22.4963518,1.4404296875
,22.5025404,1.42578125
,22.5366585,1.4111328125
,22.5578791,1.396484375
,22.5660055,1.3818359375
,22.5862232,1.376953125
,22.6227151,1.40625
,22.6230752,1.455078125
,22.6421527,1.5576171875
,22.6813665,1.66015625
,22.6818465,1.7626953125
,22.7198086,1.845703125
,22.7245927,1.9140625
,22.7613073,1.9482421875
,22.7641199,1.9775390625
,22.80071,1.982421875
,22.8232617,1.9921875
,22.8239156,1.9775390625
,22.8601391,1.962890625
,22.8623308,1.9384765625
,22.8979396,1.8994140625
,22.918621,1.8701171875
,22.9241952,1.8408203125
,22.9633661,1.8212890625
,22.9662769,1.796875
,22.9854824,1.7822265625
,23.0019311,1.767578125
,23.0415517,1.7529296875
,23.0618633,1.7333984375
,23.0624986,1.708984375
,23.0986496,1.6796875
,23.1183003,1.650390625
,23.1265692,1.62109375
,23.1631179,1.591796875
,23.1655426,1.5673828125
,23.1847673,1.5380859375
,23.2214822,1.513671875
,23.2220652,1.4990234375
,23.2569774,1.4794921875
,23.2780202,1.4599609375
,23.2853477,1.4453125
,23.3190891,1.4306640625
,23.3387847,1.416015625
,23.3449475,1.40625
,23.3635464,1.4111328125
,23.3994787,1.4453125
,23.4052433,1.513671875
,23.4410093,1.6064453125
,23.4444454,1.708984375
,23.4916429,1.8017578125
,23.4920032,1.8798828125
,23.5125462,1.9384765625
,23.5270458,1.9677734375
,23.5479436,1.9873046875
,23.5636053,1.982421875
,23.5972678,1.982421875
,23.6179188,1.9580078125
,23.6239344,1.923828125
,23.6601243,1.884765625
,23.6827473,1.8505859375
,23.6871927,1.81640625
,23.7267427,1.7919921875
,23.7272875,1.767578125
,23.7454981,1.7578125
,23.7818424,1.73828125
,23.7850385,1.71875
,23.8238431,1.69921875
,23.8243764,1.6748046875
,23.8582994,1.650390625
,23.8790576,1.62109375
,23.8882259,1.5966796875
,23.905345,1.5673828125
,23.9430392,1.5478515625
,23.9435197,1.5234375
,23.9809219,1.50390625
,23.9856789,1.484375
,24.0215691,1.4697265625
,24.0269163,1.455078125
,24.0478297,1.4404296875
,24.065086,1.4208984375
,24.1008707,1.416015625
,24.1039496,1.4013671875
,24.1454581,1.4013671875
,24.1459178,1.416015625
,24.1658948,1.4599609375
,24.1989319,1.5478515625
,24.220592,1.640625
,24.2278096,1.748046875
,24.2760529,1.826171875
,24.2766181,1.8994140625
,24.2864763,1.9482421875
,24.3054099,1.9873046875
,24.3417635,2.001953125
,24.3469153,2.0068359375
,24.3834829,1.9873046875
,24.3864474,1.9580078125
,24.4216334,1.923828125
,24.4269255,1.8896484375
,24.4630901,1.85546875
,24.4947817,1.826171875
,24.4951571,1.8017578125
,24.5050785,1.787109375
,24.5599331,1.7724609375
,24.5605546,1.748046875
,24.5690599,1.728515625
,24.5897661,1.69921875
,24.624024,1.6748046875
,24.6243856,1.6455078125
,24.6590312,1.6259765625
,24.6802918,1.5966796875
,24.687636,1.572265625
,24.7242494,1.54296875
,24.7268522,1.5185546875
,24.7775372,1.4892578125
,24.7781197,1.4697265625
,24.7985513,1.4501953125
,24.8062678,1.4306640625
,24.841419,1.4208984375
,24.8467056,1.40625
,24.881409,1.3916015625
,24.8865474,1.376953125
,24.9226806,1.3720703125
,24.9269925,1.38671875
,24.9639871,1.4404296875
,24.9684389,1.5185546875
,25.0044357,1.630859375
,25.0248462,1.728515625
,25.0252328,1.8310546875
,25.0612879,1.904296875
,25.0667196,1.9580078125
,25.1032403,2.001953125
,25.1336871,2.0068359375
,25.1340484,2.0068359375
,25.1492852,1.9873046875
,25.1823291,1.953125
,25.20325,1.9189453125
,25.2079951,1.8896484375
,25.244288,1.85546875
,25.2490633,1.8212890625
,25.2897777,1.7919921875
,25.2902759,1.7724609375
,25.3097936,1.748046875
,25.3453511,1.728515625
,25.3459206,1.7041015625
,25.3656161,1.689453125
,25.4138488,1.66015625
,25.4143111,1.640625
,25.4270709,1.62109375
,25.4615368,1.591796875
,25.4829911,1.5625
,25.4897094,1.5380859375
,25.524934,1.513671875
,25.5254373,1.494140625
,25.5603922,1.4794921875
,25.5809044,1.46484375
,25.5885943,1.455078125
,25.6334546,1.4404296875
,25.6339568,1.4306640625
,25.6482072,1.416015625
,25.6832901,1.40625
,25.7025582,1.396484375
,25.7114985,1.416015625
,25.7568401,1.4697265625
,25.757251,1.5478515625
,25.7677865,1.6552734375
,25.8022657,1.7529296875
,25.8227341,1.8408203125
,25.8278434,1.904296875
,25.864428,1.9482421875
,25.8693623,1.97265625
,25.9080871,1.9873046875
,25.9085059,1.9775390625
,25.9264428,1.962890625
,25.9607501,1.93359375
,25.9802356,1.904296875
,25.9889972,1.8701171875
,26.0249479,1.8359375
,26.0283641,1.806640625
,26.0636774,1.796875
,26.0846174,1.7822265625
,26.0875175,1.7626953125
,26.1074765,1.7529296875
,26.1275987,1.73828125
,26.1626612,1.7138671875
,26.1844474,1.689453125
,26.1895574,1.66015625
,26.2257699,1.630859375
,26.2549393,1.6015625
,26.255506,1.5673828125
,26.2687426,1.5478515625
,26.3046079,1.5234375
,26.3073014,1.4990234375
,26.3493509,1.474609375
,26.3503441,1.455078125
,26.3795056,1.4404296875
,26.3909675,1.4208984375
,26.4263184,1.4013671875
,26.4307042,1.38671875
,26.4669202,1.3818359375
,26.4885679,1.3720703125
,26.488957,1.40625
,26.5264503,1.4599609375
,26.5295059,1.552734375
,26.5664242,1.6552734375
,26.5692671,1.767578125
,26.6060238,1.845703125
,26.6123547,1.9140625
,26.6281053,1.9580078125
,26.6641753,1.9921875
,26.6689675,2.001953125
,26.7029385,2.001953125
,26.7237913,1.982421875
,26.7318173,1.953125
,26.7692836,1.9189453125
,26.7696652,1.8798828125
,26.8055962,1.8505859375
,26.8260204,1.81640625
,26.8286768,1.8017578125
,26.8656583,1.7822265625
,26.8687085,1.7626953125
,26.9106571,1.748046875
,26.9112346,1.728515625
,26.9427336,1.7041015625
,26.9521149,1.6796875
,26.9668135,1.6552734375
,27.0025658,1.630859375
,27.0238496,1.6064453125
,27.0308241,1.5771484375
,27.0805772,1.5478515625
,27.0809979,1.5185546875
,27.0899859,1.4990234375
,27.1269426,1.474609375
,27.1475603,1.455078125
,27.1524711,1.4306640625
,27.1895029,1.4111328125
,27.1901233,1.3916015625
,27.2091911,1.3818359375
,27.2440236,1.3671875
,27.2519227,1.3720703125
,27.2963392,1.3916015625
,27.2967721,1.4501953125
,27.3136757,1.5380859375
,27.3499894,1.650390625
,27.3505984,1.7578125
,27.3686501,1.8408203125
,27.4030568,1.9189453125
,27.423651,1.9677734375
,27.4302492,1.9970703125
,27.4676223,2.01171875
,27.4875948,2.01171875
,27.4927233,1.9921875
,27.5263027,1.962890625
,27.5309068,1.9287109375
,27.5755875,1.89453125
,27.5762875,1.85546875
,27.5905026,1.8310546875
,27.6406239,1.8017578125
,27.6409873,1.7822265625
,27.6517283,1.7626953125
,27.6727492,1.73828125
,27.7075387,1.7138671875
,27.7079073,1.689453125
,27.7452522,1.669921875
,27.7669889,1.6455078125
,27.7678553,1.6162109375
,27.8031516,1.5869140625
,27.8252866,1.5673828125
,27.8304752,1.5380859375
,27.8509901,1.5087890625
,27.8869558,1.484375
,27.9176094,1.4599609375
,27.9181674,1.4404296875
,27.9293405,1.4306640625
,27.9659272,1.416015625
,27.97054,1.40625
,28.0102226,1.3916015625
,28.0299302,1.376953125
,28.032444,1.3720703125
,28.0726424,1.3818359375
,28.1032529,1.4306640625
,28.1039432,1.5185546875
,28.1107317,1.640625
,28.1308724,1.748046875
,28.1805753,1.8408203125
,28.1812252,1.9140625
,28.1912792,1.9677734375
,28.2280249,1.9970703125
,28.2329112,2.0166015625
,28.2495596,2.01171875
,28.2914093,2.001953125
,28.291926,1.982421875
,28.3265393,1.9482421875
,28.3322679,1.9091796875
,28.3526971,1.875
,28.371909,1.8505859375
,28.4158822,1.8212890625
,28.4163027,1.8017578125
,28.4469852,1.77734375
,28.4516324,1.7626953125
,28.4700241,1.748046875
,28.5032059,1.728515625
,28.5254441,1.7041015625
,28.5316831,1.6748046875
,28.5699507,1.6455078125
,28.5753997,1.611328125
,28.5932418,1.58203125
,28.6286792,1.5576171875
,28.6336137,1.533203125
,28.6517993,1.50390625
,28.6946647,1.484375
,28.6950361,1.46484375
,28.7241147,1.4501953125
,28.7318303,1.4306640625
,28.7693475,1.416015625
,28.7734403,1.4013671875
,28.8170359,1.38671875
,28.81762,1.376953125
,28.8380213,1.40625
,28.852314,1.4599609375
,28.8873519,1.5576171875
,28.8928126,1.6552734375
,28.9133072,1.7626953125
,28.9474453,1.8505859375
,28.9684726,1.9091796875
,28.975638,1.9580078125
,28.9922106,1.982421875
,29.0262869,2.001953125
,29.0308573,2.001953125
,29.0827643,1.982421875
,29.083367,1.953125
,29.1121438,1.9189453125
,29.1125105,1.8798828125
,29.1492254,1.8505859375
,29.1496882,1.8212890625
,29.1860588,1.806640625
,29.1916913,1.787109375
,29.2279029,1.7724609375
,29.2313106,1.748046875
,29.2685466,1.728515625
,29.273742,1.7041015625
,29.3160557,1.6796875
,29.3166461,1.650390625
,29.3458246,1.62109375
,29.3572166,1.591796875
,29.3722212,1.5625
,29.4075498,1.54296875
,29.4120467,1.5185546875
,29.4458328,1.494140625
,29.4672163,1.4697265625
,29.4751829,1.4453125
,29.5098086,1.42578125
,29.5158928,1.416015625
,29.5304454,1.396484375
,29.5673,1.38671875
,29.5880711,1.3818359375
,29.5933511,1.376953125
,29.6290283,1.3916015625
,29.634763,1.4501953125
,29.6543539,1.5478515625
,29.6902356,1.650390625
,29.6962338,1.7578125
,29.7129569,1.8408203125
,29.7507916,1.923828125
,29.7543022,1.97265625
,29.7732175,2.01171875
,29.8090649,2.021484375
,29.8137228,2.021484375
,29.850787,2.001953125
,29.8768865,1.9775390625
,29.8772907,1.9384765625
,29.8933376,1.9091796875
,29.929917,1.8701171875
,29.932653,1.8359375
,29.9698127,1.806640625
,29.9723939,1.77734375
,30.018835199999998,1.7529296875
,30.019296599999997,1.728515625
,30.049304900000003,1.708984375
,30.056693799999998,1.6845703125
,30.091921300000003,1.6552734375
,30.092407,1.630859375
,30.127564800000002,1.6064453125
,30.147646199999997,1.58203125
,30.155402000000002,1.5673828125
,30.191438400000003,1.54296875
,30.1961388,1.5185546875
,30.237239199999998,1.494140625
,30.237752,1.4697265625
,30.2728533,1.4501953125
,30.2732278,1.42578125
,30.3109786,1.4208984375
,30.311344,1.40625
,30.346833699999998,1.4013671875
,30.367648199999998,1.38671875
,30.374691400000003,1.3818359375
,30.424003300000003,1.38671875
,30.4243947,1.4306640625
,30.445009499999998,1.50390625
,30.4548505,1.6162109375
,30.49073,1.71875
,30.4932946,1.81640625
,30.533743800000003,1.8798828125
,30.5623047,1.943359375
,30.562708399999998,1.982421875
,30.578465100000003,1.9970703125
,30.5959414,1.9970703125
,30.6135478,1.982421875
,30.648781200000002,1.9580078125
,30.654758,1.9287109375
,30.6919434,1.89453125
,30.6925899,1.8603515625
,30.734675799999998,1.826171875
,30.735041699999996,1.806640625
,30.7560041,1.77734375
,30.791593300000002,1.7529296875
,30.7966566,1.73828125
,30.812505700000003,1.7138671875
,30.8477716,1.6943359375
,30.8685464,1.6748046875
,30.875805,1.6455078125
,30.910870099999997,1.6162109375
,30.916772199999997,1.5869140625
,30.9528733,1.5625
,30.955582900000003,1.5283203125
,30.991065999999996,1.50390625
,31.0118849,1.4794921875
,31.012321200000002,1.46484375
,31.0487945,1.4404296875
,31.0708567,1.4306640625
,31.0756188,1.40625
,31.124586899999997,1.396484375
,31.1249562,1.3720703125
,31.137544400000003,1.3623046875
,31.154454800000003,1.3525390625
,31.190360400000003,1.3916015625
,31.193380400000002,1.4501953125
,31.228711599999997,1.5380859375
,31.249435499999997,1.650390625
,31.2551445,1.7529296875
,31.2892832,1.8408203125
,31.309927199999997,1.9091796875
,31.317047100000003,1.9580078125
,31.334302700000002,1.9873046875
,31.368292699999998,2.0068359375
,31.389314400000004,2.0068359375
,31.3955349,1.9873046875
,31.416430400000003,1.9580078125
,31.466327200000002,1.9287109375
,31.466910900000002,1.8896484375
,31.496177699999997,1.85546875
,31.496549,1.826171875
,31.543889800000002,1.796875
,31.5443084,1.7724609375
,31.5634229,1.7529296875
,31.5746673,1.73828125
,31.6137742,1.7138671875
,31.614295400000003,1.6943359375
,31.649633199999997,1.669921875
,31.6698016,1.6455078125
,31.6779539,1.6162109375
,31.7121279,1.5966796875
,31.731999000000002,1.5625
,31.7354208,1.5380859375
,31.7559337,1.513671875
,31.792209999999997,1.494140625
,31.796982,1.46484375
,31.8165135,1.4453125
,31.8580927,1.4306640625
,31.858455499999998,1.4111328125
,31.877929799999997,1.4013671875
,31.8955823,1.3818359375
,31.937637600000002,1.376953125
,31.938105200000003,1.376953125
,31.9579984,1.40625
,31.9927226,1.46484375
,31.9983061,1.5625
,32.0464948,1.6650390625
,32.0468523,1.7724609375
,32.0541354,1.85546875
,32.0889801,1.9287109375
,32.1115559,1.9775390625
,32.1160092,2.0068359375
,32.1365268,2.021484375
,32.1711114,2.0166015625
,32.1912407,2.001953125
,32.199279,1.97265625
,32.234496,1.9482421875
,32.2390672,1.9091796875
,32.280653,1.875
,32.281266,1.8408203125
,32.2979088,1.81640625
,32.3434785,1.7919921875
,32.343887,1.77734375
,32.3571811,1.7529296875
,32.4062732,1.728515625
,32.4069492,1.69921875
,32.438131,1.669921875
,32.4387273,1.6357421875
,32.4556955,1.6162109375
,32.500226,1.5869140625
,32.5008263,1.5576171875
,32.5181773,1.5283203125
,32.5533162,1.494140625
,32.5580223,1.4697265625
,32.5941193,1.4404296875
,32.6257855,1.4208984375
,32.626286,1.4013671875
,32.6371093,1.38671875
,32.6879545,1.3720703125
,32.6884223,1.357421875
,32.6979064,1.3427734375
,32.7355328,1.3427734375
,32.7400448,1.3525390625
,32.7591285,1.3916015625
,32.7948026,1.4794921875
,32.7954014,1.58203125
,32.8303589,1.7041015625
,32.8602515,1.8017578125
,32.8607298,1.8896484375
,32.878158,1.943359375
,32.9137309,1.982421875
,32.9196129,1.9970703125
,32.9547994,2.001953125
,32.9600501,1.9873046875
,32.9949716,1.9677734375
,32.995445,1.93359375
,33.0309237,1.904296875
,33.0510532,1.8701171875
,33.0592812,1.8408203125
,33.0928743,1.8115234375
,33.1009815,1.7919921875
,33.1195456,1.7724609375
,33.1598764,1.748046875
,33.1604624,1.728515625
,33.176664,1.708984375
,33.2128908,1.689453125
,33.21792,1.6650390625
,33.2524157,1.6455078125
,33.2733406,1.62109375
,33.2794655,1.591796875
,33.3290381,1.5625
,33.3295179,1.5380859375
,33.3373592,1.5087890625
,33.3734722,1.4892578125
,33.3766046,1.4697265625
,33.3978675,1.455078125
,33.4191601,1.435546875
,33.4404543,1.42578125
,33.4746135,1.40625
,33.4807762,1.3916015625
,33.5184226,1.38671875
,33.5190141,1.3916015625
,33.536777,1.4306640625
,33.5717953,1.4990234375
,33.5920474,1.5966796875
,33.5972819,1.6943359375
,33.6329807,1.7919921875
,33.6535594,1.865234375
,33.6608352,1.9189453125
,33.6809013,1.953125
,33.7154042,1.97265625
,33.7175915,1.97265625
,33.7529345,1.97265625
,33.7724709,1.953125
,33.779017,1.9189453125
,33.8145213,1.884765625
,33.8203214,1.8505859375
,33.8544106,1.8115234375
,33.8756313,1.787109375
,33.8810136,1.767578125
,33.8986341,1.7431640625
,33.9392328,1.728515625
,33.9397467,1.708984375
,33.9595494,1.689453125
,34.0014866,1.66015625
,34.0019397,1.6357421875
,34.036965,1.6064453125
,34.0416394,1.5771484375
,34.0799613,1.552734375
,34.0803322,1.5234375
,34.114891,1.4990234375
,34.1177905,1.474609375
,34.1541215,1.455078125
,34.1747609,1.435546875
,34.1800787,1.416015625
,34.2199272,1.4013671875
,34.2203702,1.38671875
,34.2405341,1.3720703125
,34.2591947,1.376953125
,34.2786111,1.3671875
,34.313825,1.376953125
,34.3186126,1.396484375
,34.3408349,1.455078125
,34.3778181,1.54296875
,34.382403,1.66015625
,34.4228026,1.7724609375
,34.4233978,1.85546875
,34.4424973,1.9287109375
,34.4583679,1.97265625
,34.5016103,2.0068359375
,34.5020137,2.0263671875
,34.5214673,2.021484375
,34.564882,2.001953125
,34.5652514,1.9677734375
,34.581291,1.93359375
,34.6275903,1.89453125
,34.628087,1.85546875
,34.6571121,1.8359375
,34.6601284,1.8115234375
,34.7050727,1.787109375
,34.7055194,1.767578125
,34.7199494,1.7431640625
,34.755109,1.71875
,34.7757984,1.6943359375
,34.7839321,1.6748046875
,34.8003399,1.640625
,34.8359793,1.62109375
,34.8390444,1.591796875
,34.8755411,1.5673828125
,34.8804251,1.533203125
,34.9158175,1.513671875
,34.9214799,1.4794921875
,34.9595238,1.4599609375
,34.9600491,1.4306640625
,34.9790293,1.416015625
,35.0139018,1.396484375
,35.0190189,1.38671875
,35.0524865,1.3720703125
,35.0748297,1.3525390625
,35.0804734,1.34765625
,35.1229945,1.34765625
,35.1233547,1.376953125
,35.1441613,1.4404296875
,35.1640808,1.54296875
,35.1791715,1.650390625
,35.2141318,1.767578125
,35.2338792,1.8505859375
,35.2421752,1.9189453125
,35.2780917,1.9580078125
,35.2805419,1.9921875
,35.3014321,2.001953125
,35.3377821,1.9970703125
,35.3584842,1.9775390625
,35.3588463,1.943359375
,35.4021045,1.9091796875
,35.402472,1.875
,35.4223934,1.845703125
,35.4422777,1.8115234375
,35.4614632,1.787109375
,35.495565,1.7626953125
,35.5168482,1.7431640625
,35.517398,1.71875
,35.5594164,1.708984375
,35.5797845,1.6845703125
,35.5801521,1.6650390625
,35.620774,1.640625
,35.6211393,1.6162109375
,35.6401925,1.5869140625
,35.6767273,1.5625
,35.6972411,1.5380859375
,35.7001525,1.513671875
,35.7362601,1.494140625
,35.7395698,1.474609375
,35.7787585,1.4501953125
,35.7832386,1.435546875
,35.8184948,1.4208984375
,35.8215565,1.40625
,35.8693532,1.396484375
,35.8697221,1.3818359375
,35.8902174,1.3720703125
,35.9008926,1.376953125
,35.9473103,1.42578125
,35.9479133,1.50390625
,35.9607345,1.611328125
,35.9972512,1.7236328125
,36.0251826,1.8115234375
,36.0257226,1.884765625
,36.0712215,1.9287109375
,36.0715961,1.9580078125
,36.0786966,1.962890625
,36.1136099,1.962890625
,36.1347345,1.9482421875
,36.1417474,1.9189453125
,36.1796052,1.8798828125
,36.1826846,1.845703125
,36.2170016,1.806640625
,36.2373392,1.77734375
,36.2379844,1.748046875
,36.2787239,1.7333984375
,36.3098774,1.7138671875
,36.3102636,1.7138671875
,36.3239493,1.69921875
,36.3575539,1.6845703125
,36.3613605,1.66015625
,36.3957238,1.6357421875
,36.4157156,1.611328125
,36.421287,1.5771484375
,36.4653316,1.5576171875
,36.4659692,1.533203125
,36.4969655,1.5087890625
,36.5031455,1.484375
,36.5427659,1.4599609375
,36.5431356,1.4404296875
,36.5627877,1.42578125
,36.5857557,1.40625
,36.6224385,1.3720703125
,36.6229307,1.3671875
,36.6578233,1.3525390625
,36.6608424,1.3525390625
,36.7026854,1.357421875
,36.7031038,1.3916015625
,36.7231193,1.455078125
,36.7596266,1.5576171875
,36.7651754,1.66015625
,36.785662,1.7724609375
,36.8006951,1.8505859375
,36.8364175,1.9287109375
,36.8423933,1.97265625
,36.8774275,2.001953125
,36.8978371,2.0068359375
,36.9034975,2.001953125
,36.9393039,1.9775390625
,36.9454423,1.9482421875
,36.9824307,1.9091796875
,36.9827989,1.8701171875
,37.0124719,1.845703125
,37.0229116,1.8115234375
,37.0434843,1.787109375
,37.0895701,1.7626953125
,37.0901237,1.748046875
,37.1107318,1.7236328125
,37.1252779,1.69921875
,37.1416358,1.6748046875
,37.1760683,1.650390625
,37.1973177,1.62109375
,37.2027511,1.5966796875
,37.2410565,1.5673828125
,37.2459703,1.5380859375
,37.2659096,1.5087890625
,37.3008527,1.4794921875
,37.3035867,1.455078125
,37.3264162,1.42578125
,37.3631971,1.3916015625
,37.3638343,1.3818359375
,37.4011611,1.376953125
,37.4015901,1.3623046875
,37.4491219,1.34765625
,37.4494851,1.337890625
,37.4697533,1.3330078125
,37.4856915,1.3427734375
,37.5200052,1.376953125
,37.5407313,1.455078125
,37.5436148,1.5625
,37.5786185,1.6748046875
,37.5833593,1.787109375
,37.6197611,1.875
,37.6444549,1.9287109375
,37.6449166,1.9677734375
,37.6808558,1.982421875
,37.7017981,1.9873046875
,37.7022763,1.97265625
,37.7369682,1.9580078125
,37.7572395,1.9287109375
,37.7620916,1.89453125
,37.8000726,1.8603515625
,37.8213328,1.8310546875
,37.8265748,1.8017578125
,37.8474269,1.7919921875
,37.8629122,1.7724609375
,37.8989668,1.7626953125
,37.9039038,1.748046875
,37.9413092,1.728515625
,37.9431264,1.7041015625
,37.9912594,1.6796875
,37.9918146,1.6552734375
,38.0122638,1.62109375
,38.0267845,1.591796875
,38.046201,1.5576171875
,38.0827315,1.513671875
,38.1037919,1.4892578125
,38.1043826,1.474609375
,38.1404465,1.4599609375
,38.1461201,1.4404296875
,38.1964216,1.42578125
,38.1970216,1.4111328125
,38.2076663,1.3916015625
,38.2430941,1.3818359375
,38.2460094,1.3720703125
,38.2652207,1.3720703125
,38.2992165,1.4111328125
,38.3042073,1.474609375
,38.3508021,1.572265625
,38.3513083,1.6796875
,38.3672618,1.787109375
,38.3872132,1.8701171875
,38.423075,1.9287109375
,38.4238688,1.9580078125
,38.4441783,1.982421875
,38.464459,1.982421875
,38.4983551,1.9775390625
,38.518661,1.953125
,38.5253781,1.9189453125
,38.5621341,1.884765625
,38.5671569,1.845703125
,38.6043242,1.81640625
,38.6047782,1.787109375
,38.6556499,1.77734375
,38.6562392,1.7626953125
,38.6651549,1.7431640625
,38.7002506,1.7236328125
,38.7046625,1.708984375
,38.7391054,1.689453125
,38.7596775,1.669921875
,38.7669927,1.640625
,38.8100013,1.591796875
,38.8103914,1.5673828125
,38.8313768,1.552734375
,38.8451647,1.5234375
,38.8665717,1.50390625
,38.9041368,1.484375
,38.9047384,1.46484375
,38.941417,1.4404296875
,38.961494,1.4208984375
,38.967433,1.40625
,39.0024024,1.38671875
,39.0055287,1.3818359375
,39.042147,1.3720703125
,39.045152,1.376953125
,39.0822558,1.3916015625
,39.087264,1.4453125
,39.1215816,1.533203125
,39.1554779,1.6455078125
,39.1558938,1.7529296875
,39.1641203,1.85546875
,39.2030413,1.93359375
,39.2323316,1.9775390625
,39.2327956,2.01171875
,39.2467835,2.021484375
,39.2960995,2.021484375
,39.2966873,2.001953125
,39.3267074,1.97265625
,39.3270834,1.93359375
,39.345577,1.904296875
,39.3801964,1.8701171875
,39.385135,1.845703125
,39.4207563,1.81640625
,39.4271567,1.796875
,39.4627204,1.77734375
,39.4677441,1.7578125
,39.4879801,1.7333984375
,39.5085068,1.6943359375
,39.5296162,1.66015625
,39.5465999,1.6455078125
,39.5817492,1.630859375
,39.5863371,1.6064453125
,39.6069199,1.58203125
,39.6418868,1.552734375
,39.6624887,1.5283203125
,39.6681758,1.50390625
,39.7159123,1.4794921875
,39.7163486,1.455078125
,39.7256675,1.4404296875
,39.7621459,1.4208984375
,39.7666186,1.4111328125
,39.8038378,1.3916015625
,39.8238271,1.376953125
,39.8287449,1.3671875
,39.8492401,1.3623046875
,39.8833435,1.38671875
,39.90479,1.4404296875
,39.905338,1.54296875
,39.9441764,1.650390625
,39.948631,1.7626953125
,39.9683535,1.845703125
,40.0119598,1.9140625
,40.0124311,1.953125
,40.0283074,1.982421875
,40.0449472,1.9873046875
,40.0889174,1.9921875
,40.0892793,1.97265625
,40.1091087,1.943359375
,40.1276805,1.9091796875
,40.1645887,1.875
,40.1668984,1.8408203125
,40.20325,1.8115234375
,40.2231788,1.796875
,40.228763,1.7724609375
,40.2638001,1.7333984375
,40.2848449,1.71875
,40.287928,1.7041015625
,40.3404076,1.6943359375
,40.3409964,1.669921875
,40.3488017,1.6455078125
,40.3876278,1.611328125
,40.3882359,1.5869140625
,40.4232979,1.5625
,40.4425682,1.533203125
,40.4451087,1.513671875
,40.4822919,1.4990234375
,40.4884723,1.474609375
,40.5248857,1.4599609375
,40.5294855,1.435546875
,40.572704,1.4306640625
,40.5733033,1.4111328125
,40.591024,1.4013671875
,40.6073058,1.3818359375
,40.6501502,1.38671875
,40.6506367,1.396484375
,40.6682593,1.435546875
,40.7030752,1.50390625
,40.723764,1.6015625
,40.7291042,1.7041015625
,40.7761986,1.806640625
,40.776792,1.8798828125
,40.7862091,1.943359375
,40.8246618,1.9775390625
,40.8293256,1.9921875
,40.8657029,1.9921875
,40.86613,1.9775390625
,40.9040279,1.9482421875
,40.9085969,1.9140625
,40.9442143,1.8798828125
,40.9638469,1.845703125
,40.9712163,1.796875
,40.9898903,1.7724609375
,41.0408244,1.7626953125
,41.0413506,1.7529296875
,41.050819,1.7431640625
,41.08718,1.728515625
,41.0877779,1.708984375
,41.1210603,1.689453125
,41.1422204,1.6552734375
,41.149973,1.630859375
,41.1675403,1.5966796875
,41.1879181,1.5771484375
,41.2264839,1.54296875
,41.2294417,1.5185546875
,41.2647277,1.4892578125
,41.2703559,1.46484375
,41.2915382,1.4404296875
,41.3275372,1.42578125
,41.3281412,1.40625
,41.3645873,1.396484375
,41.3675943,1.3818359375
,41.4024012,1.3720703125
,41.4214574,1.3623046875
,41.4296092,1.376953125
,41.4636283,1.4111328125
,41.4939594,1.4697265625
,41.4943642,1.5673828125
,41.5083339,1.669921875
,41.5564238,1.7822265625
,41.557098,1.875
,41.5677779,1.9482421875
,41.6042116,1.9873046875
,41.6248769,2.0068359375
,41.6311235,2.0068359375
,41.6510904,1.9970703125
,41.6725809,1.97265625
,41.6906993,1.923828125
,41.7251654,1.875
,41.7276158,1.85546875
,41.774359,1.8359375
,41.7748233,1.81640625
,41.789157,1.796875
,41.835254,1.77734375
,41.8358197,1.7626953125
,41.8513692,1.748046875
,41.8858243,1.728515625
,41.9068812,1.7041015625
,41.9095881,1.6845703125
,41.9446339,1.66015625
,41.9497755,1.640625
,41.9927384,1.611328125
,41.9933868,1.5869140625
,42.0113291,1.5576171875
,42.0475281,1.5283203125
,42.0478954,1.494140625
,42.0827874,1.4794921875
,42.1034113,1.46484375
,42.1102752,1.4453125
,42.1463354,1.4306640625
,42.1506211,1.4111328125
,42.1931495,1.4013671875
,42.1935245,1.3818359375
,42.2285713,1.3818359375
,42.2291671,1.38671875
,42.2718374,1.435546875
,42.2722163,1.513671875
,42.293281,1.62109375
,42.3106594,1.728515625
,42.3448492,1.8310546875
,42.3521483,1.904296875
,42.3966791,1.9580078125
,42.397277,1.9970703125
,42.4121685,2.0068359375
,42.4330945,1.9873046875
,42.4500576,1.962890625
,42.4906764,1.9580078125
,42.4911608,1.93359375
,42.5282548,1.904296875
,42.5335914,1.8701171875
,42.5538182,1.8359375
,42.6014225,1.8115234375
,42.6024701,1.787109375
,42.6089072,1.767578125
,42.6475725,1.7578125
,42.6784594,1.73828125
,42.6791569,1.7138671875
,42.6912871,1.689453125
,42.7269679,1.6650390625
,42.7327643,1.640625
,42.7682036,1.6064453125
,42.7739832,1.5771484375
,42.7889215,1.5478515625
,42.8241698,1.5234375
,42.8468087,1.4990234375
,42.8516063,1.484375
,42.8724547,1.4599609375
,42.9088381,1.4404296875
,42.9121215,1.4208984375
,42.9590154,1.4013671875
,42.9594047,1.38671875
,42.9688394,1.3818359375
,43.0034806,1.3720703125
,43.025094,1.376953125
,43.0316915,1.40625
,43.0672472,1.455078125
,43.071762,1.54296875
,43.1082034,1.6455078125
,43.1133329,1.7578125
,43.1337422,1.8408203125
,43.1545776,1.89453125
,43.1702088,1.9189453125
,43.2140413,1.962890625
,43.2144105,1.97265625
,43.2345373,1.97265625
,43.2531242,1.953125
,43.2741239,1.9287109375
,43.3086577,1.8896484375
,43.3158612,1.8603515625
,43.3327841,1.826171875
,43.3519187,1.8115234375
,43.3886522,1.796875
,43.3909321,1.77734375
,43.4128475,1.7626953125
,43.4489582,1.7431640625
,43.4519795,1.728515625
,43.4744903,1.708984375
,43.5119023,1.6845703125
,43.5123107,1.66015625
,43.5457955,1.640625
,43.5530059,1.6162109375
,43.5718194,1.5869140625
,43.6078773,1.5576171875
,43.6364484,1.5283203125
,43.6371075,1.4990234375
,43.6539077,1.474609375
,43.6898041,1.4501953125
,43.6904843,1.42578125
,43.7294606,1.4111328125
,43.7485452,1.396484375
,43.7531787,1.38671875
,43.7892544,1.3720703125
,43.7917646,1.376953125
,43.8278129,1.3916015625
,43.8494002,1.4501953125
,43.8544281,1.5283203125
,43.8763919,1.62109375
,43.8910768,1.708984375
,43.9304492,1.8212890625
,43.9515017,1.89453125
,43.9520286,1.953125
,43.993839,1.97265625
,43.9942015,1.9921875
,44.0283934,1.9921875
,44.0326154,1.97265625
,44.0731787,1.943359375
,44.0735457,1.9091796875
,44.0932367,1.884765625
,44.1357238,1.85546875
,44.1360985,1.8310546875
,44.1535257,1.8115234375
,44.1990198,1.7919921875
,44.199478,1.767578125
,44.2152642,1.748046875
,44.2305377,1.728515625
,44.2650259,1.7138671875
,44.2863347,1.689453125
,44.2915729,1.6650390625
,44.3266565,1.6357421875
,44.3468172,1.6015625
,44.3533666,1.572265625
,44.4021385,1.5380859375
,44.4027115,1.513671875
,44.4326855,1.484375
,44.4331134,1.4697265625
,44.4787135,1.4501953125
,44.4790805,1.435546875
,44.4948995,1.4208984375
,44.5314269,1.416015625
,44.5360242,1.40625
,44.5709256,1.4013671875
,44.5741324,1.396484375
,44.6090898,1.3916015625
,44.6136207,1.4208984375
,44.6469537,1.5283203125
,44.6517465,1.6455078125
,44.6864119,1.7578125
,44.7189409,1.8603515625
,44.7193196,1.9384765625
,44.7342456,1.9921875
,44.7695862,2.021484375
,44.7900127,2.0361328125
,44.7917128,2.0361328125
,44.8129346,2.0263671875
,44.8478716,2.001953125
,44.853912,1.9677734375
,44.8885512,1.93359375
,44.9097616,1.8994140625
,44.9159456,1.865234375
,44.9362125,1.8310546875
,44.9857934,1.806640625
,44.986162,1.77734375
,44.9927783,1.7626953125
,45.0131405,1.7431640625
,45.0501383,1.7236328125
,45.0797272,1.6943359375
,45.0801825,1.669921875
,45.0957598,1.6357421875
,45.1157979,1.6064453125
,45.1338555,1.5673828125
,45.169171,1.5478515625
,45.1740822,1.5185546875
,45.2189419,1.494140625
,45.2194153,1.4697265625
,45.2333049,1.4501953125
,45.2694607,1.42578125
,45.2770358,1.416015625
,45.3136473,1.4013671875
,45.3183802,1.3818359375
,45.3384488,1.34765625
,45.3529286,1.3232421875
,45.3891551,1.3427734375
,45.3943293,1.3818359375
,45.4283264,1.455078125
,45.4508541,1.5478515625
,45.4554953,1.6650390625
,45.4964097,1.767578125
,45.4971492,1.8603515625
,45.5133527,1.923828125
,45.5597231,1.982421875
,45.5601917,2.0068359375
,45.5746953,2.0166015625
,45.6220046,2.0166015625
,45.6230889,1.9921875
,45.6369446,1.962890625
,45.6728605,1.923828125
,45.675452,1.89453125
,45.6935457,1.85546875
,45.7282887,1.8359375
,45.7333237,1.81640625
,45.7699409,1.796875
,45.7753511,1.77734375
,45.8228279,1.7578125
,45.82341,1.7333984375
,45.8372495,1.7138671875
,45.8534774,1.689453125
,45.8880572,1.6650390625
,45.9086284,1.640625
,45.9126403,1.6162109375
,45.9501596,1.591796875
,45.9819074,1.5576171875
,45.9824946,1.5380859375
,45.9967308,1.513671875
,46.0317152,1.4892578125
,46.0368078,1.46484375
,46.0588009,1.4306640625
,46.0746042,1.396484375
,46.1096289,1.4013671875
,46.1304073,1.396484375
,46.1357785,1.396484375
,46.1706152,1.396484375
,46.191926,1.42578125
,46.1973648,1.484375
,46.2318799,1.5771484375
,46.2382737,1.689453125
,46.2559761,1.7822265625
,46.3076127,1.8701171875
,46.3082243,1.9287109375
,46.31719,1.97265625
,46.3537136,1.9921875
,46.3577045,2.001953125
,46.3919061,1.9921875
,46.3972895,1.9677734375
,46.4134131,1.93359375
,46.448314,1.904296875
,46.4693815,1.8701171875
,46.4773988,1.8408203125
,46.4965634,1.81640625
,46.5309857,1.7919921875
,46.5520409,1.767578125
,46.5578264,1.7578125
,46.6016808,1.7431640625
,46.6022649,1.71875
,46.6141674,1.7041015625
,46.6497067,1.6845703125
,46.6797076,1.66015625
,46.6801622,1.630859375
,46.6966482,1.6064453125
,46.7428709,1.5771484375
,46.7433326,1.552734375
,46.77138,1.5185546875
,46.777306,1.4990234375
,46.7977465,1.455078125
,46.8167434,1.4453125
,46.8676892,1.4306640625
,46.86829,1.4208984375
,46.8758164,1.4111328125
,46.910215,1.4013671875
,46.9311977,1.3916015625
,46.939003,1.3916015625
,46.9586755,1.416015625
,46.9752668,1.46484375
,47.0108047,1.5576171875
,47.0319366,1.6650390625
,47.0368084,1.7724609375
,47.0716576,1.8603515625
,47.0775748,1.93359375
,47.0971362,1.97265625
,47.1310541,2.001953125
,47.1532567,2.01171875
,47.1540138,2.0166015625
,47.1929449,2.001953125
,47.1973787,1.9775390625
,47.2326922,1.943359375
,47.2377759,1.904296875
,47.2728638,1.8701171875
,47.2934549,1.8359375
,47.2995616,1.8115234375
,47.3156167,1.7822265625
,47.3510804,1.767578125
,47.3563311,1.748046875
,47.3936356,1.728515625
,47.3983681,1.7041015625
,47.4176108,1.6748046875
,47.4534173,1.6455078125
,47.4586045,1.6162109375
,47.4747746,1.5869140625
,47.5181793,1.5625
,47.5387512,1.513671875
,47.5393971,1.4697265625
,47.5572838,1.4599609375
,47.5930577,1.4501953125
,47.613418,1.435546875
,47.6185581,1.4208984375
,47.6384842,1.4111328125
,47.6748661,1.3916015625
,47.6951209,1.3818359375
,47.6954924,1.3671875
,47.7383976,1.3720703125
,47.7389829,1.38671875
,47.7688987,1.435546875
,47.7784792,1.513671875
,47.8135098,1.6259765625
,47.8340057,1.728515625
,47.8390083,1.8310546875
,47.8757177,1.904296875
,47.8760956,1.953125
,47.9116358,1.9873046875
,47.9180473,2.0068359375
,47.9566101,2.001953125
,47.9572103,1.9873046875
,48.0007464,1.962890625
,48.0011084,1.9287109375
,48.0227443,1.8896484375
,48.0364571,1.8505859375
,48.0720802,1.826171875
,48.0778728,1.8017578125
,48.1141161,1.787109375
,48.1186642,1.767578125
,48.1569159,1.748046875
,48.1591772,1.7333984375
,48.1955096,1.7138671875
,48.2000245,1.689453125
,48.2177602,1.6650390625
,48.267026,1.650390625
,48.2676213,1.5966796875
,48.2799611,1.58203125
,48.2991835,1.5625
,48.344658,1.5380859375
,48.345299,1.5087890625
,48.3600386,1.494140625
,48.4060401,1.4697265625
,48.4064251,1.4501953125
,48.4274309,1.42578125
,48.4370037,1.416015625
,48.4754543,1.4013671875
,48.4784436,1.3916015625
,48.5139251,1.38671875
,48.5200018,1.4013671875
,48.5550381,1.4501953125
,48.5796422,1.533203125
,48.5800533,1.6357421875
,48.5974467,1.73828125
,48.6330032,1.8359375
,48.6379037,1.904296875
,48.6729044,1.9580078125
,48.6934455,1.9873046875
,48.7003201,1.9970703125
,48.7367142,1.9921875
,48.7396459,1.9775390625
,48.7562652,1.943359375
,48.7923664,1.9140625
,48.8137694,1.8896484375
,48.819367,1.85546875
,48.8398522,1.826171875
,48.8754346,1.8017578125
,48.8810785,1.787109375
,48.9220502,1.7626953125
,48.9225149,1.748046875
,48.9363414,1.7236328125
,48.9723379,1.7041015625
,48.9931455,1.6845703125
,48.9983982,1.6552734375
,49.0331187,1.6259765625
,49.0546682,1.6015625
,49.0603455,1.5673828125
,49.1073531,1.5380859375
,49.1078523,1.5087890625
,49.1202053,1.494140625
,49.1548848,1.4697265625
,49.1758593,1.4453125
,49.1804078,1.42578125
,49.1994118,1.4111328125
,49.2461327,1.396484375
,49.2467195,1.3818359375
,49.2622026,1.3720703125
,49.3084133,1.3671875
,49.3090906,1.38671875
,49.3180168,1.4404296875
,49.3552156,1.5478515625
,49.3857731,1.6552734375
,49.3862502,1.7626953125
,49.4018427,1.8505859375
,49.4495662,1.9189453125
,49.4501698,1.97265625
,49.4615529,1.9970703125
,49.4994297,2.0068359375
,49.500081,2.001953125
,49.5193821,1.9970703125
,49.5577169,1.9677734375
,49.5605724,1.9384765625
,49.6055148,1.904296875
,49.6059192,1.8701171875
,49.6216568,1.8408203125
,49.656509,1.81640625
,49.6569502,1.7919921875
,49.6951881,1.77734375
,49.7025465,1.7578125
,49.7200273,1.73828125
,49.7545197,1.7138671875
,49.7756701,1.689453125
,49.781682,1.66015625
,49.8020969,1.630859375
,49.8376034,1.5966796875
,49.841107,1.5625
,49.8782,1.533203125
,49.8785579,1.4990234375
,49.9151419,1.4794921875
,49.9445874,1.455078125
,49.9451776,1.435546875
,49.9630144,1.416015625
,49.9827518,1.396484375
,50.0182525,1.3818359375
,50.0208218,1.3671875
,50.0401623,1.34765625
,50.0602456,1.34765625
,50.0942476,1.3720703125
,50.1146217,1.42578125
,50.1221072,1.5185546875
,50.1412333,1.62109375
,50.1771352,1.73828125
,50.1967511,1.8212890625
,50.201816,1.89453125
,50.2188538,1.943359375
,50.2541182,1.9775390625
,50.2605639,1.9873046875
,50.2969089,1.9873046875
,50.3027239,1.9677734375
,50.3213881,1.9384765625
,50.3649059,1.8994140625
,50.3653305,1.865234375
,50.3801393,1.8310546875
,50.4255058,1.81640625
,50.4258776,1.796875
,50.441928,1.748046875
,50.4896481,1.7431640625
,50.4902564,1.728515625
,50.5006035,1.708984375
,50.5376711,1.689453125
,50.5577916,1.669921875
,50.563143,1.6455078125
,50.5836039,1.62109375
,50.6010862,1.5869140625
,50.6469498,1.5673828125
,50.6475402,1.54296875
,50.6617116,1.5234375
,50.7079035,1.4990234375
,50.708497,1.4794921875
,50.7223804,1.46484375
,50.7710124,1.4404296875
,50.7715962,1.42578125
,50.8018982,1.40625
,50.8024356,1.4013671875
,50.8375439,1.3916015625
,50.84175,1.396484375
,50.8786042,1.4208984375
,50.881121,1.4892578125
,50.924635,1.572265625
,50.9252894,1.689453125
,50.9551439,1.7822265625
,50.9603214,1.8701171875
,50.9973913,1.9287109375
,51.0023458,1.97265625
,51.0384413,1.9873046875
,51.0414678,1.9970703125
,51.0629848,1.982421875
,51.0999617,1.953125
,51.1044895,1.923828125
,51.1208274,1.884765625
,51.1586357,1.85546875
,51.1590565,1.826171875
,51.1956944,1.806640625
,51.2202908,1.787109375
,51.2208423,1.7724609375
,51.2571376,1.7529296875
,51.2782398,1.7333984375
,51.2848354,1.708984375
,51.3276501,1.689453125
,51.3281102,1.66015625
,51.3417937,1.640625
,51.3755086,1.6162109375
,51.3978353,1.5869140625
,51.4025785,1.5576171875
,51.4525384,1.5234375
,51.4531244,1.4990234375
,51.4839925,1.4697265625
,51.4844419,1.4501953125
,51.5012916,1.42578125
,51.5369637,1.4111328125
,51.5420622,1.396484375
,51.5765235,1.38671875
,51.5972426,1.3671875
,51.6061055,1.357421875
,51.6248642,1.357421875
,51.6701914,1.38671875
,51.6707115,1.4404296875
,51.6812993,1.552734375
,51.732396,1.669921875
,51.7332743,1.77734375
,51.7431711,1.8701171875
,51.7774266,1.93359375
,51.797849,1.982421875
,51.8051099,2.001953125
,51.8414489,2.021484375
,51.8420161,2.0068359375
,51.8772906,1.9970703125
,51.8822198,1.9677734375
,51.9032821,1.9384765625
,51.9387955,1.89453125
,51.9444173,1.865234375
,51.9809963,1.8359375
,52.0015311,1.806640625
,52.0049655,1.7822265625
,52.0448434,1.7529296875
,52.0453936,1.7333984375
,52.0616718,1.708984375
,52.0963796,1.689453125
,52.1165813,1.6650390625
,52.1235,1.640625
,52.1600606,1.611328125
,52.1647094,1.58203125
,52.1998496,1.552734375
,52.2052973,1.5283203125
,52.2216794,1.4990234375
,52.2569847,1.4794921875
,52.2800617,1.4599609375
,52.2846135,1.4404296875
,52.3213114,1.4208984375
,52.323997,1.40625
,52.3576207,1.3916015625
,52.3775145,1.376953125
,52.3866282,1.3623046875
,52.4024887,1.3427734375
,52.4493312,1.357421875
,52.4499394,1.3916015625
,52.4632065,1.4697265625
,52.5009489,1.5673828125
,52.5035063,1.6796875
,52.5393372,1.7822265625
,52.5610619,1.865234375
,52.5615561,1.923828125
,52.5971429,1.9677734375
,52.6035194,1.9921875
,52.6378219,1.9970703125
,52.6454112,1.9873046875
,52.6827389,1.962890625
,52.6831011,1.93359375
,52.7304333,1.8994140625
,52.7308609,1.875
,52.7596669,1.845703125
,52.7653514,1.826171875
,52.7823201,1.8017578125
,52.8163812,1.787109375
,52.8371743,1.7724609375
,52.8445254,1.7529296875
,52.8812774,1.728515625
,52.9032695,1.708984375
,52.9038782,1.6748046875
,52.9405343,1.650390625
,52.9657431,1.611328125
,52.9662294,1.5966796875
,52.9845154,1.5673828125
,53.0060784,1.5380859375
,53.0245691,1.5087890625
,53.0605905,1.4892578125
,53.0653222,1.4697265625
,53.1024767,1.4453125
,53.1080378,1.42578125
,53.1225227,1.4111328125
,53.1568976,1.40625
,53.1795622,1.396484375
,53.1845882,1.3818359375
,53.2215776,1.376953125
,53.2240108,1.396484375
,53.2596715,1.4404296875
,53.2790438,1.5234375
,53.28571,1.6357421875
,53.3055861,1.7333984375
,53.3410662,1.8310546875
,53.3437086,1.8994140625
,53.3787935,1.9580078125
,53.3986392,1.9775390625
,53.4069597,1.9921875
,53.4437746,1.982421875
,53.4491868,1.962890625
,53.467305,1.9287109375
,53.508628,1.89453125
,53.5091711,1.85546875
,53.5299586,1.8310546875
,53.5454475,1.806640625
,53.5660483,1.787109375
,53.6013902,1.7626953125
,53.6075084,1.7529296875
,53.6486553,1.728515625
,53.6492745,1.7041015625
,53.6688954,1.6845703125
,53.683362,1.6552734375
,53.7049399,1.630859375
,53.7407888,1.6015625
,53.7455848,1.5771484375
,53.7828537,1.5478515625
,53.7893341,1.5185546875
,53.8070322,1.4892578125
,53.8414948,1.4599609375
,53.8625203,1.4404296875
,53.8629017,1.42578125
,53.8993918,1.40625
,53.9199164,1.3916015625
,53.9255318,1.3818359375
,53.9466271,1.3623046875
,53.9812151,1.3525390625
,54.001743,1.3427734375
,54.0067914,1.3720703125
,54.0228117,1.416015625
,54.0579067,1.5185546875
,54.0796125,1.630859375
,54.0855616,1.748046875
,54.1060441,1.8359375
,54.1399308,1.9189453125
,54.1611888,1.962890625
,54.1689444,1.9970703125
,54.2046962,2.001953125
,54.2066263,2.001953125
,54.2236144,1.97265625
,54.2680789,1.9580078125
,54.2686324,1.923828125
,54.2988485,1.8896484375
,54.3078598,1.8505859375
,54.3425825,1.826171875
,54.3738884,1.8017578125
,54.3745871,1.7822265625
,54.3914723,1.767578125
,54.4050484,1.7529296875
,54.4416658,1.73828125
,54.4466618,1.71875
,54.4807958,1.69921875
,54.5004071,1.6748046875
,54.5084491,1.6455078125
,54.5466728,1.6162109375
,54.5472032,1.5869140625
,54.5942923,1.5625
,54.5948796,1.5283203125
,54.6074986,1.5087890625
,54.6265932,1.484375
,54.663057,1.46484375
,54.6681291,1.4404296875
,54.688578,1.416015625
,54.7229389,1.396484375
,54.7283853,1.3720703125
,54.7459462,1.357421875
,54.7801092,1.3623046875
,54.8004102,1.376953125
,54.8061402,1.42578125
,54.8433959,1.5087890625
,54.8618092,1.62109375
,54.8673689,1.7236328125
,54.9049214,1.8310546875
,54.9110376,1.9091796875
,54.9460264,1.9580078125
,54.9488487,1.9873046875
,54.9662388,1.9970703125
,54.9992475,2.001953125
,55.020538,1.982421875
,55.0280922,1.9580078125
,55.0723361,1.923828125
,55.0727066,1.8896484375
,55.0887873,1.85546875
,55.122544,1.826171875
,55.1439025,1.8017578125
,55.1444104,1.787109375
,55.1841947,1.7724609375
,55.1887798,1.7578125
,55.228624,1.73828125
,55.229216,1.7138671875
,55.2662423,1.689453125
,55.2692029,1.66015625
,55.2902812,1.6357421875
,55.3079337,1.6015625
,55.3260104,1.5771484375
,55.3607185,1.552734375
,55.3797446,1.5283203125
,55.3868315,1.494140625
,55.42395,1.4697265625
,55.4461544,1.4453125
,55.4503324,1.42578125
,55.4681086,1.4111328125
,55.5075154,1.4013671875
,55.5078974,1.38671875
,55.5265259,1.376953125
,55.5650132,1.3818359375
,55.5695463,1.4111328125
,55.6055756,1.474609375
,55.6090313,1.5625
,55.6479125,1.669921875
,55.648428,1.767578125
,55.6861198,1.85546875
,55.7062756,1.9140625
,55.7082898,1.962890625
,55.7280893,1.982421875
,55.7677757,1.9873046875
,55.7680799,1.9775390625
,55.80175,1.953125
,55.8221164,1.9189453125
,55.8291592,1.884765625
,55.8691287,1.8505859375
,55.8696971,1.8115234375
,55.8883556,1.7919921875
,55.9253873,1.7724609375
,55.9289355,1.7529296875
,55.9690397,1.7333984375
,55.9694964,1.71875
,56.0044385,1.6943359375
,56.0108293,1.669921875
,56.0267823,1.640625
,56.0627115,1.62109375
,56.067565,1.5966796875
,56.112725,1.5673828125
,56.1132907,1.5380859375
,56.1301177,1.5087890625
,56.167154,1.484375
,56.1702477,1.4599609375
,56.207524,1.4404296875
,56.2081279,1.4208984375
,56.2415277,1.4111328125
,56.2624131,1.3916015625
,56.2681295,1.3818359375
,56.3170353,1.3671875
,56.3176217,1.3623046875
,56.3464809,1.376953125
,56.3497328,1.4306640625
,56.3853067,1.5087890625
,56.3910608,1.6162109375
,56.4086319,1.7236328125
,56.4297006,1.8310546875
,56.4637185,1.9091796875
,56.4697188,1.9677734375
,56.5207121,2.001953125
,56.5213315,2.01171875
,56.5315478,2.01171875
,56.5691456,1.9970703125
,56.5724284,1.9677734375
,56.5897791,1.9287109375
,56.6250176,1.8994140625
,56.6297548,1.865234375
,56.6635709,1.8359375
,56.683618,1.806640625
,56.6922097,1.787109375
,56.727224,1.7626953125
,56.7303842,1.7431640625
,56.7476328,1.71875
,56.7835682,1.7041015625
,56.8043541,1.6796875
,56.8093019,1.6650390625
,56.849782,1.6455078125
,56.8503923,1.6162109375
,56.8864713,1.591796875
,56.8910793,1.5625
,56.9271834,1.5380859375
,56.9581579,1.5087890625
,56.9587573,1.4892578125
,56.9686731,1.4697265625
,57.004311,1.455078125
,57.0270532,1.435546875
,57.0311366,1.4208984375
,57.0684399,1.4013671875
,57.0728503,1.38671875
,57.1069801,1.3720703125
,57.1121173,1.38671875
,57.1485903,1.4404296875
,57.1489659,1.513671875
,57.1840695,1.6259765625
,57.2057569,1.728515625
,57.2086756,1.8310546875
,57.2429267,1.8994140625
,57.2646935,1.9482421875
,57.2726128,1.9677734375
,57.2930161,1.9775390625
,57.3098667,1.97265625
,57.3492507,1.9677734375
,57.3498713,1.9384765625
,57.3715385,1.9091796875
,57.4122781,1.875
,57.412794,1.8408203125
,57.45895,1.806640625
,57.4593176,1.787109375
,57.4741904,1.767578125
,57.4894153,1.7431640625
,57.523559,1.7333984375
,57.5439733,1.71875
,57.549226,1.6943359375
,57.5848573,1.669921875
,57.6060702,1.6455078125
,57.6122605,1.62109375
,57.6474289,1.591796875
,57.6480152,1.5673828125
,57.6843968,1.5380859375
,57.6898961,1.5185546875
,57.7108902,1.494140625
,57.7453107,1.4697265625
,57.7663524,1.4501953125
,57.7715758,1.435546875
,57.8069864,1.416015625
,57.8119183,1.40625
,57.8481754,1.3916015625
,57.8698786,1.38671875
,57.8705218,1.38671875
,57.9064124,1.416015625
,57.9112332,1.474609375
,57.9454189,1.5673828125
,57.9679124,1.6650390625
,57.9725135,1.7724609375
,58.0185671,1.845703125
,58.0189966,1.904296875
,58.0298034,1.93359375
,58.0648944,1.9580078125
,58.0712888,1.9580078125
,58.1053557,1.953125
,58.1256741,1.9287109375
,58.1313754,1.8994140625
,58.1673052,1.8603515625
,58.1743494,1.826171875
,58.2210608,1.7919921875
,58.2214539,1.7626953125
,58.2308218,1.7431640625
,58.2675552,1.728515625
,58.2703227,1.7138671875
,58.3055997,1.6943359375
,58.3303861,1.6748046875
,58.3331822,1.6552734375
,58.3773871,1.6357421875
,58.3780507,1.6162109375
,58.3901493,1.5966796875
,58.4266614,1.572265625
,58.4312166,1.5478515625
,58.471818,1.5185546875
,58.4721765,1.4892578125
,58.5189248,1.4697265625
,58.5193555,1.4404296875
,58.5345715,1.4208984375
,58.5691427,1.396484375
,58.5744863,1.376953125
,58.592232,1.3525390625
,58.629746,1.34765625
,58.6327036,1.337890625
,58.6689424,1.34765625
,58.6718934,1.376953125
,58.6942592,1.4453125
,58.7292475,1.5380859375
,58.735126,1.6552734375
,58.755103,1.7626953125
,58.7707669,1.845703125
,58.8159799,1.9140625
,58.8168308,1.953125
,58.8381339,1.9775390625
,58.8524982,1.982421875
,58.8931115,1.9775390625
,58.8937823,1.9580078125
,58.9294858,1.9287109375
,58.9298476,1.89453125
,58.9706377,1.865234375
,58.97121,1.8408203125
,59.0063939,1.8115234375
,59.0267424,1.787109375
,59.0339509,1.7724609375
,59.081216,1.7529296875
,59.0818089,1.7333984375
,59.0956488,1.7138671875
,59.1122937,1.689453125
,59.1481158,1.6748046875
,59.1516187,1.650390625
,59.1902207,1.6259765625
,59.2225473,1.5966796875
,59.2231144,1.5673828125
,59.2348062,1.5380859375
,59.2835834,1.5087890625
,59.284064,1.4794921875
,59.2964189,1.455078125
,59.3107644,1.4306640625
,59.3475475,1.416015625
,59.3515562,1.3916015625
,59.3953547,1.3818359375
,59.3958925,1.3671875
,59.4141549,1.3525390625
,59.4576496,1.3623046875
,59.4580132,1.396484375
,59.4777462,1.474609375
,59.492682,1.5673828125
,59.5347518,1.689453125
,59.535117,1.787109375
,59.5540134,1.8701171875
,59.5912851,1.923828125
,59.5938716,1.9580078125
,59.6315827,1.9677734375
,59.6362816,1.9677734375
,59.6521526,1.953125
,59.6864329,1.9287109375
,59.7086644,1.904296875
,59.7130761,1.8701171875
,59.7486784,1.8359375
,59.7550848,1.8017578125
,59.7752817,1.7822265625
,59.808848,1.7578125
,59.8304661,1.73828125
,59.831065,1.71875
,59.8669003,1.708984375
,59.8874609,1.689453125
,59.8933103,1.6748046875
,59.927739,1.650390625
,59.9484684,1.6259765625
,59.9542782,1.5966796875
,59.9927942,1.572265625
,59.9972434,1.5380859375
,60.016628,1.513671875
,60.0528679,1.484375
,60.0532235,1.455078125
,60.0887508,1.435546875
,60.093015,1.416015625
,60.1294029,1.4013671875
,60.1512369,1.38671875
,60.1556889,1.3720703125
,60.1909055,1.357421875
,60.1948754,1.3525390625
,60.2278369,1.3720703125
,60.232278,1.4208984375
,60.2677446,1.50390625
,60.288705,1.611328125
,60.2956028,1.708984375
,60.331562,1.8017578125
,60.3354896,1.875
,60.371071,1.9189453125
,60.3763214,1.9482421875
,60.393808,1.953125
,60.4398183,1.953125
,60.4404118,1.9384765625
,60.4533604,1.9091796875
,60.4903307,1.8798828125
,60.4967726,1.845703125
,60.5358305,1.81640625
,60.5366351,1.7919921875
,60.552422,1.767578125
,60.5964205,1.7529296875
,60.5968987,1.7333984375
,60.6161555,1.71875
,60.6596192,1.6943359375
,60.6600007,1.6748046875
,60.6743937,1.6552734375
,60.7106368,1.6259765625
,60.7374025,1.5966796875
,60.7377063,1.5673828125
,60.7736401,1.54296875
,60.7742865,1.5185546875
,60.8104854,1.4990234375
,60.8155227,1.474609375
,60.8521125,1.455078125
,60.8565713,1.435546875
,60.8921178,1.416015625
,60.9237512,1.4013671875
,60.9243405,1.4013671875
,60.9340473,1.3916015625
,60.9704062,1.38671875
,60.9746293,1.4013671875
,61.009239,1.435546875
,61.0294924,1.50390625
,61.0365127,1.5966796875
,61.0739833,1.708984375
,61.0767656,1.806640625
,61.1128868,1.8896484375
,61.1410411,1.9482421875
,61.1414156,1.9921875
,61.1570233,2.01171875
,61.1911239,2.0166015625
,61.1952943,2.0068359375
,61.2297054,1.982421875
,61.2519376,1.953125
,61.2594336,1.9140625
,61.2755724,1.875
,61.3124867,1.85546875
,61.3130842,1.8359375
,61.3504213,1.806640625
,61.3551282,1.787109375
,61.3921995,1.767578125
,61.3972475,1.748046875
,61.4383278,1.7236328125
,61.4388566,1.7041015625
,61.4742631,1.6796875
,61.4777199,1.650390625
,61.4951696,1.62109375
,61.5320554,1.591796875
,61.5344378,1.5673828125
,61.5803909,1.5380859375
,61.580816,1.5087890625
,61.6112257,1.484375
,61.6175892,1.4599609375
,61.6534584,1.4306640625
,61.6591747,1.4111328125
,61.6751714,1.38671875
,61.6953394,1.3818359375
,61.7345013,1.3671875
,61.7350392,1.3623046875
,61.755814,1.3671875
,61.7990003,1.4111328125
,61.7993637,1.484375
,61.8297779,1.591796875
,61.8342871,1.689453125
,61.8699243,1.796875
,61.8910826,1.875
,61.8953277,1.93359375
,61.9373806,1.9580078125
,61.9377425,1.9873046875
,61.9579827,1.9873046875
,61.9952593,1.9677734375
,61.9987125,1.943359375
,62.0159307,1.9091796875
,62.0617436,1.8798828125
,62.062174299999995,1.845703125
,62.076186199999995,1.8212890625
,62.126421699999995,1.796875
,62.1268467,1.77734375
,62.1569076,1.7578125
,62.1574957,1.7431640625
,62.1889367,1.7236328125
,62.20960959999999,1.7041015625
,62.2148852,1.6796875
,62.2502755,1.66015625
,62.2826541,1.640625
,62.2832499,1.611328125
,62.298837899999995,1.5869140625
,62.345544399999994,1.552734375
,62.346107700000005,1.5283203125
,62.358513200000004,1.4990234375
,62.4055352,1.4794921875
,62.4058972,1.4599609375
,62.4262767,1.4453125
,62.438396600000004,1.4306640625
,62.4742277,1.4208984375
,62.476995900000006,1.40625
,62.5140885,1.396484375
,62.546932299999995,1.4013671875
,62.547610899999995,1.42578125
,62.5575065,1.474609375
,62.5759271,1.572265625
,62.6246352,1.6845703125
,62.62500060000001,1.77734375
,62.645090499999995,1.8603515625
,62.659377000000006,1.9189453125
,62.694331500000004,1.9580078125
,62.6975379,1.9677734375
,62.7345306,1.97265625
,62.7349763,1.962890625
,62.755688899999996,1.943359375
,62.793576599999994,1.9140625
,62.796710700000006,1.8798828125
,62.834081299999994,1.845703125
,62.838773700000004,1.81640625
,62.874100600000006,1.7919921875
,62.8792557,1.7724609375
,62.913545299999996,1.7578125
,62.9352068,1.7333984375
,62.94237510000001,1.7138671875
,62.9579928,1.6943359375
,63.0029517,1.6845703125
,63.0033323,1.6650390625
,63.0180723,1.6455078125
,63.051853300000005,1.6162109375
,63.072885400000004,1.591796875
,63.079496199999994,1.5576171875
,63.115587500000004,1.533203125
,63.116157900000005,1.50390625
,63.13629830000001,1.4892578125
,63.172022999999996,1.46484375
,63.1940822,1.4453125
,63.198401000000004,1.4208984375
,63.2333718,1.4111328125
,63.2546751,1.396484375
,63.259388799999996,1.38671875
,63.295828099999994,1.3720703125
,63.296219300000004,1.38671875
,63.331978899999996,1.4306640625
,63.3658671,1.5087890625
,63.36623590000001,1.6162109375
,63.3786022,1.7236328125
,63.4131199,1.8212890625
,63.433881,1.89453125
,63.439156999999994,1.9482421875
,63.457530199999994,1.9775390625
,63.49146090000001,1.9970703125
,63.497242299999996,1.9970703125
,63.535010400000004,1.9775390625
,63.537600600000005,1.9580078125
,63.585694000000004,1.9189453125
,63.5862807,1.884765625
,63.6052097,1.8505859375
,63.6217085,1.8212890625
,63.656227,1.796875
,63.6617906,1.77734375
,63.6774327,1.7529296875
,63.7236709,1.73828125
,63.724326700000006,1.71875
,63.740249399999996,1.7041015625
,63.759462600000006,1.6796875
,63.794041199999995,1.6552734375
,63.81537899999999,1.6259765625
,63.819597200000004,1.5966796875
,63.839129099999994,1.5625
,63.8736275,1.5478515625
,63.8790686,1.5185546875
,63.91475560000001,1.494140625
,63.9192063,1.46484375
,63.9406793,1.4404296875
,63.961170100000004,1.4208984375
,63.995094800000004,1.4013671875
,64.0154142,1.38671875
,64.0172503,1.3720703125
,64.0539869,1.3671875
,64.0814583,1.3623046875
,64.0818561,1.376953125
,64.0998347,1.4208984375
,64.1346591,1.5087890625
,64.1551404,1.611328125
,64.1613919,1.71875
,64.1828505,1.8212890625
,64.1970173,1.89453125
,64.2378644,1.953125
,64.2382306,1.982421875
,64.2722376,1.9970703125
,64.2928712,1.9873046875
,64.3006162,1.97265625
,64.3358243,1.9384765625
,64.340943,1.904296875
,64.3754693,1.865234375
,64.3961907,1.8359375
,64.3967918,1.8017578125
,64.4396353,1.7822265625
,64.4400861,1.7626953125
,64.4699621,1.748046875
,64.4798053,1.7333984375
,64.515893,1.7236328125
,64.5200949,1.7041015625
,64.5545271,1.6845703125
,64.5752208,1.66015625
,64.5779923,1.6357421875
,64.6133253,1.62109375
,64.6337021,1.591796875
,64.639272,1.572265625
,64.6749504,1.54296875
,64.6956177,1.5234375
,64.7006797,1.4990234375
,64.7353817,1.4794921875
,64.7570935,1.455078125
,64.7575717,1.4501953125
,64.7960688,1.435546875
,64.82699,1.42578125
,64.8275815,1.416015625
,64.8422283,1.4111328125
,64.8766452,1.435546875
,64.8814755,1.4892578125
,64.9195795,1.5869140625
,64.9198842,1.6796875
,64.9572905,1.787109375
,64.9576077,1.865234375
,64.9935852,1.923828125
,65.0135308,1.953125
,65.0223728,1.9775390625
,65.0567154,1.9775390625
,65.0624702,1.9677734375
,65.0998368,1.943359375
,65.1024369,1.9140625
,65.1210809,1.8701171875
,65.1550247,1.845703125
,65.1597376,1.81640625
,65.1961904,1.787109375
,65.2182713,1.767578125
,65.2228898,1.748046875
,65.2427953,1.728515625
,65.2783013,1.7138671875
,65.2843142,1.69921875
,65.3009982,1.6796875
,65.3363341,1.6650390625
,65.3419208,1.640625
,65.3899156,1.62109375
,65.3903529,1.591796875
,65.403149,1.572265625
,65.4538578,1.54296875
,65.4542677,1.5185546875
,65.4630304,1.4990234375
,65.478393,1.474609375
,65.5148346,1.4599609375
,65.5359975,1.4453125
,65.5412364,1.4306640625
,65.5763202,1.416015625
,65.5969578,1.40625
,65.6032611,1.396484375
,65.6397754,1.4013671875
,65.6401405,1.42578125
,65.6738515,1.4990234375
,65.6937915,1.5966796875
,65.7007971,1.708984375
,65.7357073,1.8017578125
,65.7574848,1.884765625
,65.7626191,1.9384765625
,65.7983217,1.982421875
,65.8178498,2.001953125
,65.8255924,2.001953125
,65.8616107,1.9873046875
,65.8620446,1.9580078125
,65.9063178,1.93359375
,65.9071136,1.8994140625
,65.9230838,1.865234375
,65.9440541,1.8310546875
,65.9793437,1.806640625
,65.9837548,1.7822265625
,66.0199327,1.7578125
,66.0454627,1.73828125
,66.0460601,1.7333984375
,66.0632084,1.7138671875
,66.1073675,1.69921875
,66.107753,1.6748046875
,66.1244621,1.650390625
,66.1595643,1.6259765625
,66.1625816,1.5966796875
,66.2020538,1.5673828125
,66.202558,1.5380859375
,66.2320298,1.5234375
,66.2402669,1.4990234375
,66.2785215,1.4794921875
,66.2998007,1.455078125
,66.3043757,1.435546875
,66.3417512,1.416015625
,66.3421135,1.4013671875
,66.3608302,1.3818359375
,66.3963134,1.376953125
,66.416743,1.3720703125
,66.4216944,1.40625
,66.4585554,1.46484375
,66.4637402,1.552734375
,66.4830911,1.6650390625
,66.5187544,1.7626953125
,66.5235733,1.8505859375
,66.5742753,1.904296875
,66.5749689,1.9482421875
,66.5829059,1.9677734375
,66.6036255,1.982421875
,66.6401365,1.9775390625
,66.6407353,1.953125
,66.6772873,1.9189453125
,66.6981427,1.8896484375
,66.7047417,1.8505859375
,66.742993,1.81640625
,66.7477049,1.7919921875
,66.7637506,1.7626953125
,66.7843317,1.748046875
,66.8127975,1.7333984375
,66.8242432,1.7236328125
,66.8591234,1.69921875
,66.863931,1.6845703125
,66.9079938,1.66015625
,66.9087396,1.640625
,66.9216086,1.62109375
,66.955942,1.6015625
,66.9758746,1.5771484375
,66.9826278,1.5576171875
,67.0189702,1.5283203125
,67.0238363,1.5087890625
,67.0610127,1.484375
,67.0642346,1.4794921875
,67.1008426,1.46484375
,67.1013812,1.4453125
,67.1221247,1.435546875
,67.1584968,1.42578125
,67.1643182,1.416015625
,67.20102,1.4111328125
,67.2057572,1.4404296875
,67.2414701,1.4892578125
,67.2450275,1.5771484375
,67.2814039,1.6748046875
,67.2856702,1.7724609375
,67.3025523,1.8505859375
,67.3234378,1.9189453125
,67.358932,1.953125
,67.3634052,1.97265625
,67.4024219,1.982421875
,67.40495,1.962890625
,67.4474569,1.9384765625
,67.4478202,1.904296875
,67.4677396,1.8701171875
,67.4839784,1.8310546875
,67.5044466,1.806640625
,67.5559284,1.7822265625
,67.5565108,1.7626953125
,67.5650015,1.7431640625
,67.5994672,1.7333984375
,67.6220959,1.7138671875
,67.6264438,1.69921875
,67.643875,1.6748046875
,67.6784663,1.66015625
,67.6830176,1.6357421875
,67.7182417,1.6162109375
,67.7384819,1.591796875
,67.7463362,1.5625
,67.7903191,1.533203125
,67.7907333,1.50390625
,67.8081717,1.4794921875
,67.8226752,1.455078125
,67.8707696,1.4453125
,67.8712774,1.4306640625
,67.9001756,1.4208984375
,67.9033195,1.4111328125
,67.938193,1.3916015625
,67.9615274,1.38671875
,67.9668366,1.3818359375
,67.9865436,1.396484375
,68.0071214,1.4306640625
,68.0442816,1.533203125
,68.0449335,1.640625
,68.0926279,1.7529296875
,68.0931621,1.845703125
,68.1051688,1.923828125
,68.141183,1.962890625
,68.1460927,1.9921875
,68.182243,2.001953125
,68.1882831,1.9970703125
,68.2056615,1.97265625
,68.2236587,1.953125
,68.2575312,1.9189453125
,68.277707,1.884765625
,68.2850675,1.8505859375
,68.3217247,1.826171875
,68.3411244,1.796875
,68.3492187,1.7822265625
,68.3843795,1.7626953125
,68.3850036,1.7431640625
,68.4209733,1.7333984375
,68.4254463,1.7138671875
,68.4601686,1.689453125
,68.4649931,1.6650390625
,68.498449,1.640625
,68.520433,1.611328125
,68.5271705,1.58203125
,68.544441,1.552734375
,68.5803709,1.5283203125
,68.5836703,1.50390625
,68.6207795,1.484375
,68.6409103,1.46484375
,68.6460189,1.4453125
,68.6808677,1.4306640625
,68.6880913,1.4111328125
,68.7241992,1.396484375
,68.7273291,1.376953125
,68.7645792,1.3720703125
,68.7651674,1.3720703125
,68.8073223,1.4208984375
,68.807881,1.494140625
,68.8282522,1.6015625
,68.8468909,1.69921875
,68.886007,1.806640625
,68.8882492,1.875
,68.9333866,1.9287109375
,68.9338471,1.9580078125
,68.9445608,1.9775390625
,68.9650953,1.97265625
,69.0095342,1.962890625
,69.0099001,1.9384765625
,69.0303835,1.904296875
,69.0470947,1.8701171875
,69.082994,1.8359375
,69.1039959,1.806640625
,69.1043709,1.787109375
,69.1528334,1.77734375
,69.1534193,1.7724609375
,69.1658426,1.7578125
,69.2008085,1.7431640625
,69.221807,1.7236328125
,69.2270748,1.7041015625
,69.2782857,1.6796875
,69.2787075,1.650390625
,69.2853791,1.6259765625
,69.3053285,1.6015625
,69.3549897,1.572265625
,69.3553524,1.5478515625
,69.3766275,1.5234375
,69.3888955,1.50390625
,69.4327543,1.4794921875
,69.433209,1.4599609375
,69.4504406,1.4404296875
,69.4864489,1.4111328125
,69.4870522,1.396484375
,69.5238695,1.4013671875
,69.5259295,1.396484375
,69.5728219,1.40625
,69.5733987,1.4404296875
,69.6041818,1.513671875
,69.6086115,1.6015625
,69.6439709,1.7138671875
,69.6499421,1.81640625
,69.6652347,1.884765625
,69.7012996,1.943359375
,69.728619,1.97265625
,69.7289774,1.982421875
,69.7653945,1.97265625
,69.7681124,1.9580078125
,69.8039736,1.9287109375
,69.8234673,1.89453125
,69.8238263,1.85546875
,69.8578666,1.826171875
,69.878611,1.796875
,69.8887732,1.77734375
,69.9079383,1.7578125
,69.942038,1.73828125
,69.9633903,1.728515625
,69.968756,1.708984375
,70.0054053,1.6845703125
,70.0061054,1.66015625
,70.0404199,1.640625
,70.0608054,1.62109375
,70.0672593,1.5966796875
,70.1017641,1.5673828125
,70.1221736,1.54296875
,70.1284278,1.5185546875
,70.1650771,1.494140625
,70.1855132,1.474609375
,70.1900164,1.435546875
,70.2062352,1.4208984375
,70.2410383,1.4111328125
,70.2612568,1.396484375
,70.2687639,1.38671875
,70.2897564,1.376953125
,70.3315774,1.3623046875
,70.3319507,1.376953125
,70.3492898,1.4111328125
,70.3924013,1.4794921875
,70.3927667,1.572265625
,70.4080366,1.6943359375
,70.4420793,1.796875
,70.4472085,1.884765625
,70.4839528,1.943359375
,70.5173513,1.982421875
,70.5178418,2.001953125
,70.5316935,2.0068359375
,70.5488951,1.9873046875
,70.566686,1.9677734375
,70.6115754,1.943359375
,70.6120364,1.904296875
,70.632583,1.8701171875
,70.6511496,1.8408203125
,70.6849369,1.81640625
,70.6902723,1.796875
,70.7261539,1.77734375
,70.7267372,1.7529296875
,70.7681522,1.73828125
,70.7685254,1.71875
,70.7891014,1.69921875
,70.8086336,1.669921875
,70.8460387,1.6455078125
,70.8505345,1.611328125
,70.890122,1.58203125
,70.8905322,1.552734375
,70.9250273,1.513671875
,70.9455553,1.494140625
,70.9473925,1.474609375
,70.9700268,1.4599609375
,70.9879594,1.4453125
,71.0229515,1.4306640625
,71.0426414,1.416015625
,71.0486639,1.4013671875
,71.0852387,1.38671875
,71.0911169,1.376953125
,71.1062532,1.376953125
,71.1401542,1.40625
,71.1625449,1.4599609375
,71.1680168,1.5576171875
,71.205613,1.66015625
,71.2110358,1.77734375
,71.2542863,1.875
,71.2546453,1.9384765625
,71.2722717,1.982421875
,71.2894184,2.001953125
,71.3092113,2.0166015625
,71.3467585,2.01171875
,71.3496746,1.9921875
,71.3854617,1.953125
,71.390036,1.9189453125
,71.4273378,1.8798828125
,71.4319358,1.85546875
,71.4479377,1.826171875
,71.4855847,1.806640625
,71.4900932,1.787109375
,71.5255076,1.767578125
,71.5282764,1.748046875
,71.5625191,1.7333984375
,71.5845449,1.7041015625
,71.5915463,1.6796875
,71.6130623,1.650390625
,71.6325715,1.62109375
,71.666809,1.572265625
,71.6671731,1.5478515625
,71.6880232,1.533203125
,71.725867,1.513671875
,71.7303654,1.494140625
,71.7655072,1.474609375
,71.7703768,1.455078125
,71.7925048,1.4306640625
,71.8280239,1.4208984375
,71.8286085,1.40625
,71.8641357,1.396484375
,71.8689883,1.3916015625
,71.9118647,1.3818359375
,71.912224,1.38671875
,71.9473835,1.4111328125
,71.950378,1.4794921875
,71.971432,1.5625
,72.0207258,1.6748046875
,72.0210925,1.7724609375
,72.0296829,1.8701171875
,72.0680085,1.9287109375
,72.0683693,1.9775390625
,72.1141974,1.9921875
,72.1145653,1.9970703125
,72.1355557,1.9873046875
,72.1524621,1.9580078125
,72.1678873,1.923828125
,72.2016049,1.904296875
,72.2236289,1.875
,72.2308674,1.845703125
,72.271151,1.8212890625
,72.2715181,1.796875
,72.3163801,1.7822265625
,72.3169781,1.767578125
,72.3320617,1.748046875
,72.3534288,1.7236328125
,72.3881529,1.6845703125
,72.3887386,1.6650390625
,72.4087765,1.6455078125
,72.4427415,1.62109375
,72.464809,1.6015625
,72.4705414,1.5771484375
,72.5055182,1.5478515625
,72.5261487,1.5283203125
,72.5338498,1.50390625
,72.5823615,1.484375
,72.5828185,1.4599609375
,72.5912593,1.4501953125
,72.6261187,1.435546875
,72.6320576,1.4208984375
,72.6517166,1.40625
,72.6916905,1.396484375
,72.6922083,1.38671875
,72.7125703,1.416015625
,72.7315465,1.4599609375
,72.7672904,1.552734375
,72.7678959,1.6552734375
,72.8050894,1.7626953125
,72.8323402,1.8505859375
,72.8327024,1.923828125
,72.8781931,1.97265625
,72.8785639,1.9921875
,72.892823,1.9970703125
,72.9108241,1.9873046875
,72.9468617,1.97265625
,72.9512547,1.943359375
,72.9866864,1.9140625
,72.9913831,1.875
,73.0302044,1.845703125
,73.0306731,1.8115234375
,73.070599,1.7919921875
,73.0908879,1.767578125
,73.0925637,1.7333984375
,73.1114315,1.6943359375
,73.1462074,1.6943359375
,73.1513544,1.689453125
,73.189102,1.6650390625
,73.1938877,1.6455078125
,73.2143442,1.62109375
,73.250963,1.6064453125
,73.2539133,1.58203125
,73.2912911,1.552734375
,73.2919937,1.5234375
,73.3112602,1.5087890625
,73.3465304,1.484375
,73.3522323,1.4697265625
,73.3888085,1.4453125
,73.3914801,1.4306640625
,73.4142301,1.4111328125
,73.451317,1.4013671875
,73.4516803,1.3818359375
,73.4875298,1.38671875
,73.4917599,1.4013671875
,73.5271015,1.4404296875
,73.5324094,1.5185546875
,73.5685141,1.6162109375
,73.5713783,1.7236328125
,73.6061015,1.8212890625
,73.6259842,1.904296875
,73.6291925,1.9580078125
,73.665895,2.001953125
,73.6715562,2.0166015625
,73.707258,2.021484375
,73.7118935,2.001953125
,73.7470743,1.9775390625
,73.7675616,1.9482421875
,73.7726734,1.9091796875
,73.8121212,1.8798828125
,73.8413604,1.845703125
,73.841846,1.8017578125
,73.852178,1.7626953125
,73.8861877,1.7626953125
,73.9075679,1.748046875
,73.9128628,1.7333984375
,73.9485915,1.708984375
,73.9560137,1.689453125
,73.9991956,1.66015625
,74.0001184,1.640625
,74.011417,1.6064453125
,74.0495237,1.5869140625
,74.0541361,1.5625
,74.0731766,1.533203125
,74.1071574,1.50390625
,74.1283715,1.4794921875
,74.1357584,1.4599609375
,74.1699679,1.4404296875
,74.1770092,1.42578125
,74.1934858,1.40625
,74.2121783,1.4013671875
,74.2462634,1.38671875
,74.26696,1.38671875
,74.2720563,1.38671875
,74.3081027,1.40625
,74.3272372,1.4501953125
,74.3353346,1.5380859375
,74.351198,1.6357421875
,74.3860613,1.7529296875
,74.3914112,1.8408203125
,74.4332586,1.9189453125
,74.462027,1.97265625
,74.4624881,1.9970703125
,74.4756604,2.0068359375
,74.5104434,1.9970703125
,74.5155432,1.982421875
,74.5375088,1.9482421875
,74.5561962,1.89453125
,74.5727927,1.845703125
,74.5935004,1.8310546875
,74.6299994,1.81640625
,74.6346179,1.8017578125
,74.6691382,1.7822265625
,74.6749389,1.767578125
,74.7117483,1.748046875
,74.7327431,1.728515625
,74.7331529,1.7041015625
,74.7698121,1.689453125
,74.7730836,1.669921875
,74.810757,1.6455078125
,74.8139266,1.6162109375
,74.8346371,1.5869140625
,74.8700952,1.5625
,74.8751678,1.533203125
,74.9106734,1.5087890625
,74.9303346,1.4794921875
,74.9350155,1.4697265625
,74.9533302,1.4501953125
,74.9953027,1.4306640625
,74.9956678,1.416015625
,75.0164882,1.40625
,75.0347784,1.3916015625
,75.0705339,1.3818359375
,75.0897005,1.396484375
,75.091698,1.4306640625
,75.1377057,1.513671875
,75.1380655,1.6064453125
,75.1679145,1.71875
,75.1743943,1.8115234375
,75.2103393,1.89453125
,75.2152696,1.943359375
,75.2641196,1.9775390625
,75.2647233,1.9921875
,75.2939713,1.982421875
,75.2945558,1.9482421875
,75.3143604,1.943359375
,75.3578385,1.9140625
,75.3582404,1.8896484375
,75.3774001,1.85546875
,75.3964721,1.8310546875
,75.4376735,1.8017578125
,75.4382121,1.7822265625
,75.4735811,1.7626953125
,75.4739392,1.7431640625
,75.5151254,1.728515625
,75.5155362,1.708984375
,75.5357184,1.689453125
,75.5772554,1.6650390625
,75.5776605,1.6357421875
,75.5966013,1.6015625
,75.6412467,1.572265625
,75.6416983,1.5380859375
,75.6717341,1.5185546875
,75.6724454,1.494140625
,75.7187765,1.4697265625
,75.7191661,1.4501953125
,75.749676,1.4306640625
,75.7551179,1.4111328125
,75.7938222,1.396484375
,75.7971768,1.38671875
,75.8126076,1.3720703125
,75.8485962,1.3671875
,75.8694193,1.3671875
,75.8751952,1.4013671875
,75.8971189,1.455078125
,75.9329368,1.552734375
,75.9358856,1.6552734375
,75.9701822,1.7724609375
,75.9909539,1.85546875
,75.9988761,1.9384765625
,76.0141936,1.9580078125
,76.0490953,2.001953125
,76.0693296,2.021484375
,76.0773925,2.0166015625
,76.1125582,1.9970703125
,76.1176459,1.9677734375
,76.1531663,1.93359375
,76.1579034,1.8994140625
,76.1917513,1.865234375
,76.2126812,1.8359375
,76.2143944,1.8115234375
,76.2511836,1.7919921875
,76.2576474,1.7724609375
,76.3086422,1.748046875
,76.3092223,1.7333984375
,76.318552,1.708984375
,76.3386348,1.6845703125
,76.3728044,1.66015625
,76.3932818,1.630859375
,76.3959705,1.6064453125
,76.4314092,1.5771484375
,76.4360917,1.5478515625
,76.4806155,1.5185546875
,76.4811781,1.494140625
,76.5155884,1.46484375
,76.51873,1.4404296875
,76.5343775,1.416015625
,76.5737715,1.40625
,76.5741354,1.3916015625
,76.5951302,1.376953125
,76.6372098,1.357421875
,76.6377538,1.3427734375
,76.6752253,1.3427734375
,76.6758221,1.376953125
,76.7157479,1.4453125
,76.7472886,1.5283203125
,76.7477804,1.62109375
,76.7548639,1.7138671875
,76.7906433,1.8212890625
,76.8112999,1.8994140625
,76.8162336,1.9580078125
,76.8563386,1.9873046875
,76.856716,1.9970703125
,76.893018,1.9873046875
,76.9174198,1.9677734375
,76.9177845,1.943359375
,76.9649389,1.9140625
,76.9653364,1.884765625
,76.9780141,1.85546875
,77.0140348,1.826171875
,77.0185339,1.8017578125
,77.0531851,1.7822265625
,77.0581154,1.7578125
,77.0951016,1.73828125
,77.0955219,1.708984375
,77.1310463,1.6943359375
,77.150082,1.669921875
,77.1568353,1.650390625
,77.1776022,1.6162109375
,77.2117729,1.591796875
,77.2324067,1.5625
,77.2399478,1.5380859375
,77.2570141,1.5087890625
,77.2766264,1.494140625
,77.3212863,1.4697265625
,77.3217686,1.4697265625
,77.3424279,1.455078125
,77.3595198,1.435546875
,77.3951142,1.42578125
,77.3975951,1.4111328125
,77.4324942,1.4013671875
,77.453903,1.3916015625
,77.4617943,1.3916015625
,77.4777459,1.416015625
,77.5121462,1.5087890625
,77.5182675,1.611328125
,77.5559072,1.7236328125
,77.5563909,1.81640625
,77.5916631,1.8994140625
,77.6116477,1.9482421875
,77.6189723,1.982421875
,77.6618305,2.001953125
,77.6624074,1.9970703125
,77.6833934,1.9873046875
,77.6992861,1.9677734375
,77.7360059,1.93359375
,77.7365336,1.8994140625
,77.7735952,1.865234375
,77.8028473,1.8310546875
,77.8031626,1.8017578125
,77.8166938,1.77734375
,77.8524102,1.767578125
,77.8815713,1.748046875
,77.8820838,1.7333984375
,77.8993503,1.7138671875
,77.9365796,1.689453125
,77.9370687,1.66015625
,77.9738547,1.6357421875
,77.9937616,1.6064453125
,77.9944423,1.572265625
,78.0373417,1.5478515625
,78.037931,1.5234375
,78.059319,1.494140625
,78.1009409,1.4697265625
,78.1014152,1.4501953125
,78.1205026,1.42578125
,78.154635,1.40625
,78.1553068,1.3916015625
,78.191597,1.3818359375
,78.1976116,1.337890625
,78.2339317,1.3427734375
,78.2370728,1.3525390625
,78.2873857,1.38671875
,78.2878108,1.455078125
,78.2995294,1.5478515625
,78.335681,1.6552734375
,78.340699,1.7626953125
,78.3616175,1.8603515625
,78.3778609,1.9287109375
,78.428269,1.982421875
,78.4288521,2.01171875
,78.4577518,2.021484375
,78.458203,2.01171875
,78.5045685,1.9970703125
,78.5050879,1.962890625
,78.5345703,1.9287109375
,78.5377256,1.89453125
,78.5807806,1.8701171875
,78.5812678,1.845703125
,78.6010453,1.8212890625
,78.6204992,1.8017578125
,78.6542263,1.77734375
,78.6749553,1.7578125
,78.6823253,1.7333984375
,78.7216572,1.708984375
,78.7220278,1.6796875
,78.737865,1.6552734375
,78.7742722,1.630859375
,78.7788446,1.6015625
,78.8004847,1.572265625
,78.8197789,1.54296875
,78.8645736,1.513671875
,78.8649758,1.494140625
,78.8768019,1.4697265625
,78.9115257,1.455078125
,78.9319946,1.416015625
,78.9370897,1.3818359375
,78.9719463,1.3818359375
,79.0058358,1.3720703125
,79.0062403,1.3671875
,79.020881,1.3623046875
,79.056883,1.376953125
,79.0620094,1.416015625
,79.0808781,1.494140625
,79.1154516,1.5869140625
,79.1199737,1.708984375
,79.1599899,1.806640625
,79.1603665,1.89453125
,79.1972663,1.953125
,79.2024782,1.9921875
,79.2216409,2.0068359375
,79.2700094,2.01171875
,79.2703798,2.001953125
,79.3021912,1.97265625
,79.3026726,1.9482421875
,79.3182086,1.9091796875
,79.3631155,1.875
,79.3637897,1.845703125
,79.3825605,1.826171875
,79.401462,1.8017578125
,79.4369385,1.787109375
,79.4373107,1.767578125
,79.4601721,1.7529296875
,79.4793733,1.7333984375
,79.5190509,1.7138671875
,79.5197521,1.6845703125
,79.5656957,1.66015625
,79.5661774,1.6357421875
,79.5814492,1.5966796875
,79.6175544,1.5673828125
,79.6426258,1.5380859375
,79.6432139,1.5234375
,79.6597714,1.474609375
,79.704532,1.46484375
,79.7051201,1.4453125
,79.7351574,1.435546875
,79.7396124,1.416015625
,79.7818539,1.4013671875
,79.8108128,1.38671875
,79.8111843,1.376953125
,79.8179511,1.376953125
,79.8527351,1.40625
,79.8730672,1.455078125
,79.8818581,1.5478515625
,79.9154864,1.6455078125
,79.9223431,1.7431640625
,79.9655442,1.8408203125
,79.9659899,1.904296875
,79.9813116,1.953125
,79.9999393,1.97265625
,80.03515,1.9873046875
,80.0410862,1.982421875
,80.0889131,1.962890625
,80.09019,1.93359375
,80.1015865,1.8994140625
,80.1492792,1.865234375
,80.149643,1.8359375
,80.1709141,1.8115234375
,80.180511,1.7919921875
,80.2284016,1.7822265625
,80.2287788,1.7626953125
,80.2401806,1.748046875
,80.2762373,1.7236328125
,80.2812406,1.7041015625
,80.3210314,1.6748046875
,80.3502335,1.650390625
,80.3506033,1.62109375
,80.3646304,1.5966796875
,80.3800802,1.5380859375
,80.4155632,1.5283203125
,80.4213788,1.50390625
,80.4413958,1.484375
,80.4779336,1.4599609375
,80.4983013,1.4404296875
,80.5030673,1.416015625
,80.538399,1.4013671875
,80.5429852,1.38671875
,80.5784962,1.3671875
,80.5790377,1.3623046875
,80.6157182,1.3720703125
,80.6358038,1.4013671875
,80.6409722,1.4599609375
,80.6939512,1.5576171875
,80.6943944,1.66015625
,80.7041608,1.767578125
,80.7206659,1.85546875
,80.7563375,1.93359375
,80.7615475,1.9775390625
,80.7815661,2.01171875
,80.8163933,2.0166015625
,80.8377327,2.01171875
,80.8427811,1.9970703125
,80.8946974,1.9580078125
,80.8953172,1.923828125
,80.9004483,1.884765625
,80.9419414,1.8603515625
,80.9425227,1.8359375
,80.9732206,1.8115234375
,80.9828545,1.787109375
,81.0036074,1.767578125
,81.0382844,1.7431640625
,81.0427475,1.7236328125
,81.0599522,1.6943359375
,81.0955761,1.6796875
,81.1147706,1.630859375
,81.1233491,1.6162109375
,81.1583887,1.5869140625
,81.1628545,1.5673828125
,81.1979127,1.5380859375
,81.204352,1.5087890625
,81.2403488,1.484375
,81.243529,1.4599609375
,81.2803671,1.4404296875
,81.2808979,1.416015625
,81.3172416,1.40625
,81.3220517,1.3916015625
,81.3595049,1.376953125
,81.3621258,1.3671875
,81.3958769,1.3671875
,81.4164733,1.3916015625
,81.4261125,1.46484375
,81.4407681,1.5625
,81.4763188,1.6845703125
,81.4812276,1.806640625
,81.5189668,1.89453125
,81.5234408,1.9677734375
,81.5588135,2.01171875
,81.565364,2.041015625
,81.6095817,2.041015625
,81.6100732,2.0361328125
,81.6220453,2.0068359375
,81.6740308,1.982421875
,81.6746217,1.953125
,81.6845504,1.9189453125
,81.7353661,1.8798828125
,81.7357289,1.8505859375
,81.7430295,1.8212890625
,81.7791479,1.8017578125
,81.7989335,1.7724609375
,81.8035704,1.7626953125
,81.8265971,1.73828125
,81.8417999,1.6845703125
,81.8909342,1.669921875
,81.8912895,1.650390625
,81.9111196,1.62109375
,81.9246192,1.5966796875
,81.9600716,1.5673828125
,81.9847901,1.5380859375
,81.9854415,1.513671875
,82.0021272,1.484375
,82.0225607,1.46484375
,82.0574258,1.4501953125
,82.0649545,1.4306640625
,82.1008068,1.416015625
,82.1057893,1.4013671875
,82.1403762,1.3916015625
,82.1718526,1.376953125
,82.1724452,1.376953125
,82.1822417,1.3916015625
,82.2194534,1.46484375
,82.2240102,1.5478515625
,82.2648649,1.6650390625
,82.2653358,1.767578125
,82.3009094,1.865234375
,82.3059772,1.9287109375
,82.3266483,1.982421875
,82.3424592,2.001953125
,82.3769353,2.021484375
,82.3818228,2.0166015625
,82.4176732,1.9970703125
,82.4382876,1.9677734375
,82.4440005,1.943359375
,82.4810294,1.9189453125
,82.4854223,1.884765625
,82.5303818,1.8603515625
,82.530842,1.8359375
,82.546663,1.826171875
,82.562311,1.7822265625
,82.5957772,1.77734375
,82.6178682,1.7578125
,82.6248952,1.73828125
,82.6604473,1.7138671875
,82.6666013,1.6845703125
,82.7182442,1.6552734375
,82.7188456,1.6259765625
,82.723723,1.5966796875
,82.7597872,1.572265625
,82.7636278,1.552734375
,82.7998901,1.5234375
,82.8052117,1.50390625
,82.8418004,1.474609375
,82.8449793,1.4599609375
,82.8810331,1.435546875
,82.8861642,1.4208984375
,82.902758,1.396484375
,82.9383125,1.396484375
,82.9584661,1.4111328125
,82.9646484,1.4599609375
,82.9982601,1.533203125
,83.0196257,1.640625
,83.0260519,1.7431640625
,83.0627934,1.8408203125
,83.0633868,1.9091796875
,83.0840843,1.9677734375
,83.125726,2.001953125
,83.1263466,2.0068359375
,83.1573347,2.001953125
,83.1660783,1.982421875
,83.1865271,1.953125
,83.2349956,1.9140625
,83.235356,1.8798828125
,83.2451678,1.845703125
,83.2649066,1.8212890625
,83.3001742,1.8017578125
,83.3058246,1.7822265625
,83.3446077,1.7626953125
,83.3452025,1.7431640625
,83.3817019,1.71875
,83.3859377,1.6943359375
,83.4214922,1.669921875
,83.4431078,1.6455078125
,83.4487485,1.62109375
,83.4642629,1.5966796875
,83.5156331,1.58203125
,83.5160195,1.5576171875
,83.5265701,1.5380859375
,83.5641067,1.513671875
,83.5673731,1.494140625
,83.6022869,1.474609375
,83.6078848,1.4599609375
,83.6230286,1.4404296875
,83.6582326,1.42578125
,83.6879241,1.416015625
,83.6882808,1.40625
,83.7067298,1.40625
,83.7510704,1.4404296875
,83.751423,1.5087890625
,83.7683867,1.6015625
,83.8139897,1.708984375
,83.8145761,1.806640625
,83.8261343,1.8994140625
,83.8615565,1.9580078125
,83.865665,2.001953125
,83.8995281,2.021484375
,83.9211374,2.03125
,83.9270416,2.0166015625
,83.9622992,1.9921875
,83.962664,1.9580078125
,84.0029189,1.93359375
,84.032679,1.89453125
,84.0332595,1.8701171875
,84.0460768,1.8408203125
,84.081524,1.81640625
,84.0855182,1.7919921875
,84.1178149,1.767578125
,84.1381716,1.748046875
,84.1494472,1.71875
,84.1864329,1.6943359375
,84.186941,1.669921875
,84.2344622,1.650390625
,84.234864,1.6162109375
,84.2655909,1.591796875
,84.2660378,1.5673828125
,84.3013019,1.54296875
,84.3223918,1.513671875
,84.3301453,1.4892578125
,84.3450149,1.46484375
,84.3812954,1.455078125
,84.3861037,1.4404296875
,84.4226825,1.4208984375
,84.4269315,1.4111328125
,84.4606838,1.396484375
,84.4832147,1.3818359375
,84.4905791,1.3818359375
,84.5266572,1.4208984375
,84.5271475,1.484375
,84.5595167,1.591796875
,84.5947378,1.69921875
,84.5951854,1.8115234375
,84.6078331,1.8896484375
,84.6559712,1.953125
,84.6563293,1.982421875
,84.6681883,2.001953125
,84.7035125,2.01171875
,84.7245964,1.9921875
,84.7268604,1.97265625
,84.7601746,1.943359375
,84.7807536,1.9091796875
,84.7876126,1.875
,84.8296256,1.845703125
,84.8300501,1.81640625
,84.8757774,1.796875
,84.8760723,1.7724609375
,84.889685,1.7529296875
,84.9082014,1.7236328125
,84.9554983,1.708984375
,84.9558569,1.6845703125
,84.9697529,1.66015625
,84.9876918,1.630859375
,85.0329396,1.611328125
,85.0333481,1.58203125
,85.0632495,1.552734375
,85.0711255,1.5283203125
,85.0875683,1.50390625
,85.1235723,1.4892578125
,85.1281906,1.4697265625
,85.1483006,1.4501953125
,85.1671173,1.4306640625
,85.2008028,1.416015625
,85.2214684,1.4013671875
,85.229857,1.3916015625
,85.2463964,1.3818359375
,85.2964123,1.4013671875
,85.2968824,1.4501953125
,85.3076183,1.5380859375
,85.3431507,1.650390625
,85.3643656,1.7529296875
,85.3685116,1.85546875
,85.4059909,1.923828125
,85.4110962,1.97265625
,85.4262171,1.9921875
,85.4632488,2.021484375
,85.4673247,2.021484375
,85.5048123,2.0068359375
,85.509135,1.9775390625
,85.5454074,1.943359375
,85.5502843,1.904296875
,85.5711553,1.865234375
,85.5912975,1.826171875
,85.6284213,1.796875
,85.629095,1.7724609375
,85.6492999,1.7626953125
,85.667579,1.7431640625
,85.6900808,1.71875
,85.7333827,1.6943359375
,85.7336971,1.669921875
,85.7490566,1.6455078125
,85.7846699,1.6162109375
,85.7894715,1.591796875
,85.8070165,1.5625
,85.8433705,1.54296875
,85.8474663,1.5234375
,85.8841559,1.4990234375
,85.9047825,1.4794921875
,85.9090198,1.455078125
,85.9424134,1.4404296875
,85.9643475,1.42578125
,85.9701292,1.416015625
,85.9899184,1.396484375
,86.0087051,1.38671875
,86.049073,1.3818359375
,86.0495103,1.40625
,86.0707973,1.4501953125
,86.1083035,1.54296875
,86.1109702,1.6455078125
,86.1575764,1.767578125
,86.1586033,1.8505859375
,86.1680638,1.93359375
,86.2031953,1.9775390625
,86.2078481,2.01171875
,86.2498047,2.0263671875
,86.250111,2.021484375
,86.2697527,2.001953125
,86.305745,1.9873046875
,86.3105697,1.9482421875
,86.3491656,1.9091796875
,86.3494654,1.8701171875
,86.3875892,1.8359375
,86.3878908,1.8115234375
,86.4259299,1.787109375
,86.4304051,1.7578125
,86.4683014,1.73828125
,86.4686009,1.708984375
,86.5057424,1.6845703125
,86.5271861,1.6552734375
,86.5275488,1.62109375
,86.5644575,1.6064453125
,86.5698431,1.58203125
,86.6057135,1.552734375
,86.6098737,1.5283203125
,86.6465357,1.4990234375
,86.6502204,1.474609375
,86.6873002,1.4453125
,86.7173842,1.42578125
,86.7178631,1.4013671875
,86.7291252,1.38671875
,86.7635411,1.3623046875
,86.7711399,1.3525390625
,86.7891029,1.3330078125
,86.8287377,1.328125
,86.8293371,1.3330078125
,86.8642471,1.3671875
,86.8861107,1.4306640625
,86.8865154,1.54296875
,86.9228917,1.650390625
,86.951839,1.767578125
,86.9524371,1.85546875
,86.9708847,1.9140625
,87.0162074,1.9580078125
,87.0167633,1.97265625
,87.0459415,1.982421875
,87.0522848,1.97265625
,87.0723756,1.953125
,87.0884839,1.9189453125
,87.1241699,1.8896484375
,87.145146,1.8603515625
,87.1497281,1.8310546875
,87.1865029,1.8017578125
,87.2067189,1.77734375
,87.2112177,1.7529296875
,87.2458094,1.7333984375
,87.2667821,1.71875
,87.2673569,1.6943359375
,87.3078285,1.6748046875
,87.3081306,1.650390625
,87.3429786,1.630859375
,87.3638263,1.6015625
,87.3732702,1.5771484375
,87.3935429,1.5478515625
,87.4281163,1.5185546875
,87.4284729,1.494140625
,87.4661974,1.474609375
,87.487694,1.4599609375
,87.4912154,1.4404296875
,87.5295385,1.42578125
,87.529894,1.4111328125
,87.5744065,1.4013671875
,87.5747646,1.396484375
,87.5956369,1.3916015625
,87.6093819,1.38671875
,87.644704,1.4208984375
,87.6662999,1.484375
,87.671866,1.58203125
,87.7154597,1.6845703125
,87.7160147,1.7919921875
,87.7316231,1.875
,87.7785901,1.9384765625
,87.7789988,1.9775390625
,87.798934,2.001953125
,87.8098343,2.001953125
,87.8583507,2.001953125
,87.8589231,1.982421875
,87.8878772,1.953125
,87.8905739,1.9189453125
,87.9267029,1.8798828125
,87.9469766,1.845703125
,87.9527696,1.8115234375
,87.9891414,1.7822265625
,87.9897075,1.7578125
,88.0290929,1.748046875
,88.0594312,1.728515625
,88.05979,1.71875
,88.0716282,1.689453125
,88.121615,1.669921875
,88.1219708,1.6357421875
,88.1425064,1.611328125
,88.1498297,1.58203125
,88.2000455,1.5576171875
,88.2011399,1.5283203125
,88.2311383,1.50390625
,88.2316115,1.4794921875
,88.2682248,1.455078125
,88.2727785,1.4306640625
,88.309489,1.4111328125
,88.3141066,1.396484375
,88.3315324,1.3818359375
,88.3514103,1.376953125
,88.3884459,1.3671875
,88.3932916,1.3623046875
,88.4293257,1.3720703125
,88.4322612,1.416015625
,88.471124,1.4892578125
,88.4717088,1.6015625
,88.5053451,1.708984375
,88.5271531,1.8115234375
,88.5342537,1.89453125
,88.5529451,1.943359375
,88.5903209,1.9873046875
,88.5909537,2.01171875
,88.6263994,2.0166015625
,88.647415,2.0068359375
,88.6545228,1.982421875
,88.6746545,1.9482421875
,88.7089716,1.9091796875
,88.7295619,1.8701171875
,88.7324616,1.8408203125
,88.7520458,1.8115234375
,88.7960688,1.787109375
,88.7967271,1.7626953125
,88.8137061,1.73828125
,88.8489277,1.7138671875
,88.8733382,1.6943359375
,88.8738934,1.6748046875
,88.8930213,1.640625
,88.937011,1.6259765625
,88.9376582,1.5966796875
,88.9530982,1.5673828125
,88.9982206,1.533203125
,88.9985781,1.50390625
,89.0198358,1.474609375
,89.0341574,1.4501953125
,89.0514061,1.4208984375
,89.0867768,1.40625
,89.0923102,1.3916015625
,89.1267791,1.3818359375
,89.147583,1.3671875
,89.1553905,1.3525390625
,89.1734987,1.34765625
,89.2162507,1.3427734375
,89.216849,1.357421875
,89.2358837,1.4013671875
,89.2779172,1.484375
,89.2782867,1.591796875
,89.2944234,1.71875
,89.3144021,1.81640625
,89.3506902,1.8994140625
,89.3537279,1.9482421875
,89.4030647,1.982421875
,89.4034369,1.9970703125
,89.4169903,1.9970703125
,89.4315007,1.9775390625
,89.4678756,1.953125
,89.4967638,1.923828125
,89.4971511,1.8896484375
,89.5152926,1.85546875
,89.5524315,1.8212890625
,89.553046,1.796875
,89.5915621,1.7724609375
,89.6114767,1.7529296875
,89.6118447,1.73828125
,89.6534041,1.728515625
,89.6537605,1.7138671875
,89.6742334,1.6943359375
,89.7165586,1.6748046875
,89.7171368,1.6455078125
,89.7354087,1.6162109375
,89.7793065,1.5869140625
,89.7798449,1.552734375
,89.7917306,1.5283203125
,89.8304156,1.5087890625
,89.830948,1.484375
,89.8691115,1.46484375
,89.8759165,1.4453125
,89.896098,1.42578125
,89.9314196,1.4111328125
,89.9360442,1.396484375
,89.9705357,1.3818359375
,89.9774411,1.376953125
,89.9941798,1.3818359375
,90.0318763,1.4306640625
,90.0324612,1.50390625
,90.06994,1.6162109375
,90.0900289,1.71875
,90.0949763,1.8212890625
,90.1307196,1.8896484375
,90.1375275,1.953125
,90.1834755,1.9873046875
,90.1838355,1.9970703125
,90.1938119,2.001953125
,90.2283328,1.9921875
,90.2329889,1.962890625
,90.2705289,1.923828125
,90.2754755,1.8896484375
,90.3112645,1.85546875
,90.3323596,1.826171875
,90.3328222,1.796875
,90.3677679,1.7724609375
,90.3879054,1.7529296875
,90.395397,1.73828125
,90.4304475,1.7138671875
,90.4361629,1.689453125
,90.4785318,1.669921875
,90.4788971,1.6455078125
,90.4981192,1.6162109375
,90.5137757,1.5869140625
,90.5492684,1.5625
,90.5549886,1.533203125
,90.5901953,1.5087890625
,90.5964176,1.484375
,90.6322936,1.4599609375
,90.6354682,1.435546875
,90.6717905,1.4208984375
,90.6764212,1.4013671875
,90.6984589,1.3916015625
,90.7153843,1.376953125
,90.7503462,1.3720703125
,90.7547691,1.3623046875
,90.7904321,1.3720703125
,90.7958146,1.40625
,90.816536,1.46484375
,90.8562124,1.5673828125
,90.8565704,1.6748046875
,90.9021995,1.7822265625
,90.9025653,1.8701171875
,90.923684,1.943359375
,90.9356287,1.9873046875
,90.9797101,2.01171875
,90.980077,2.021484375
,90.9956125,2.0166015625
,91.0323844,1.9921875
,91.0383623,1.962890625
,91.0554576,1.9287109375
,91.1047533,1.89453125
,91.1051849,1.865234375
,91.1150615,1.8310546875
,91.1498389,1.8017578125
,91.1711503,1.77734375
,91.1769846,1.7578125
,91.2128887,1.728515625
,91.2177322,1.708984375
,91.2348936,1.6796875
,91.2721793,1.66015625
,91.2753587,1.630859375
,91.3114354,1.6015625
,91.3165782,1.572265625
,91.3556031,1.54296875
,91.3573194,1.513671875
,91.3926268,1.4892578125
,91.398838,1.4599609375
,91.4365049,1.4404296875
,91.4369683,1.416015625
,91.4567691,1.396484375
,91.4943559,1.38671875
,91.4948348,1.3720703125
,91.5179142,1.3623046875
,91.5563967,1.34765625
,91.5566914,1.3427734375
,91.5919328,1.34765625
,91.6125297,1.3818359375
,91.6155881,1.435546875
,91.636956,1.5380859375
,91.673732,1.6455078125
,91.6782177,1.767578125
,91.6965087,1.85546875
,91.7404399,1.923828125
,91.7407932,1.97265625
,91.7603498,1.9921875
,91.7789465,1.9970703125
,91.7964219,1.982421875
,91.8310442,1.9677734375
,91.8372607,1.9384765625
,91.8741883,1.904296875
,91.8747906,1.865234375
,91.9115042,1.8310546875
,91.9322447,1.8017578125
,91.9373416,1.7822265625
,91.9559146,1.7578125
,91.9906837,1.7431640625
,91.9958557,1.7236328125
,92.0169836,1.708984375
,92.0372027,1.6845703125
,92.0741667,1.66015625
,92.0796665,1.630859375
,92.1290427,1.6015625
,92.1297159,1.572265625
,92.1410994,1.5380859375
,92.1757019,1.5087890625
,92.1761777,1.4794921875
,92.2072691,1.46484375
,92.2282714,1.4453125
,92.2376454,1.4306640625
,92.2749935,1.416015625
,92.2782663,1.396484375
,92.3156254,1.3818359375
,92.3207477,1.3720703125
,92.3354293,1.3623046875
,92.3700942,1.3720703125
,92.3906017,1.4111328125
,92.3967695,1.46484375
,92.4433306,1.5625
,92.4438147,1.669921875
,92.4587102,1.77734375
,92.5062419,1.8603515625
,92.5066089,1.9287109375
,92.5175089,1.9677734375
,92.5542259,1.9970703125
,92.5589948,2.001953125
,92.5773074,1.9921875
,92.6160863,1.9677734375
,92.6468643,1.9384765625
,92.6472931,1.8994140625
,92.6592733,1.865234375
,92.6760065,1.8310546875
,92.7242246,1.81640625
,92.7245812,1.8017578125
,92.7455133,1.7822265625
,92.7603537,1.767578125
,92.7790618,1.7431640625
,92.8135299,1.71875
,92.8187258,1.6943359375
,92.8535865,1.669921875
,92.8757921,1.6357421875
,92.8799934,1.6064453125
,92.8985323,1.572265625
,92.9335875,1.552734375
,92.9386901,1.5234375
,92.9764469,1.4990234375
,92.976904,1.474609375
,93.0216256,1.455078125
,93.0220389,1.4404296875
,93.0515034,1.4208984375
,93.059832,1.4013671875
,93.0782724,1.3818359375
,93.1142635,1.376953125
,93.1170832,1.3671875
,93.1528807,1.376953125
,93.173204,1.4111328125
,93.1780841,1.484375
,93.2123572,1.58203125
,93.2335207,1.69921875
,93.2386185,1.8017578125
,93.2586161,1.8994140625
,93.2940247,1.962890625
,93.2988504,2.01171875
,93.3205246,2.0263671875
,93.3684434,2.03125
,93.3690387,2.0263671875
,93.381244,1.9970703125
,93.4295582,1.962890625
,93.4301668,1.9287109375
,93.437752,1.8994140625
,93.4724904,1.865234375
,93.49291,1.8408203125
,93.5005067,1.8212890625
,93.5360797,1.8017578125
,93.5414731,1.77734375
,93.586258,1.7626953125
,93.5868428,1.73828125
,93.6033392,1.71875
,93.6185397,1.6845703125
,93.6393777,1.66015625
,93.6817757,1.6357421875
,93.6822369,1.6015625
,93.7010653,1.5673828125
,93.7382517,1.54296875
,93.738834,1.5234375
,93.7759778,1.494140625
,93.8044408,1.4697265625
,93.8048011,1.4453125
,93.8197065,1.42578125
,93.8556915,1.40625
,93.8601926,1.3916015625
,93.8948779,1.3720703125
,93.9016365,1.357421875
,93.9469457,1.3623046875
,93.9475627,1.4013671875
,93.9574695,1.4599609375
,93.9938819,1.572265625
,93.9998117,1.6943359375
,94.0201776,1.7919921875
,94.0549997,1.884765625
,94.0598117,1.943359375
,94.0961397,1.982421875
,94.1009638,2.001953125
,94.1359895,2.0068359375
,94.1660765,1.9921875
,94.1664282,1.97265625
,94.1800806,1.943359375
,94.2264343,1.904296875
,94.2270732,1.8701171875
,94.2422346,1.845703125
,94.2608925,1.81640625
,94.3051934,1.796875
,94.305566,1.7822265625
,94.3249426,1.7626953125
,94.3440477,1.7431640625
,94.3585925,1.7236328125
,94.3923843,1.7138671875
,94.4154037,1.689453125
,94.422216,1.6650390625
,94.45795,1.630859375
,94.4598487,1.6015625
,94.4958401,1.5673828125
,94.5159708,1.54296875
,94.5194349,1.5087890625
,94.5572725,1.4892578125
,94.5613688,1.4697265625
,94.5956465,1.4501953125
,94.600599,1.4306640625
,94.6369694,1.4208984375
,94.6419592,1.40625
,94.6761294,1.3916015625
,94.6971926,1.3818359375
,94.6975622,1.396484375
,94.7330885,1.4404296875
,94.7540886,1.5185546875
,94.7590442,1.6259765625
,94.7950327,1.7333984375
,94.8159603,1.8359375
,94.8209734,1.9091796875
,94.8565068,1.9580078125
,94.8779981,1.9873046875
,94.8786087,2.01171875
,94.9139791,2.01171875
,94.9353285,1.9970703125
,94.9406377,1.97265625
,94.9779738,1.93359375
,94.9808468,1.89453125
,95.0178332,1.85546875
,95.0379479,1.826171875
,95.0431184,1.796875
,95.0787557,1.7724609375
,95.0793635,1.748046875
,95.1175309,1.7333984375
,95.1220038,1.71875
,95.1583033,1.69921875
,95.1636095,1.6748046875
,95.1986791,1.650390625
,95.2019663,1.62109375
,95.2384358,1.5966796875
,95.2681487,1.5625
,95.2690918,1.552734375
,95.2800702,1.533203125
,95.315883,1.5087890625
,95.3354104,1.484375
,95.3407735,1.4599609375
,95.3765906,1.435546875
,95.3963858,1.4208984375
,95.4058006,1.40625
,95.4187913,1.38671875
,95.4534235,1.376953125
,95.4747416,1.3720703125
,95.4829434,1.38671875
,95.5190409,1.4306640625
,95.5237154,1.513671875
,95.5588757,1.6162109375
,95.5625433,1.7236328125
,95.5982404,1.826171875
,95.6261516,1.89453125
,95.6265247,1.953125
,95.6400655,1.9873046875
,95.6756428,2.0068359375
,95.6972419,2.001953125
,95.7026779,1.9873046875
,95.7520686,1.9580078125
,95.7525942,1.9287109375
,95.7639006,1.89453125
,95.7985558,1.865234375
,95.819266,1.8359375
,95.8224992,1.81640625
,95.8413244,1.796875
,95.8921212,1.7822265625
,95.892547,1.7626953125
,95.9220162,1.748046875
,95.9245149,1.7236328125
,95.9587715,1.69921875
,95.9636618,1.6748046875
,96.0003651,1.650390625
,96.0009727,1.6259765625
,96.0476204,1.5966796875
,96.0480135,1.572265625
,96.0646047,1.54296875
,96.1007167,1.513671875
,96.1036224,1.4892578125
,96.1411153,1.4599609375
,96.1414725,1.4404296875
,96.1626765,1.4306640625
,96.1817267,1.4111328125
,96.2201038,1.396484375
,96.2228199,1.3818359375
,96.2672872,1.3623046875
,96.2676414,1.3671875
,96.2864615,1.396484375
,96.3042821,1.474609375
,96.321177,1.5625
,96.35663,1.6796875
,96.3621156,1.7822265625
,96.3971429,1.8701171875
,96.4019117,1.9287109375
,96.439693,1.97265625
,96.4439143,1.9873046875
,96.4777722,1.9873046875
,96.4983052,1.9677734375
,96.5055231,1.943359375
,96.5216375,1.904296875
,96.5571981,1.875
,96.5627019,1.845703125
,96.6097765,1.81640625
,96.6103513,1.7919921875
,96.6395569,1.7724609375
,96.6447461,1.7529296875
,96.6805733,1.7333984375
,96.6856964,1.71875
,96.7019921,1.69921875
,96.7505684,1.6796875
,96.7510742,1.66015625
,96.7632915,1.6357421875
,96.8112843,1.611328125
,96.8115848,1.5869140625
,96.8317888,1.5576171875
,96.8458408,1.5283203125
,96.8806387,1.50390625
,96.8809933,1.4794921875
,96.9154345,1.46484375
,96.9370771,1.4453125
,96.942757,1.4306640625
,96.9794138,1.416015625
,96.9847328,1.396484375
,97.0279149,1.3818359375
,97.0282827,1.3720703125
,97.0430817,1.376953125
,97.0903872,1.4208984375
,97.090812,1.484375
,97.1116695,1.58203125
,97.1238167,1.6845703125
,97.1604967,1.787109375
,97.1650655,1.8603515625
,97.2005818,1.923828125
,97.2049987,1.962890625
,97.2410674,1.97265625
,97.275583,1.9677734375
,97.2760731,1.9482421875
,97.2830752,1.923828125
,97.3228269,1.8896484375
,97.3429651,1.8603515625
,97.3433443,1.826171875
,97.379085,1.796875
,97.3999953,1.767578125
,97.40543,1.73828125
,97.4242504,1.7138671875
,97.472117,1.708984375
,97.4724886,1.689453125
,97.4843057,1.669921875
,97.5205864,1.650390625
,97.5236466,1.6259765625
,97.5581785,1.5966796875
,97.5797953,1.5673828125
,97.5866062,1.54296875
,97.603627,1.513671875
,97.6232682,1.4892578125
,97.6597162,1.4697265625
,97.6800302,1.4453125
,97.6855787,1.42578125
,97.7211575,1.4111328125
,97.7271351,1.3916015625
,97.7460961,1.376953125
,97.7626694,1.3623046875
,97.799032,1.34765625
,97.803878,1.337890625
,97.8446766,1.357421875
,97.8450443,1.4111328125
,97.8802129,1.474609375
,97.8861646,1.58203125
,97.9246204,1.6943359375
,97.9252107,1.8017578125
,97.9609395,1.884765625
,97.9823312,1.9580078125
,97.9827348,1.9921875
,98.0043691,2.0166015625
,98.0498396,2.01171875
,98.0504177,2.001953125
,98.0804092,1.9775390625
,98.0872938,1.943359375
,98.1078173,1.904296875
,98.1286012,1.8701171875
,98.1486649,1.8408203125
,98.1637593,1.806640625
,98.2045105,1.7919921875
,98.204827,1.767578125
,98.2396993,1.7578125
,98.2666248,1.728515625
,98.2670642,1.7138671875
,98.3023033,1.689453125
,98.3078399,1.6650390625
,98.3241801,1.6357421875
,98.3455229,1.6162109375
,98.3660685,1.591796875
,98.4003867,1.5625
,98.4055353,1.5380859375
,98.4510526,1.513671875
,98.4516355,1.4892578125
,98.4663383,1.4697265625
,98.5018882,1.4501953125
,98.5223382,1.435546875
,98.5254192,1.4208984375
,98.5449037,1.40625
,98.5795098,1.3916015625
,98.5998796,1.3818359375
,98.605573,1.396484375
,98.6416678,1.435546875
,98.6617491,1.513671875
,98.6663427,1.611328125
,98.7028337,1.71875
,98.7233433,1.806640625
,98.7264998,1.8994140625
,98.7624742,1.953125
,98.7645434,1.9921875
,98.8021018,2.01171875
,98.8356224,2.001953125
,98.8361835,1.982421875
,98.8493273,1.953125
,98.8853607,1.923828125
,98.8859538,1.884765625
,98.9212019,1.85546875
,98.9261982,1.826171875
,98.9617237,1.8017578125
,98.9891047,1.7822265625
,98.9895079,1.7626953125
,99.0093411,1.7431640625
,99.0434874,1.71875
,99.0438487,1.689453125
,99.077652,1.669921875
,99.0983205,1.640625
,99.1047868,1.62109375
,99.1442152,1.591796875
,99.1460913,1.5576171875
,99.1817606,1.533203125
,99.2045216,1.4990234375
,99.208903,1.4697265625
,99.2254007,1.4404296875
,99.2591983,1.4208984375
,99.2808295,1.4013671875
,99.2865576,1.38671875
,99.322155,1.3671875
,99.3278586,1.357421875
,99.348669,1.3427734375
,99.3846261,1.337890625
,99.3878346,1.357421875
,99.4238218,1.4013671875
,99.4291992,1.484375
,99.4458812,1.58203125
