fs,t,y
51.94453197419756,3.0017392999999997,0.64453125
,3.022863,0.6494140625
,3.0299531999999996,0.6689453125
,3.0467416,0.6884765625
,3.0823907999999998,0.712890625
,3.1184461,0.7373046875
,3.1189023000000002,0.76171875
,3.1253896,0.78125
,3.1631584999999998,0.80078125
,3.1655252999999997,0.8154296875
,3.1866982000000004,0.8251953125
,3.2277500000000003,0.8251953125
,3.228225,0.8203125
,3.247827,0.8154296875
,3.2830513999999997,0.810546875
,3.3046616,0.810546875
,3.3094234,0.810546875
,3.3294161000000004,0.810546875
,3.3460058999999998,0.810546875
,3.3652464999999996,0.810546875
,3.4125936,0.810546875
,3.4129821,0.810546875
,3.4340444000000003,0.80078125
,3.4474494,0.7861328125
,3.4919994,0.7763671875
,3.4924461000000004,0.7666015625
,3.5053222,0.7568359375
,3.5548377,0.751953125
,3.5551521,0.7373046875
,3.5761709,0.7275390625
,3.5889884,0.7177734375
,3.6075339,0.7080078125
,3.6483483999999997,0.703125
,3.6486517999999997,0.693359375
,3.6858765,0.68359375
,3.6863462,0.673828125
,3.7220091,0.6640625
,3.7273764,0.654296875
,3.7766276999999997,0.64453125
,3.7771084999999998,0.634765625
,3.7873151,0.634765625
,3.8241974,0.64453125
,3.8299528,0.6689453125
,3.8490624,0.703125
,3.8661871000000003,0.7275390625
,3.8860200000000003,0.76171875
,3.9329785,0.791015625
,3.9334505999999996,0.8154296875
,3.9633073000000003,0.83984375
,3.9694221,0.859375
,3.9891559,0.87890625
,4.0242584,0.8837890625
,4.0557577,0.8837890625
,4.0562228,0.8740234375
,4.0659538,0.8642578125
,4.1014577,0.859375
,4.1065078,0.8544921875
,4.1434541,0.849609375
,4.1667095,0.83984375
,4.1693128,0.830078125
,4.2035333,0.8203125
,4.2098283,0.810546875
,4.2449667,0.80078125
,4.247436,0.791015625
,4.2838532,0.78125
,4.2867138,0.771484375
,4.3224714,0.76171875
,4.3292288,0.751953125
,4.3702139,0.7421875
,4.3707786,0.732421875
,4.4169341,0.7275390625
,4.4172598,0.7177734375
,4.4269812,0.7177734375
,4.4653002,0.712890625
,4.4657821,0.712890625
,4.5017495,0.7080078125
,4.5222909,0.703125
,4.529896,0.6982421875
,4.5750728,0.6884765625
,4.5754595,0.68359375
,4.5879449,0.6787109375
,4.6071442,0.68359375
,4.6420648,0.6884765625
,4.6631882,0.7177734375
,4.669503,0.7470703125
,4.6887829,0.78125
,4.7241501,0.8056640625
,4.7439148,0.8349609375
,4.7442176,0.859375
,4.7939516,0.8837890625
,4.7942726,0.9033203125
,4.8238837,0.9228515625
,4.8268409,0.9375
,4.8621646,0.9375
,4.8830486,0.9326171875
,4.8908562,0.9228515625
,4.9085225,0.9130859375
,4.9503988,0.9033203125
,4.950719,0.8984375
,4.9694606,0.8935546875
,4.9894224,0.8837890625
,5.0248876,0.8740234375
,5.0336236,0.8642578125
,5.05055,0.8544921875
,5.0699352,0.8447265625
,5.1043186,0.8349609375
,5.1099677,0.8203125
,5.1551873,0.810546875
,5.1556332,0.80078125
,5.186015,0.791015625
,5.1885506,0.78125
,5.2094722,0.771484375
,5.2466163,0.76171875
,5.2483906,0.751953125
,5.2860978,0.7470703125
,5.311408,0.7373046875
,5.3118794,0.732421875
,5.3293424,0.732421875
,5.3661456,0.7275390625
,5.3666297,0.7275390625
,5.4054504,0.7177734375
,5.4363369,0.712890625
,5.4366541,0.7080078125
,5.4509767,0.7177734375
,5.4970506,0.7421875
,5.4973727,0.771484375
,5.5190996,0.80078125
,5.52928,0.830078125
,5.5740412,0.8544921875
,5.5744622,0.8740234375
,5.5896523,0.8935546875
,5.6240397,0.9033203125
,5.6444024,0.9130859375
,5.651634,0.9130859375
,5.686737,0.9033203125
,5.6870574,0.8935546875
,5.7311498,0.8837890625
,5.7316409,0.8740234375
,5.7525132,0.859375
,5.7702098,0.8544921875
,5.7901664,0.849609375
,5.8259348,0.83984375
,5.8475259,0.8349609375
,5.8523012,0.8251953125
,5.8675318,0.8154296875
,5.9036706,0.8056640625
,5.910122,0.7958984375
,5.9298277,0.7861328125
,5.950575,0.7763671875
,5.998306,0.771484375
,5.9986165,0.7666015625
,6.0129629,0.76171875
,6.0280822999999994,0.751953125
,6.0486269,0.751953125
,6.089503499999999,0.7470703125
,6.089813299999999,0.7470703125
,6.119828500000001,0.7421875
,6.1288827,0.7373046875
,6.1671475000000004,0.732421875
,6.1889904,0.7275390625
,6.192152500000001,0.72265625
,6.2085916999999995,0.7177734375
,6.2283569,0.7177734375
,6.262955699999999,0.72265625
,6.283503400000001,0.7373046875
,6.2902418,0.76171875
,6.341642500000001,0.791015625
,6.3420141,0.8203125
,6.353084900000001,0.8447265625
,6.387590100000001,0.8642578125
,6.3936644000000005,0.888671875
,6.4135866,0.9033203125
,6.4294495000000005,0.91796875
,6.465794799999999,0.927734375
,6.470411199999999,0.927734375
,6.5125733,0.9228515625
,6.5128722,0.9130859375
,6.558216399999999,0.9033203125
,6.5585483,0.8935546875
,6.5712773,0.8837890625
,6.618501999999999,0.8740234375
,6.618995999999999,0.8642578125
,6.6301504,0.849609375
,6.6661605,0.83984375
,6.6714286000000005,0.830078125
,6.712906,0.8203125
,6.7133798,0.810546875
,6.732576999999999,0.8056640625
,6.7690503,0.80078125
,6.7696284,0.7958984375
,6.821109399999999,0.7958984375
,6.821593699999999,0.791015625
,6.8310587,0.7861328125
,6.8682221000000006,0.78125
,6.873602099999999,0.7763671875
,6.913373699999999,0.7666015625
,6.913854300000001,0.7666015625
,6.9288183,0.7568359375
,6.9769486999999994,0.751953125
,6.977297500000001,0.7470703125
,7.0074693,0.7421875
,7.0122056,0.7373046875
,7.0320017,0.732421875
,7.0519301,0.7275390625
,7.0863529,0.7275390625
,7.1072752999999995,0.7421875
,7.1126428,0.7666015625
,7.1484097,0.7958984375
,7.1792696,0.8251953125
,7.179638499999999,0.8544921875
,7.1915303999999995,0.87890625
,7.2418163,0.908203125
,7.2422924,0.927734375
,7.273666199999999,0.9521484375
,7.273977800000001,0.9619140625
,7.2945224,0.966796875
,7.3108697,0.966796875
,7.330225799999999,0.95703125
,7.3669814,0.947265625
,7.371407,0.9375
,7.4124415,0.927734375
,7.412760199999999,0.91796875
,7.450365,0.908203125
,7.4508373,0.8935546875
,7.487800699999999,0.8837890625
,7.5082925,0.869140625
,7.510911200000001,0.8642578125
,7.5480082,0.849609375
,7.5511619,0.83984375
,7.571995299999999,0.8251953125
,7.613942700000001,0.810546875
,7.614355,0.80078125
,7.651819400000001,0.7861328125
,7.6522977999999995,0.7763671875
,7.6867529,0.7666015625
,7.692532,0.7568359375
,7.712585799999999,0.751953125
,7.731777900000001,0.7470703125
,7.7671692,0.7373046875
,7.786464199999999,0.732421875
,7.7933957,0.7275390625
,7.829692700000001,0.72265625
,7.8341531,0.712890625
,7.870134800000001,0.7080078125
,7.870437000000001,0.703125
,7.9069731999999995,0.6982421875
,7.911951999999999,0.7080078125
,7.9477025,0.732421875
,7.9536546,0.7568359375
,7.9905778000000005,0.7861328125
,7.995336200000001,0.8154296875
,8.0322527,0.83984375
,8.0402482,0.859375
,8.0516676,0.8740234375
,8.094927,0.888671875
,8.0953181,0.8935546875
,8.1293572,0.8935546875
,8.1320557,0.8837890625
,8.1689846,0.869140625
,8.1738989,0.859375
,8.2218113,0.8544921875
,8.2221349,0.8447265625
,8.232454,0.8349609375
,8.281869,0.830078125
,8.2823452,0.8251953125
,8.2938725,0.8251953125
,8.3289561,0.8251953125
,8.3341109,0.8203125
,8.3685296,0.8154296875
,8.3895962,0.810546875
,8.3900078,0.80078125
,8.4278417,0.7958984375
,8.4331954,0.7861328125
,8.4841682,0.7763671875
,8.4846409,0.7666015625
,8.4919879,0.751953125
,8.5262577,0.7421875
,8.5471123,0.7373046875
,8.5548642,0.7275390625
,8.5775051,0.712890625
,8.5915487,0.703125
,8.6270692,0.6982421875
,8.6469827,0.693359375
,8.653821,0.6884765625
,8.6993766,0.68359375
,8.700005,0.673828125
,8.7143004,0.673828125
,8.7499147,0.6884765625
,8.7710352,0.712890625
,8.7715092,0.7421875
,8.8242263,0.771484375
,8.8247161,0.80078125
,8.8327434,0.830078125
,8.8865991,0.8544921875
,8.8869531,0.87890625
,8.8954628,0.8935546875
,8.930724,0.908203125
,8.9310808,0.9130859375
,8.9509582,0.9130859375
,8.9857019,0.908203125
,9.0068807,0.8984375
,9.0138895,0.888671875
,9.0490632,0.8837890625
,9.0748147,0.8740234375
,9.0751351,0.869140625
,9.1141252,0.8642578125
,9.1147076,0.8544921875
,9.1519578,0.8447265625
,9.152277,0.8349609375
,9.1999134,0.8251953125
,9.2003707,0.8154296875
,9.2131008,0.8056640625
,9.2495584,0.7958984375
,9.2759834,0.7861328125
,9.2763586,0.7763671875
,9.2971237,0.7666015625
,9.3177891,0.7568359375
,9.334298,0.7470703125
,9.3846653,0.7421875
,9.3850002,0.732421875
,9.3942451,0.7275390625
,9.4145446,0.72265625
,9.4495984,0.712890625
,9.4769248,0.7080078125
,9.4772558,0.6982421875
,9.492807,0.693359375
,9.5305633,0.6884765625
,9.5358293,0.693359375
,9.5864359,0.712890625
,9.5867418,0.7421875
,9.5961799,0.771484375
,9.6337088,0.8056640625
,9.6355353,0.8349609375
,9.680051,0.8642578125
,9.6804289,0.888671875
,9.7014013,0.91796875
,9.7144338,0.9326171875
,9.7354903,0.9423828125
,9.7751872,0.947265625
,9.7755142,0.9423828125
,9.796466,0.9375
,9.8374884,0.927734375
,9.837818,0.91796875
,9.855198,0.908203125
,9.8743293,0.8984375
,9.9094868,0.888671875
,9.9304149,0.8740234375
,9.9352095,0.859375
,9.9785766,0.849609375
,9.9790585,0.83984375
,9.9950196,0.8251953125
,10.0302599,0.8154296875
,10.0383441,0.80078125
,10.0527331,0.7861328125
,10.1030742,0.78125
,10.1035512,0.771484375
,10.1164047,0.76171875
,10.1535494,0.751953125
,10.1569412,0.7421875
,10.1941319,0.732421875
,10.1968997,0.72265625
,10.2137851,0.712890625
,10.2475798,0.7080078125
,10.2687583,0.703125
,10.275874,0.693359375
,10.3173486,0.693359375
,10.3177136,0.6884765625
,10.3388979,0.68359375
,10.3568229,0.693359375
,10.3927736,0.712890625
,10.3932688,0.7373046875
,10.4286777,0.771484375
,10.4590079,0.80078125
,10.4594866,0.830078125
,10.4778422,0.8544921875
,10.4976814,0.87890625
,10.5324145,0.8935546875
,10.5369297,0.908203125
,10.5540614,0.91796875
,10.5987891,0.91796875
,10.5991688,0.9130859375
,10.6310899,0.8984375
,10.6342197,0.888671875
,10.6726389,0.87890625
,10.6786791,0.869140625
,10.7134781,0.859375
,10.7166261,0.8544921875
,10.7336506,0.8447265625
,10.7723242,0.83984375
,10.7927031,0.830078125
,10.7985012,0.8203125
,10.816222,0.810546875
,10.8647267,0.80078125
,10.8652357,0.7861328125
,10.8770541,0.7763671875
,10.9288894,0.7666015625
,10.9293737,0.751953125
,10.9390199,0.7421875
,10.9559368,0.732421875
,11.006856,0.72265625
,11.0073277,0.712890625
,11.018085,0.703125
,11.0365617,0.693359375
,11.072276,0.6884765625
,11.0925568,0.6787109375
,11.0988814,0.673828125
,11.1145093,0.6640625
,11.1615035,0.6640625
,11.1619936,0.6591796875
,11.1752768,0.6689453125
,11.2112318,0.693359375
,11.2183144,0.72265625
,11.2687151,0.751953125
,11.2691991,0.78125
,11.27727,0.810546875
,11.2945982,0.8349609375
,11.3303375,0.8642578125
,11.3349057,0.8837890625
,11.3766581,0.8935546875
,11.3771375,0.8984375
,11.3976544,0.8984375
,11.4394522,0.888671875
,11.4399348,0.87890625
,11.4687212,0.869140625
,11.4738228,0.859375
,11.5095323,0.849609375
,11.5290838,0.83984375
,11.5365701,0.830078125
,11.5749786,0.8203125
,11.5794433,0.810546875
,11.5977004,0.8056640625
,11.6334497,0.7958984375
,11.6559692,0.7861328125
,11.6610175,0.771484375
,11.6753355,0.76171875
,11.7152688,0.7568359375
,11.7155763,0.7470703125
,11.7387248,0.7373046875
,11.7754072,0.732421875
,11.7759974,0.72265625
,11.8270884,0.7177734375
,11.8275604,0.712890625
,11.8589245,0.7080078125
,11.8594028,0.703125
,11.8754614,0.6982421875
,11.9205588,0.693359375
,11.9210314,0.6884765625
,11.9506954,0.6884765625
,11.960465,0.68359375
,11.9969454,0.68359375
,11.9972588,0.6982421875
,12.0166888,0.7177734375
,12.0579104,0.7470703125
,12.0582225,0.7763671875
,12.1034221,0.810546875
,12.1042819,0.8349609375
,12.1171155,0.859375
,12.1648081,0.87890625
,12.1652829,0.8984375
,12.1847015,0.9130859375
,12.1964326,0.9228515625
,12.2420003,0.9228515625
,12.2423645,0.9228515625
,12.2632456,0.91796875
,12.2773332,0.9130859375
,12.3132739,0.908203125
,12.3330619,0.9033203125
,12.3407157,0.8984375
,12.3759071,0.888671875
,12.3803391,0.8837890625
,12.397126,0.87890625
,12.4428344,0.8740234375
,12.4431359,0.869140625
,12.4627557,0.8642578125
,12.4785859,0.8544921875
,12.5135144,0.8447265625
,12.5338656,0.830078125
,12.5393652,0.8203125
,12.5745835,0.810546875
,12.595498,0.80078125
,12.5987031,0.791015625
,12.6464612,0.78125
,12.6473611,0.7763671875
,12.6589485,0.7666015625
,12.6945999,0.7568359375
,12.714796,0.7470703125
,12.724928,0.7421875
,12.7361833,0.732421875
,12.787048,0.7275390625
,12.7875244,0.72265625
,12.8171886,0.7275390625
,12.8175298,0.7470703125
,12.8637051,0.7763671875
,12.8642021,0.810546875
,12.8833005,0.83984375
,12.9006937,0.8740234375
,12.9176654,0.9033203125
,12.9531554,0.9326171875
,12.9581476,0.95703125
,12.9938793,0.9765625
,12.9997932,0.9912109375
,13.0358553,0.9912109375
,13.040433,0.986328125
,13.0749514,0.9716796875
,13.0954983,0.9619140625
,13.1009138,0.9423828125
,13.1179059,0.9326171875
,13.1376168,0.9228515625
,13.1727523,0.9130859375
,13.1939381,0.8984375
,13.2011105,0.8837890625
,13.2217191,0.869140625
,13.2406022,0.859375
,13.2864576,0.8447265625
,13.2869291,0.830078125
,13.3171619,0.8154296875
,13.3174916,0.8056640625
,13.3537949,0.7958984375
,13.3593078,0.7861328125
,13.3961423,0.78125
,13.3991614,0.771484375
,13.4382768,0.7666015625
,13.4435232,0.76171875
,13.4619521,0.751953125
,13.4791787,0.7470703125
,13.5157197,0.7373046875
,13.5206944,0.732421875
,13.5555435,0.7275390625
,13.5611711,0.7177734375
,13.59813,0.7177734375
,13.6009899,0.712890625
,13.6473359,0.72265625
,13.6478115,0.7421875
,13.6771113,0.771484375
,13.6774379,0.80078125
,13.7123554,0.8349609375
,13.73322,0.859375
,13.7409035,0.8837890625
,13.7867054,0.9033203125
,13.7871633,0.91796875
,13.8009103,0.927734375
,13.8226206,0.9326171875
,13.8424158,0.9228515625
,13.8594228,0.908203125
,13.8945695,0.8984375
,13.9143322,0.8935546875
,13.9204267,0.8837890625
,13.9410502,0.8740234375
,13.9627913,0.8642578125
,13.984063,0.8544921875
,14.0331431,0.8447265625
,14.033458499999998,0.8349609375
,14.0392975,0.8251953125
,14.081254900000001,0.8154296875
,14.0815652,0.810546875
,14.126564599999998,0.7958984375
,14.1272165,0.7861328125
,14.1426658,0.7763671875
,14.1787153,0.7666015625
,14.183538200000001,0.76171875
,14.2007263,0.7470703125
,14.2193961,0.7421875
,14.2546483,0.732421875
,14.275645999999998,0.7275390625
,14.281035,0.7177734375
,14.301983700000001,0.712890625
,14.338368200000001,0.703125
,14.3436704,0.6982421875
,14.360139,0.693359375
,14.3971114,0.6884765625
,14.397716500000001,0.68359375
,14.4376426,0.6884765625
,14.468286299999999,0.703125
,14.4686411,0.72265625
,14.4824385,0.7568359375
,14.529699699999998,0.7861328125
,14.5301094,0.8154296875
,14.538608100000001,0.83984375
,14.573485000000002,0.8642578125
,14.594711700000001,0.87890625
,14.601574,0.8984375
,14.621166299999999,0.908203125
,14.669087399999999,0.908203125
,14.6694004,0.9033203125
,14.6815179,0.8984375
,14.730805100000001,0.888671875
,14.7312683,0.8837890625
,14.7444721,0.8740234375
,14.758733200000002,0.8642578125
,14.794101000000001,0.8544921875
,14.814332799999999,0.83984375
,14.821883499999998,0.830078125
,14.8735508,0.8203125
,14.874292100000002,0.8056640625
,14.882788000000001,0.7958984375
,14.935672700000001,0.7861328125
,14.936068500000001,0.78125
,14.9405292,0.771484375
,14.975310799999999,0.7666015625
,14.980686299999999,0.7568359375
,15.0176594,0.751953125
,15.044962000000002,0.7470703125
,15.045433200000002,0.7373046875
,15.0641718,0.7373046875
,15.106207900000001,0.7275390625
,15.106776,0.72265625
,15.120275800000002,0.7177734375
,15.156226,0.712890625
,15.176399799999999,0.7080078125
,15.1820025,0.703125
,15.2287979,0.6982421875
,15.229472900000001,0.6884765625
,15.2427761,0.693359375
,15.261538000000002,0.7080078125
,15.2827147,0.7373046875
,15.3016522,0.7666015625
,15.3526946,0.80078125
,15.3529512,0.830078125
,15.363754799999999,0.859375
,15.414300399999998,0.8837890625
,15.4146578,0.908203125
,15.4233327,0.9228515625
,15.4588885,0.9375
,15.4654058,0.9375
,15.481055000000001,0.9375
,15.516108899999999,0.927734375
,15.537227900000001,0.91796875
,15.542246800000001,0.908203125
,15.585197,0.8984375
,15.5855934,0.888671875
,15.603770399999998,0.87890625
,15.6472302,0.8642578125
,15.6476379,0.8544921875
,15.661945200000002,0.8447265625
,15.710164500000001,0.830078125
,15.710839100000001,0.8203125
,15.7215126,0.810546875
,15.773473599999999,0.7958984375
,15.7738059,0.78125
,15.783485299999999,0.771484375
,15.8193524,0.7568359375
,15.8196358,0.7470703125
,15.857396399999999,0.7373046875
,15.862635699999998,0.7275390625
,15.913628500000002,0.7177734375
,15.913933400000001,0.712890625
,15.9223797,0.703125
,15.9605514,0.6982421875
,15.9919191,0.6884765625
,15.992374600000002,0.68359375
,16.0001977,0.6787109375
,16.0397954,0.6787109375
,16.0402761,0.6689453125
,16.0777375,0.6689453125
,16.0991949,0.673828125
,16.1036458,0.6982421875
,16.139156,0.7275390625
,16.1444712,0.7568359375
,16.1819522,0.7861328125
,16.1880892,0.8154296875
,16.2017171,0.83984375
,16.2421239,0.8642578125
,16.2717888,0.8837890625
,16.2721225,0.9033203125
,16.2831598,0.908203125
,16.3202171,0.9033203125
,16.3247969,0.8984375
,16.3665579,0.8837890625
,16.3670488,0.8740234375
,16.3813916,0.8642578125
,16.4294996,0.8544921875
,16.4299849,0.849609375
,16.4441951,0.8349609375
,16.4917568,0.8251953125
,16.4922418,0.810546875
,16.505675,0.80078125
,16.5407755,0.7861328125
,16.5412561,0.7763671875
,16.5608755,0.76171875
,16.5971991,0.7568359375
,16.6179727,0.7470703125
,16.6250837,0.7421875
,16.645674,0.732421875
,16.6651669,0.7275390625
,16.7100736,0.72265625
,16.7107439,0.7177734375
,16.7316467,0.712890625
,16.7435533,0.712890625
,16.7788796,0.7080078125
,16.7853417,0.7080078125
,16.8037973,0.7080078125
,16.8498342,0.7080078125
,16.8502497,0.7080078125
,16.8681483,0.703125
,16.8869864,0.703125
,16.9082807,0.7080078125
,16.9220463,0.7275390625
,16.9589261,0.76171875
,16.9778384,0.791015625
,16.9860079,0.8251953125
,17.005702,0.859375
,17.051436,0.8837890625
,17.0517445,0.9130859375
,17.0663993,0.9326171875
,17.1159707,0.9521484375
,17.1165536,0.95703125
,17.1221562,0.9619140625
,17.1557081,0.95703125
,17.1770016,0.9521484375
,17.1864256,0.9521484375
,17.2068639,0.9423828125
,17.255683,0.9375
,17.2559935,0.9375
,17.2621569,0.9326171875
,17.2979674,0.927734375
,17.3031485,0.9228515625
,17.3482522,0.91796875
,17.3485825,0.908203125
,17.3634595,0.8935546875
,17.4112205,0.888671875
,17.4115276,0.8740234375
,17.4322983,0.8642578125
,17.4433266,0.8544921875
,17.4762432,0.849609375
,17.4973783,0.83984375
,17.5046304,0.8349609375
,17.539552,0.830078125
,17.5460937,0.8203125
,17.5942944,0.8154296875
,17.5946513,0.810546875
,17.6071448,0.80078125
,17.642411,0.791015625
,17.6629529,0.791015625
,17.6635428,0.7861328125
,17.685717,0.78125
,17.735152,0.7763671875
,17.7356237,0.791015625
,17.7445846,0.8154296875
,17.7815267,0.8447265625
,17.7867027,0.87890625
,17.8224587,0.908203125
,17.8228957,0.9326171875
,17.8440059,0.9619140625
,17.8664208,0.986328125
,17.9014053,1.005859375
,17.9042633,1.0205078125
,17.939871,1.025390625
,17.9614526,1.025390625
,17.9668859,1.0205078125
,18.0022169,1.0107421875
,18.0025231,1.005859375
,18.0482783,1.0009765625
,18.0485852,0.99609375
,18.0808401,0.986328125
,18.0876915,0.9765625
,18.106599,0.9716796875
,18.1554629,0.9619140625
,18.1558011,0.9521484375
,18.1634761,0.9423828125
,18.2003784,0.9326171875
,18.2075113,0.9228515625
,18.2246073,0.9130859375
,18.262851,0.9033203125
,18.282887,0.8984375
,18.2879324,0.888671875
,18.3251602,0.8837890625
,18.3254735,0.87890625
,18.3485285,0.869140625
,18.3681346,0.8642578125
,18.3853557,0.859375
,18.422081,0.8544921875
,18.4277673,0.8544921875
,18.4466119,0.849609375
,18.4966217,0.8447265625
,18.4970995,0.8447265625
,18.5090588,0.8447265625
,18.5430301,0.8447265625
,18.5433981,0.8544921875
,18.5643909,0.87890625
,18.6009791,0.9130859375
,18.6211364,0.9423828125
,18.6263824,0.9765625
,18.6612616,1.005859375
,18.6813176,1.03515625
,18.6883562,1.0595703125
,18.7300408,1.0791015625
,18.7305142,1.0986328125
,18.7613664,1.1083984375
,18.7660423,1.1083984375
,18.7878246,1.1083984375
,18.8222578,1.09375
,18.8278753,1.083984375
,18.8644869,1.07421875
,18.8671933,1.064453125
,18.9021285,1.0498046875
,18.9053035,1.0400390625
,18.9468307,1.025390625
,18.9473194,1.015625
,18.9659819,1.005859375
,19.0088137,0.99609375
,19.0091194,0.9814453125
,19.0288222,0.9716796875
,19.0660381,0.95703125
,19.0666322,0.947265625
,19.0907384,0.9375
,19.10687,0.9228515625
,19.1267159,0.91796875
,19.1626147,0.908203125
,19.1675068,0.9033203125
,19.2110021,0.8984375
,19.2117084,0.8935546875
,19.2283457,0.8837890625
,19.265279,0.87890625
,19.2701047,0.8740234375
,19.2865586,0.869140625
,19.3054567,0.8642578125
,19.3513229,0.859375
,19.3517952,0.8544921875
,19.3817836,0.859375
,19.3899809,0.869140625
,19.4099134,0.8935546875
,19.4298507,0.9228515625
,19.4461995,0.947265625
,19.4915572,0.9765625
,19.4920484,1.005859375
,19.5077884,1.025390625
,19.5439664,1.044921875
,19.5471126,1.064453125
,19.5846797,1.07421875
,19.5903202,1.07421875
,19.6261058,1.064453125
,19.6264778,1.0595703125
,19.6787991,1.0498046875
,19.6792847,1.0400390625
,19.6874307,1.03515625
,19.740336,1.025390625
,19.740821,1.015625
,19.7483779,1.005859375
,19.7875213,0.9912109375
,19.7878659,0.9814453125
,19.8064722,0.9716796875
,19.8479213,0.9619140625
,19.8482296,0.9521484375
,19.8828866,0.9423828125
,19.8874251,0.9326171875
,19.9235491,0.9228515625
,19.9286517,0.9130859375
,19.9621904,0.908203125
,19.9829329,0.8984375
,19.9887791,0.888671875
,20.007359,0.87890625
,20.0429737,0.8740234375
,20.0689198,0.869140625
,20.0692966,0.859375
,20.1060872,0.8544921875
,20.1107188,0.849609375
,20.1292426,0.83984375
,20.1771947,0.8349609375
,20.177555,0.8251953125
,20.2083465,0.830078125
,20.2088216,0.8447265625
,20.2287438,0.869140625
,20.2478084,0.8935546875
,20.28489,0.9228515625
,20.3155063,0.947265625
,20.31598,0.9716796875
,20.3314144,0.99609375
,20.3472705,1.015625
,20.392983,1.0302734375
,20.3934688,1.03515625
,20.4069561,1.03515625
,20.4545889,1.025390625
,20.4549935,1.0205078125
,20.486081,1.005859375
,20.4909559,0.99609375
,20.5333493,0.986328125
,20.533838,0.9765625
,20.5487258,0.966796875
,20.5838805,0.95703125
,20.589127,0.947265625
,20.6256684,0.9326171875
,20.6307127,0.9228515625
,20.6510537,0.908203125
,20.6914859,0.8984375
,20.6919486,0.888671875
,20.7283199,0.87890625
,20.7288928,0.869140625
,20.7660005,0.859375
,20.7664815,0.8544921875
,20.803788,0.8447265625
,20.833386,0.83984375
,20.8338608,0.8349609375
,20.8507694,0.830078125
,20.8960085,0.8251953125
,20.8965205,0.8203125
,20.9072193,0.8154296875
,20.9421234,0.810546875
,20.9635031,0.810546875
,20.9702917,0.8056640625
,20.9890575,0.8056640625
,21.0360389,0.810546875
,21.0365364,0.8349609375
,21.0660714,0.8642578125
,21.0665537,0.8935546875
,21.101731,0.9228515625
,21.1224659,0.947265625
,21.1302614,0.9765625
,21.1494293,1.0009765625
,21.1847869,1.0205078125
,21.1905871,1.0302734375
,21.2356866,1.0400390625
,21.236483,1.03515625
,21.2492217,1.0302734375
,21.2969293,1.0205078125
,21.2974061,1.005859375
,21.3100428,0.99609375
,21.3450126,0.986328125
,21.3511368,0.9716796875
,21.3889522,0.9619140625
,21.3895217,0.9521484375
,21.4250179,0.9375
,21.4459533,0.927734375
,21.4491629,0.91796875
,21.4987293,0.908203125
,21.4990357,0.8984375
,21.5090483,0.888671875
,21.5450819,0.8740234375
,21.5647678,0.8642578125
,21.5703807,0.859375
,21.6246132,0.849609375
,21.625103,0.83984375
,21.6275472,0.830078125
,21.6702278,0.8251953125
,21.6706287,0.8154296875
,21.7081749,0.810546875
,21.7087584,0.80078125
,21.7446499,0.7958984375
,21.7655761,0.791015625
,21.7723991,0.791015625
,21.8111775,0.7861328125
,21.8115965,0.78125
,21.8300061,0.791015625
,21.8735229,0.8056640625
,21.8738704,0.83984375
,21.8919798,0.869140625
,21.9119643,0.8984375
,21.9497725,0.927734375
,21.950103,0.9521484375
,21.9977476,0.9765625
,21.9980986,0.99609375
,22.0104195,1.015625
,22.059855,1.0205078125
,22.060574,1.025390625
,22.0714997,1.015625
,22.1072202,1.005859375
,22.1118366,0.9912109375
,22.1549099,0.9765625
,22.1552906,0.966796875
,22.1747009,0.9521484375
,22.1912901,0.9423828125
,22.2342008,0.9326171875
,22.234705,0.9228515625
,22.2513831,0.908203125
,22.2720752,0.8984375
,22.3111032,0.888671875
,22.3142005,0.87890625
,22.3333308,0.869140625
,22.349233,0.859375
,22.3914299,0.849609375
,22.391793,0.83984375
,22.410042,0.830078125
,22.4464543,0.8203125
,22.452143,0.8154296875
,22.4873598,0.8056640625
,22.491628,0.7958984375
,22.513215,0.791015625
,22.5302456,0.78125
,22.5776608,0.7763671875
,22.5779849,0.771484375
,22.5909537,0.7666015625
,22.6395342,0.7568359375
,22.640084,0.7568359375
,22.6525329,0.7568359375
,22.7035884,0.771484375
,22.7040647,0.791015625
,22.7345011,0.8251953125
,22.7349781,0.849609375
,22.7499889,0.8740234375
,22.7731369,0.8984375
,22.7928301,0.91796875
,22.8136471,0.9375
,22.8494638,0.947265625
,22.8518266,0.9521484375
,22.8747823,0.947265625
,22.9094032,0.9375
,22.9350657,0.9326171875
,22.9355193,0.9228515625
,22.9530954,0.9130859375
,22.9725554,0.9033203125
,23.0143401,0.8935546875
,23.0148166,0.8837890625
,23.0503612,0.8740234375
,23.0559883,0.859375
,23.1057191,0.849609375
,23.1060302,0.83984375
,23.1127836,0.830078125
,23.1315775,0.8203125
,23.1523485,0.810546875
,23.1858069,0.8056640625
,23.2066102,0.80078125
,23.214878,0.791015625
,23.2344432,0.7861328125
,23.2498801,0.78125
,23.2939065,0.7763671875
,23.2947146,0.771484375
,23.3238495,0.7666015625
,23.3329301,0.76171875
,23.3675326,0.7568359375
,23.3741797,0.751953125
,23.4102321,0.751953125
,23.4131312,0.7470703125
,23.4303007,0.7421875
,23.4691351,0.7421875
,23.469611,0.7470703125
,23.5031813,0.7666015625
,23.5235567,0.7958984375
,23.5340543,0.8251953125
,23.5718961,0.8544921875
,23.5722341,0.8837890625
,23.5948629,0.908203125
,23.6169303,0.927734375
,23.6318812,0.9423828125
,23.6724555,0.95703125
,23.6727688,0.966796875
,23.7085683,0.966796875
,23.7280401,0.9619140625
,23.7330696,0.9521484375
,23.7822076,0.9423828125
,23.782513,0.9326171875
,23.8036419,0.9228515625
,23.8134389,0.9130859375
,23.8330882,0.9033203125
,23.8678611,0.8935546875
,23.8747351,0.8837890625
,23.9098829,0.8740234375
,23.9152881,0.8642578125
,23.9529693,0.8544921875
,23.9532956,0.8447265625
,23.9724231,0.8349609375
,24.0166373,0.830078125
,24.0171254,0.8203125
,24.0325415,0.8154296875
,24.0660228,0.8056640625
,24.0870694,0.80078125
,24.0943595,0.7958984375
,24.1156407,0.791015625
,24.1338913,0.7861328125
,24.1519497,0.78125
,24.1870665,0.7763671875
,24.2084613,0.7763671875
,24.2130495,0.771484375
,24.26399,0.7666015625
,24.2643452,0.76171875
,24.2743565,0.76171875
,24.309948,0.7666015625
,24.3307143,0.78125
,24.3310564,0.810546875
,24.3674955,0.8447265625
,24.3885235,0.869140625
,24.3943932,0.8984375
,24.435638,0.9228515625
,24.4359704,0.9521484375
,24.4547261,0.9716796875
,24.4898648,0.9912109375
,24.5102942,1.0009765625
,24.515951,1.005859375
,24.5325069,1.0009765625
,24.5754671,0.9912109375
,24.5758648,0.9814453125
,24.6218235,0.9716796875
,24.6221482,0.9619140625
,24.6339002,0.9521484375
,24.6711609,0.9423828125
,24.6747662,0.927734375
,24.718297,0.91796875
,24.7187721,0.9033203125
,24.7490243,0.8935546875
,24.7537511,0.8837890625
,24.7890254,0.869140625
,24.7951814,0.859375
,24.8309184,0.849609375
,24.836342,0.83984375
,24.8576975,0.830078125
,24.873008,0.8203125
,24.9181228,0.810546875
,24.9186237,0.8056640625
,24.9323399,0.80078125
,24.9650158,0.7958984375
,24.9873454,0.791015625
,24.9968902,0.791015625
,25.0157277,0.7861328125
,25.0518527,0.78125
,25.0523167,0.7763671875
,25.0897078,0.771484375
,25.0945858,0.771484375
,25.1138333,0.771484375
,25.1501019,0.7763671875
,25.1712582,0.80078125
,25.1761366,0.8251953125
,25.2286235,0.8544921875
,25.2291115,0.8837890625
,25.2372502,0.908203125
,25.252774,0.927734375
,25.3054822,0.947265625
,25.3059624,0.9619140625
,25.3138929,0.9716796875
,25.3672205,0.9716796875
,25.3675544,0.966796875
,25.3764782,0.95703125
,25.4125243,0.947265625
,25.416736,0.9375
,25.4318223,0.927734375
,25.4665967,0.91796875
,25.4883615,0.908203125
,25.4959422,0.8984375
,25.5163572,0.888671875
,25.5361162,0.8837890625
,25.5835836,0.8740234375
,25.5839169,0.8642578125
,25.604829,0.849609375
,25.6152151,0.8447265625
,25.6621701,0.8349609375
,25.6626575,0.8251953125
,25.6746611,0.8203125
,25.7111691,0.810546875
,25.7163949,0.8056640625
,25.7546642,0.7958984375
,25.7551055,0.791015625
,25.8015015,0.7861328125
,25.8019838,0.78125
,25.815816,0.771484375
,25.8496506,0.7666015625
,25.8544336,0.76171875
,25.8776162,0.7568359375
,25.9109126,0.751953125
,25.9168721,0.7470703125
,25.9570855,0.7470703125
,25.9853205,0.751953125
,25.9856805,0.7763671875
,25.9924891,0.80078125
,26.0333106,0.830078125
,26.0635288,0.859375
,26.0638646,0.8837890625
,26.0784456,0.908203125
,26.0972643,0.927734375
,26.1326321,0.9423828125
,26.1370918,0.95703125
,26.1535684,0.95703125
,26.1912449,0.95703125
,26.1941266,0.9521484375
,26.231788,0.9423828125
,26.2374467,0.9375
,26.2731262,0.927734375
,26.2793153,0.91796875
,26.2981873,0.908203125
,26.3451901,0.8984375
,26.3459052,0.888671875
,26.356192,0.8837890625
,26.3769092,0.8740234375
,26.4107534,0.8642578125
,26.4157482,0.8544921875
,26.4520129,0.8447265625
,26.4728055,0.8349609375
,26.4774249,0.830078125
,26.4935431,0.8203125
,26.5290297,0.8203125
,26.5495602,0.8154296875
,26.5563795,0.8056640625
,26.5908905,0.80078125
,26.6116872,0.7958984375
,26.6170519,0.791015625
,26.6538323,0.7861328125
,26.6584111,0.78125
,26.7024303,0.7763671875
,26.7027368,0.771484375
,26.7143145,0.771484375
,26.7494255,0.7666015625
,26.7709603,0.7666015625
,26.776991,0.771484375
,26.8269965,0.791015625
,26.8274706,0.8203125
,26.8576825,0.849609375
,26.8581645,0.87890625
,26.8776224,0.908203125
,26.8962439,0.9375
,26.9315138,0.9619140625
,26.952819,0.986328125
,26.9571348,1.0009765625
,26.9932034,1.0107421875
,27.0141963,1.0107421875
,27.0187522,1.005859375
,27.0555907,0.99609375
,27.0561618,0.986328125
,27.093245,0.9765625
,27.0979331,0.966796875
,27.139811,0.95703125
,27.140131,0.9423828125
,27.1590083,0.9326171875
,27.2025476,0.9228515625
,27.2030204,0.908203125
,27.2332687,0.8984375
,27.2337408,0.888671875
,27.2564634,0.8740234375
,27.2959146,0.8642578125
,27.2962564,0.8544921875
,27.3331654,0.8447265625
,27.3381837,0.8349609375
,27.3746874,0.8251953125
,27.3837854,0.8154296875
,27.3993492,0.810546875
,27.4344345,0.7958984375
,27.4553573,0.791015625
,27.4578074,0.7861328125
,27.4933389,0.7861328125
,27.4973535,0.78125
,27.5447543,0.7763671875
,27.5451299,0.771484375
,27.5597164,0.7666015625
,27.6077853,0.76171875
,27.6081713,0.7666015625
,27.6178634,0.7763671875
,27.6536882,0.80078125
,27.6592079,0.830078125
,27.6777043,0.859375
,27.7121465,0.8837890625
,27.7328907,0.908203125
,27.7411451,0.9326171875
,27.76004,0.9521484375
,27.7766023,0.966796875
,27.8114439,0.9814453125
,27.8324328,0.9814453125
,27.838329,0.9765625
,27.8846247,0.9716796875
,27.8850885,0.9619140625
,27.9013423,0.947265625
,27.9201282,0.9375
,27.940067,0.927734375
,27.9558072,0.91796875
,27.9920089,0.908203125
,27.9993889,0.8984375
,28.0190394,0.8935546875
,28.0568883,0.8837890625
,28.0595327,0.8740234375
,28.0987118,0.8642578125
,28.0992042,0.8544921875
,28.1189123,0.8447265625
,28.1538773,0.8349609375
,28.1585921,0.8203125
,28.179386,0.8154296875
,28.200247,0.810546875
,28.2186198,0.80078125
,28.2540959,0.7958984375
,28.2597071,0.7958984375
,28.3013675,0.7861328125
,28.3055063,0.78125
,28.3222929,0.7763671875
,28.337681,0.771484375
,28.3808571,0.7666015625
,28.3817373,0.76171875
,28.3974255,0.7568359375
,28.4317222,0.7568359375
,28.4523365,0.7666015625
,28.4602463,0.7861328125
,28.4982138,0.8154296875
,28.49855,0.83984375
,28.5365986,0.869140625
,28.5369055,0.8935546875
,28.5813842,0.9130859375
,28.5817245,0.9326171875
,28.5980297,0.947265625
,28.6331623,0.95703125
,28.6534309,0.95703125
,28.6612001,0.9521484375
,28.6778484,0.9423828125
,28.7197369,0.9326171875
,28.720212,0.9228515625
,28.7386226,0.91796875
,28.775132,0.908203125
,28.7805888,0.9033203125
,28.8289515,0.9033203125
,28.8294398,0.8984375
,28.8406834,0.8935546875
,28.8579752,0.888671875
,28.8922739,0.87890625
,28.9132618,0.869140625
,28.9189344,0.8642578125
,28.9576184,0.8544921875
,28.9581984,0.8447265625
,28.9989822,0.83984375
,29.0300877,0.830078125
,29.0304677,0.8203125
,29.0410038,0.810546875
,29.0601905,0.80078125
,29.0931687,0.7958984375
,29.0973249,0.7861328125
,29.1338613,0.78125
,29.1546637,0.771484375
,29.1596644,0.7666015625
,29.1992588,0.76171875
,29.199693,0.7568359375
,29.2458104,0.751953125
,29.2461358,0.7568359375
,29.2772668,0.771484375
,29.2777789,0.7958984375
,29.3139786,0.830078125
,29.3350588,0.859375
,29.3406434,0.888671875
,29.3763114,0.9130859375
,29.382323,0.9326171875
,29.3997908,0.9521484375
,29.434659,0.9716796875
,29.4403723,0.9814453125
,29.4813915,0.9814453125
,29.4817612,0.9814453125
,29.5008012,0.9716796875
,29.542301,0.9619140625
,29.5426295,0.947265625
,29.5895662,0.9423828125
,29.5900399,0.927734375
,29.6090867,0.9228515625
,29.6194614,0.9130859375
,29.6527902,0.9033203125
,29.675192,0.8935546875
,29.6816132,0.8837890625
,29.699928,0.8740234375
,29.7446119,0.869140625
,29.7449576,0.8642578125
,29.7632681,0.859375
,29.7797383,0.859375
,29.8222093,0.859375
,29.8226742,0.859375
,29.8707152,0.859375
,29.871041,0.8642578125
,29.8813704,0.8642578125
,29.9166179,0.8642578125
,29.9370854,0.859375
,29.9418381,0.8544921875
,29.9581535,0.8447265625
,30.006917100000003,0.8349609375
,30.0074076,0.830078125
,30.027695899999998,0.8154296875
,30.0404706,0.8056640625
,30.076957299999997,0.80078125
,30.096801900000003,0.8056640625
,30.103210500000003,0.8251953125
,30.1484325,0.849609375
,30.148741299999998,0.8740234375
,30.168676599999998,0.8984375
,30.1807867,0.91796875
,30.2167101,0.9375
,30.240736300000002,0.95703125
,30.241207699999997,0.9716796875
,30.287077500000002,0.9814453125
,30.2873958,0.9814453125
,30.297632299999997,0.9765625
,30.335533400000003,0.966796875
,30.3671159,0.95703125
,30.367595700000003,0.947265625
,30.380074299999997,0.9375
,30.4167908,0.927734375
,30.438838599999997,0.9130859375
,30.4447342,0.9033203125
,30.4804307,0.8935546875
,30.484554199999998,0.87890625
,30.520808799999998,0.869140625
,30.5211786,0.8544921875
,30.5570982,0.8447265625
,30.562439599999998,0.8349609375
,30.582727499999997,0.8251953125
,30.617882899999998,0.8154296875
,30.623223799999998,0.8056640625
,30.6587514,0.7958984375
,30.663275900000002,0.7861328125
,30.682757100000003,0.7763671875
,30.7026428,0.771484375
,30.737725400000002,0.7666015625
,30.743449,0.76171875
,30.762655100000003,0.7568359375
,30.799888000000003,0.751953125
,30.8047143,0.7470703125
,30.841129700000003,0.7373046875
,30.8416031,0.732421875
,30.860033700000002,0.7275390625
,30.882403600000004,0.7275390625
,30.9011833,0.7421875
,30.9221839,0.7666015625
,30.944324199999997,0.7958984375
,30.962435999999997,0.8251953125
,30.998536100000003,0.849609375
,31.019450399999997,0.8740234375
,31.0197734,0.8935546875
,31.0416722,0.9130859375
,31.063814299999997,0.9228515625
,31.0980518,0.9326171875
,31.102837299999997,0.927734375
,31.1489019,0.9228515625
,31.1493835,0.908203125
,31.1655089,0.8984375
,31.185356400000003,0.888671875
,31.223987,0.8837890625
,31.224463200000002,0.8740234375
,31.241937,0.869140625
,31.286354699999997,0.859375
,31.286664299999998,0.8544921875
,31.3019392,0.8447265625
,31.337812999999997,0.83984375
,31.3587822,0.830078125
,31.364404399999998,0.8251953125
,31.385105600000003,0.8154296875
,31.426519,0.8056640625
,31.4275088,0.7958984375
,31.441018200000002,0.7861328125
,31.4787095,0.78125
,31.4988738,0.7763671875
,31.50338,0.7666015625
,31.549484399999997,0.76171875
,31.549971,0.7568359375
,31.564823099999998,0.751953125
,31.581091100000002,0.7470703125
,31.632510099999998,0.7470703125
,31.632846299999997,0.7421875
,31.6430874,0.7421875
,31.6803448,0.7373046875
,31.6851044,0.7373046875
,31.704045100000002,0.7470703125
,31.738508799999998,0.771484375
,31.759236700000002,0.80078125
,31.760747100000003,0.8349609375
,31.7945286,0.8642578125
,31.8157766,0.8935546875
,31.8231891,0.91796875
,31.865482399999998,0.9375
,31.8658674,0.9521484375
,31.882785900000002,0.9619140625
,31.9200642,0.966796875
,31.945239800000003,0.9619140625
,31.945727400000003,0.9521484375
,31.966116999999997,0.9423828125
,31.9835425,0.9326171875
,32.0200175,0.927734375
,32.0248205,0.91796875
,32.0672013,0.908203125
,32.0676591,0.8984375
,32.0859782,0.888671875
,32.130094,0.87890625
,32.1304573,0.869140625
,32.1438247,0.859375
,32.1794013,0.8544921875
,32.1817822,0.8447265625
,32.2183276,0.8349609375
,32.2226852,0.8251953125
,32.2582891,0.8203125
,32.2794524,0.810546875
,32.2854651,0.8056640625
,32.3025242,0.7958984375
,32.3378369,0.7958984375
,32.3580616,0.7861328125
,32.3637355,0.78125
,32.3988618,0.7763671875
,32.405283,0.7763671875
,32.4439837,0.7666015625
,32.4449357,0.7666015625
,32.4906029,0.76171875
,32.4910303,0.7568359375
,32.5017139,0.7666015625
,32.5351234,0.78125
,32.5565247,0.810546875
,32.5640819,0.83984375
,32.6146645,0.869140625
,32.6149904,0.8935546875
,32.6456188,0.9228515625
,32.6459305,0.9423828125
,32.6681094,0.9619140625
,32.6883616,0.9765625
,32.7041482,0.9814453125
,32.7396013,0.986328125
,32.7593745,0.9814453125
,32.7634391,0.9716796875
,32.7996564,0.9619140625
,32.8205431,0.9521484375
,32.827182,0.9423828125
,32.8786242,0.9326171875
,32.8789468,0.91796875
,32.8846553,0.908203125
,32.9255581,0.8984375
,32.9259435,0.888671875
,32.9620028,0.87890625
,32.9672096,0.869140625
,32.9867855,0.859375
,33.0227192,0.8447265625
,33.0277726,0.8349609375
,33.0432209,0.8251953125
,33.0784983,0.8203125
,33.0995162,0.8154296875
,33.1061274,0.810546875
,33.1429999,0.80078125
,33.1435708,0.7958984375
,33.1898252,0.791015625
,33.1903028,0.7861328125
,33.2087639,0.7763671875
,33.224192,0.771484375
,33.2674454,0.7666015625
,33.2677573,0.7666015625
,33.2842434,0.7568359375
,33.3193604,0.7568359375
,33.3401614,0.76171875
,33.3443682,0.78125
,33.3935951,0.8056640625
,33.3939236,0.8349609375
,33.4148122,0.8642578125
,33.4247388,0.8837890625
,33.4600022,0.9130859375
,33.4651469,0.9375
,33.4978886,0.9619140625
,33.5189095,0.9716796875
,33.5278717,0.9814453125
,33.5635559,0.9765625
,33.5659353,0.9716796875
,33.6024995,0.9619140625
,33.6029988,0.9521484375
,33.6451292,0.9423828125
,33.6761661,0.9326171875
,33.6766384,0.91796875
,33.6861962,0.908203125
,33.7209426,0.8935546875
,33.7396334,0.8837890625
,33.7478595,0.8740234375
,33.7635315,0.859375
,33.7985748,0.8544921875
,33.819411,0.8447265625
,33.8236292,0.8349609375
,33.862819,0.8251953125
,33.8920524,0.8154296875
,33.8925117,0.8056640625
,33.9085025,0.7958984375
,33.9243924,0.7861328125
,33.9607256,0.7763671875
,33.9656009,0.771484375
,34.0031606,0.76171875
,34.0060056,0.7568359375
,34.041681,0.751953125
,34.0469244,0.7470703125
,34.0665832,0.7373046875
,34.1043664,0.732421875
,34.1048395,0.732421875
,34.1236766,0.732421875
,34.1754197,0.7470703125
,34.1758986,0.7763671875
,34.20524,0.8056640625
,34.2055586,0.8349609375
,34.2401176,0.859375
,34.2609588,0.8837890625
,34.2665693,0.9033203125
,34.3157438,0.9228515625
,34.3160487,0.9326171875
,34.3252718,0.9375
,34.361094,0.9326171875
,34.3819546,0.927734375
,34.3869913,0.91796875
,34.4083058,0.908203125
,34.4453899,0.8984375
,34.4484961,0.8935546875
,34.4851028,0.8837890625
,34.4861405,0.8740234375
,34.5069316,0.8642578125
,34.5423093,0.8544921875
,34.547068,0.8447265625
,34.567222,0.8349609375
,34.6093742,0.8251953125
,34.6097116,0.8203125
,34.6307962,0.810546875
,34.6489959,0.80078125
,34.6653391,0.791015625
,34.7020242,0.7861328125
,34.7072285,0.78125
,34.7486794,0.7763671875
,34.7491507,0.771484375
,34.7694659,0.7666015625
,34.7892851,0.76171875
,34.8247311,0.7568359375
,34.8252052,0.7470703125
,34.8600023,0.7470703125
,34.8648768,0.7421875
,34.9013148,0.7373046875
,34.9208396,0.732421875
,34.9289357,0.7373046875
,34.9801281,0.7470703125
,34.9805801,0.771484375
,34.9897658,0.8056640625
,35.026664,0.8349609375
,35.0294732,0.8642578125
,35.0459564,0.888671875
,35.0903906,0.9130859375
,35.090877,0.9326171875
,35.1083781,0.9521484375
,35.147315,0.95703125
,35.1477878,0.9619140625
,35.1853076,0.95703125
,35.2081092,0.947265625
,35.208582,0.9423828125
,35.2260958,0.9326171875
,35.2641639,0.9228515625
,35.2688606,0.9130859375
,35.2897482,0.9033203125
,35.3253764,0.8935546875
,35.327678,0.8837890625
,35.3637042,0.8740234375
,35.3856795,0.8642578125
,35.3863514,0.849609375
,35.4230271,0.83984375
,35.4279806,0.830078125
,35.4626845,0.8203125
,35.4676739,0.8154296875
,35.5192341,0.8056640625
,35.5200381,0.80078125
,35.5296627,0.7958984375
,35.5459248,0.791015625
,35.5814092,0.7861328125
,35.5875244,0.78125
,35.6231722,0.7763671875
,35.6281364,0.771484375
,35.6644464,0.7666015625
,35.6690406,0.76171875
,35.7215952,0.7568359375
,35.7220806,0.751953125
,35.7315798,0.7470703125
,35.7833699,0.7568359375
,35.7838534,0.771484375
,35.7871763,0.80078125
,35.8239861,0.830078125
,35.8295156,0.859375
,35.865299,0.888671875
,35.8712039,0.9130859375
,35.8907941,0.9423828125
,35.9383875,0.95703125
,35.9387476,0.9716796875
,35.9702105,0.9814453125
,35.9706681,0.9814453125
,35.9885726,0.9765625
,36.0319136,0.966796875
,36.0322168,0.9521484375
,36.050212,0.9423828125
,36.0714058,0.9326171875
,36.1083653,0.9228515625
,36.1089417,0.908203125
,36.1280717,0.8984375
,36.1628486,0.888671875
,36.1829626,0.87890625
,36.1879169,0.869140625
,36.2238799,0.859375
,36.2441648,0.8544921875
,36.2513766,0.8447265625
,36.2708104,0.83984375
,36.2877531,0.830078125
,36.3283133,0.8251953125
,36.3286224,0.8154296875
,36.3736455,0.810546875
,36.3739758,0.80078125
,36.3904598,0.7958984375
,36.4268078,0.791015625
,36.431581,0.78125
,36.4515268,0.7763671875
,36.4980265,0.7666015625
,36.4983458,0.76171875
,36.5089083,0.7568359375
,36.54469,0.751953125
,36.5527289,0.7470703125
,36.5704239,0.751953125
,36.6077625,0.7666015625
,36.6279848,0.7958984375
,36.6284643,0.8203125
,36.6637986,0.8447265625
,36.6848168,0.8642578125
,36.6868271,0.888671875
,36.7233665,0.9033203125
,36.7452942,0.91796875
,36.7499644,0.927734375
,36.7854644,0.927734375
,36.7916269,0.9228515625
,36.8270468,0.9130859375
,36.8276144,0.9033203125
,36.8641591,0.8935546875
,36.8691256,0.8837890625
,36.9185653,0.8740234375
,36.9188701,0.8642578125
,36.9292372,0.8544921875
,36.9646083,0.83984375
,36.985381,0.830078125
,36.9930224,0.8203125
,37.0084897,0.810546875
,37.0444774,0.8056640625
,37.0495056,0.7958984375
,37.0906277,0.791015625
,37.0909341,0.78125
,37.1110727,0.7763671875
,37.1543124,0.7666015625
,37.1546239,0.76171875
,37.1845808,0.751953125
,37.1957385,0.7470703125
,37.2124495,0.7373046875
,37.2300541,0.732421875
,37.2650496,0.7275390625
,37.2699756,0.72265625
,37.3089211,0.7177734375
,37.3093972,0.7177734375
,37.354876,0.712890625
,37.355316,0.712890625
,37.3741956,0.72265625
,37.3893501,0.7421875
,37.4324726,0.771484375
,37.4327782,0.80078125
,37.449453,0.8349609375
,37.4842333,0.859375
,37.5052614,0.8837890625
,37.5106777,0.9130859375
,37.5434474,0.927734375
,37.567049,0.9423828125
,37.5679224,0.947265625
,37.5908446,0.9521484375
,37.6253919,0.9423828125
,37.6301072,0.9375
,37.6659968,0.927734375
,37.686815,0.91796875
,37.6919821,0.908203125
,37.7278966,0.8984375
,37.7282318,0.888671875
,37.7748477,0.8837890625
,37.7752222,0.8740234375
,37.7892152,0.8642578125
,37.8271225,0.8544921875
,37.8318252,0.8447265625
,37.8829482,0.8349609375
,37.8833687,0.8251953125
,37.890617,0.8154296875
,37.9100981,0.8056640625
,37.959603,0.7958984375
,37.9600661,0.78125
,37.9705152,0.7763671875
,38.0072019,0.771484375
,38.028386,0.771484375
,38.0317819,0.771484375
,38.0536784,0.7666015625
,38.0889513,0.7666015625
,38.093572,0.7666015625
,38.1106562,0.7666015625
,38.1607605,0.771484375
,38.1613338,0.771484375
,38.169944,0.771484375
,38.1919788,0.7861328125
,38.2391269,0.8056640625
,38.2394327,0.83984375
,38.2529379,0.8642578125
,38.2876093,0.8984375
,38.3083979,0.9228515625
,38.3088889,0.947265625
,38.3480204,0.9716796875
,38.38084,0.9912109375
,38.3813171,1.0107421875
,38.3935015,1.015625
,38.4427567,1.015625
,38.4431458,1.0009765625
,38.4538701,0.986328125
,38.4700697,0.966796875
,38.5063538,0.9521484375
,38.5365295,0.9375
,38.5370338,0.9228515625
,38.5520745,0.9033203125
,38.5989841,0.888671875
,38.5998865,0.87890625
,38.6184595,0.8642578125
,38.6288149,0.8544921875
,38.6631324,0.8447265625
,38.6845746,0.8349609375
,38.6926956,0.830078125
,38.7124185,0.8203125
,38.7469692,0.810546875
,38.7666616,0.80078125
,38.774851,0.791015625
,38.8088741,0.78125
,38.8154924,0.771484375
,38.8637872,0.76171875
,38.8642755,0.751953125
,38.8700493,0.7421875
,38.9065462,0.7275390625
,38.9268832,0.712890625
,38.931116,0.6982421875
,38.9694671,0.6787109375
,38.9905758,0.6640625
,38.9957917,0.6494140625
,39.0107259,0.6494140625
,39.0462305,0.6640625
,39.067834,0.6884765625
,39.0733286,0.712890625
,39.1111274,0.7373046875
,39.1116312,0.7568359375
,39.1478807,0.7763671875
,39.1683495,0.791015625
,39.1725008,0.810546875
,39.1925734,0.8203125
,39.2123838,0.8251953125
,39.2499089,0.8251953125
,39.2546751,0.8251953125
,39.2742673,0.8203125
,39.310439,0.8154296875
,39.3153843,0.810546875
,39.3593111,0.8056640625
,39.3596211,0.8056640625
,39.3714457,0.80078125
,39.4230779,0.7958984375
,39.4235517,0.791015625
,39.4331945,0.7861328125
,39.4545465,0.7763671875
,39.4729331,0.771484375
,39.5081407,0.76171875
,39.5283074,0.7568359375
,39.5358809,0.7470703125
,39.5555862,0.7421875
,39.5719299,0.7373046875
,39.6089283,0.7373046875
,39.6278612,0.732421875
,39.6325161,0.732421875
,39.6691586,0.7275390625
,39.6896702,0.7275390625
,39.6945671,0.72265625
,39.727893,0.7177734375
,39.749283,0.712890625
,39.752611,0.7080078125
,39.7937349,0.703125
,39.794095,0.6982421875
,39.8131535,0.7080078125
,39.8484102,0.72265625
,39.8700379,0.751953125
,39.874983,0.78125
,39.9171091,0.810546875
,39.9174453,0.830078125
,39.9332481,0.859375
,39.9594394,0.8740234375
,39.9740727,0.8935546875
,40.0086406,0.9033203125
,40.0300838,0.9033203125
,40.0355019,0.9033203125
,40.0844,0.8935546875
,40.0847426,0.8837890625
,40.0923457,0.869140625
,40.1297906,0.8642578125
,40.1342597,0.8544921875
,40.1784302,0.849609375
,40.1787524,0.8447265625
,40.1956478,0.8349609375
,40.2399833,0.830078125
,40.2403045,0.8203125
,40.2584239,0.8154296875
,40.3032386,0.8056640625
,40.3037454,0.7958984375
,40.3132568,0.7861328125
,40.3494251,0.78125
,40.3547185,0.7763671875
,40.3900984,0.771484375
,40.3953611,0.76171875
,40.4325279,0.7568359375
,40.438384,0.7470703125
,40.4551976,0.7421875
,40.4737803,0.7373046875
,40.5196201,0.732421875
,40.5199221,0.7275390625
,40.5415722,0.72265625
,40.5557193,0.7177734375
,40.5968275,0.712890625
,40.5971381,0.7080078125
,40.6338821,0.712890625
,40.6347554,0.7275390625
,40.6540704,0.7568359375
,40.6889966,0.791015625
,40.6935725,0.8251953125
,40.7287112,0.8544921875
,40.7492829,0.87890625
,40.7572821,0.908203125
,40.8044768,0.927734375
,40.8049143,0.947265625
,40.8121837,0.95703125
,40.8474184,0.966796875
,40.8691962,0.9619140625
,40.8746689,0.95703125
,40.9142485,0.947265625
,40.9147272,0.9375
,40.9623944,0.927734375
,40.9627162,0.91796875
,40.9767592,0.908203125
,41.0239148,0.8984375
,41.0243298,0.888671875
,41.0353422,0.8740234375
,41.0863278,0.869140625
,41.0866841,0.859375
,41.0948279,0.849609375
,41.1326415,0.83984375
,41.1372797,0.830078125
,41.1796715,0.8203125
,41.180088,0.8154296875
,41.1942291,0.8056640625
,41.2426855,0.80078125
,41.2429523,0.791015625
,41.2570875,0.7861328125
,41.3031801,0.78125
,41.3034419,0.7763671875
,41.3170026,0.771484375
,41.3544078,0.7666015625
,41.3586815,0.76171875
,41.3737906,0.7568359375
,41.4097846,0.751953125
,41.4448305,0.7470703125
,41.4452058,0.751953125
,41.4578702,0.771484375
,41.5060425,0.7958984375
,41.5063605,0.830078125
,41.5174025,0.859375
,41.5339517,0.8837890625
,41.5841323,0.908203125
,41.5844049,0.9326171875
,41.5964139,0.95703125
,41.6458687,0.9716796875
,41.646533,0.9814453125
,41.6562325,0.9814453125
,41.6938916,0.9716796875
,41.7121309,0.9619140625
,41.7174307,0.947265625
,41.752939,0.9375
,41.7533535,0.927734375
,41.7742802,0.91796875
,41.812089,0.908203125
,41.8167474,0.8984375
,41.8623283,0.8837890625
,41.8628174,0.8740234375
,41.8947053,0.8642578125
,41.8993802,0.8544921875
,41.9157812,0.83984375
,41.9558761,0.8349609375
,41.9563607,0.8251953125
,42.0022018,0.8154296875
,42.0026794,0.8056640625
,42.0172756,0.80078125
,42.0525836,0.7861328125
,42.0731713,0.78125
,42.078302,0.771484375
,42.0957344,0.76171875
,42.131401,0.7568359375
,42.1364588,0.751953125
,42.1720005,0.7470703125
,42.177976,0.7421875
,42.2119182,0.7373046875
,42.219692,0.732421875
,42.2402266,0.732421875
,42.2544484,0.7373046875
,42.2928247,0.76171875
,42.3136633,0.791015625
,42.3168804,0.8154296875
,42.3563108,0.8447265625
,42.3566131,0.869140625
,42.3932922,0.8935546875
,42.3981983,0.9130859375
,42.4354862,0.927734375
,42.4359571,0.9375
,42.4724942,0.9423828125
,42.4778476,0.9375
,42.4968417,0.9326171875
,42.545221,0.9228515625
,42.545542,0.9130859375
,42.5594828,0.9033203125
,42.607354,0.8935546875
,42.6078362,0.8837890625
,42.620338,0.8740234375
,42.6395905,0.8642578125
,42.6568212,0.8544921875
,42.6787403,0.8447265625
,42.7131509,0.8349609375
,42.7186619,0.8251953125
,42.7383533,0.8154296875
,42.7787958,0.8056640625
,42.7792721,0.791015625
,42.8167809,0.78125
,42.8171033,0.771484375
,42.8525788,0.7666015625
,42.8566036,0.76171875
,42.9042461,0.751953125
,42.9047307,0.7470703125
,42.9179597,0.7421875
,42.9671925,0.732421875
,42.9675951,0.7275390625
,42.9818986,0.72265625
,42.9966112,0.7177734375
,43.0319317,0.712890625
,43.0518798,0.712890625
,43.0569301,0.7177734375
,43.1009993,0.732421875
,43.1013881,0.76171875
,43.1317075,0.791015625
,43.1412964,0.8203125
,43.1554928,0.8447265625
,43.1914301,0.8740234375
,43.2123373,0.8935546875
,43.217834,0.91796875
,43.2621259,0.9326171875
,43.2624301,0.9423828125
,43.2780401,0.947265625
,43.3158911,0.9423828125
,43.3212243,0.9326171875
,43.3569426,0.9228515625
,43.3594125,0.9130859375
,43.3786972,0.908203125
,43.398534,0.9033203125
,43.4509795,0.8984375
,43.4513106,0.888671875
,43.460091,0.8837890625
,43.4958729,0.8740234375
,43.4987689,0.8642578125
,43.5442531,0.8544921875
,43.5446571,0.8447265625
,43.5661418,0.83984375
,43.5793907,0.8349609375
,43.5985561,0.8251953125
,43.6345062,0.8203125
,43.6395881,0.810546875
,43.6768307,0.80078125
,43.678017,0.7958984375
,43.70117,0.791015625
,43.718159,0.7861328125
,43.7372021,0.78125
,43.773031,0.7763671875
,43.7952602,0.7763671875
,43.7998952,0.771484375
,43.8402297,0.771484375
,43.8405453,0.7666015625
,43.8607893,0.76171875
,43.8790486,0.7666015625
,43.8983133,0.78125
,43.9356153,0.810546875
,43.9361114,0.8447265625
,43.9717007,0.87890625
,43.9975266,0.908203125
,43.9978437,0.9375
,44.0430031,0.95703125
,44.0435079,0.9765625
,44.0633619,0.9912109375
,44.0813769,0.99609375
,44.0983555,0.99609375
,44.1343648,0.9912109375
,44.1400912,0.986328125
,44.1863416,0.9765625
,44.1866763,0.9619140625
,44.2006579,0.9521484375
,44.2363188,0.9375
,44.264099,0.9228515625
,44.2644231,0.9130859375
,44.2765694,0.8984375
,44.3115602,0.8935546875
,44.3326173,0.8837890625
,44.3400914,0.8740234375
,44.3744006,0.8642578125
,44.3954644,0.8544921875
,44.4003594,0.8447265625
,44.4538719,0.8349609375
,44.4543516,0.8251953125
,44.4570176,0.8203125
,44.4998017,0.8154296875
,44.5002755,0.810546875
,44.5210106,0.8056640625
,44.5623758,0.80078125
,44.5628327,0.7958984375
,44.5990612,0.7861328125
,44.5995482,0.78125
,44.6331976,0.7763671875
,44.6388555,0.771484375
,44.6585078,0.771484375
,44.7083232,0.771484375
,44.7090131,0.771484375
,44.7212969,0.7861328125
,44.7680054,0.8056640625
,44.7684748,0.8349609375
,44.7834235,0.8642578125
,44.8312694,0.8935546875
,44.8320602,0.91796875
,44.8397421,0.9423828125
,44.8746959,0.966796875
,44.8800339,0.9765625
,44.9158266,0.986328125
,44.9386975,0.9814453125
,44.9413598,0.9765625
,44.9757704,0.9619140625
,44.9971659,0.9521484375
,44.9975744,0.9423828125
,45.0342093,0.9375
,45.0391654,0.9326171875
,45.0737497,0.927734375
,45.0946598,0.91796875
,45.1020637,0.908203125
,45.141812,0.8935546875
,45.1422723,0.8837890625
,45.1589468,0.8740234375
,45.2051564,0.8642578125
,45.2055111,0.8544921875
,45.2202946,0.849609375
,45.2574104,0.83984375
,45.2603742,0.830078125
,45.2974065,0.8251953125
,45.3023179,0.8154296875
,45.3373864,0.8056640625
,45.3377349,0.7958984375
,45.373812,0.791015625
,45.3949822,0.7861328125
,45.4004585,0.78125
,45.4403234,0.7763671875
,45.4407874,0.7763671875
,45.4870279,0.7666015625
,45.4875046,0.76171875
,45.507792,0.751953125
,45.5234759,0.7568359375
,45.5446791,0.771484375
,45.5598297,0.7958984375
,45.5942421,0.8251953125
,45.6151155,0.849609375
,45.6220188,0.87890625
,45.6426176,0.8984375
,45.6903243,0.91796875
,45.6906418,0.9326171875
,45.70523,0.9423828125
,45.7193987,0.947265625
,45.7407376,0.947265625
,45.7758509,0.9375
,45.7808625,0.927734375
,45.8172534,0.91796875
,45.8213965,0.908203125
,45.8632937,0.8984375
,45.8637805,0.888671875
,45.9008317,0.87890625
,45.9016283,0.869140625
,45.9206794,0.859375
,45.9579096,0.849609375
,45.9626916,0.8447265625
,46.0047012,0.830078125
,46.0051699,0.8251953125
,46.0253474,0.8154296875
,46.0653837,0.8056640625
,46.0658293,0.80078125
,46.0800056,0.7958984375
,46.11378,0.791015625
,46.1351207,0.7861328125
,46.1425758,0.78125
,46.163325,0.7763671875
,46.2055719,0.771484375
,46.2060642,0.7666015625
,46.224884,0.76171875
,46.2431423,0.7568359375
,46.2764706,0.751953125
,46.2815151,0.7421875
,46.3292452,0.7421875
,46.3295696,0.7421875
,46.3439014,0.751953125
,46.364602,0.771484375
,46.3833787,0.80078125
,46.4197679,0.830078125
,46.425616,0.859375
,46.4404871,0.8837890625
,46.4878797,0.908203125
,46.488185,0.9326171875
,46.5093,0.9521484375
,46.5230399,0.966796875
,46.5577943,0.9716796875
,46.5627691,0.9716796875
,46.6143029,0.9619140625
,46.6146259,0.9521484375
,46.6455871,0.9423828125
,46.6459237,0.9326171875
,46.6637324,0.9228515625
,46.7068291,0.9130859375
,46.7071331,0.8984375
,46.7245047,0.888671875
,46.743191,0.87890625
,46.7795787,0.8642578125
,46.785033,0.8544921875
,46.8006166,0.8447265625
,46.8456317,0.8349609375
,46.8459366,0.8251953125
,46.8656456,0.8154296875
,46.8824335,0.8056640625
,46.9174637,0.7958984375
,46.9382191,0.7861328125
,46.9460992,0.7763671875
,46.9649945,0.771484375
,46.9864023,0.76171875
,47.0033269,0.7568359375
,47.0516204,0.751953125
,47.0519994,0.751953125
,47.0620888,0.7470703125
,47.0984559,0.7421875
,47.1031934,0.7373046875
,47.1388126,0.732421875
,47.1595406,0.7275390625
,47.1641403,0.7275390625
,47.1834954,0.7421875
,47.2184398,0.771484375
,47.2214535,0.8056640625
,47.254277,0.8447265625
,47.2753757,0.8837890625
,47.285542,0.9326171875
,47.3299453,0.9814453125
,47.3302605,1.0400390625
,47.3406122,1.09375
,47.3758772,1.162109375
,47.408643,1.220703125
,47.4090172,1.2744140625
,47.4234514,1.298828125
,47.4695603,1.3037109375
,47.470017,1.298828125
,47.4914776,1.279296875
,47.5063246,1.23046875
,47.5215568,1.1669921875
,47.5646303,1.0791015625
,47.5650107,1.0009765625
,47.5968177,0.9228515625
,47.6040988,0.859375
,47.641787,0.7958984375
,47.6462339,0.7470703125
,47.6893099,0.703125
,47.6897857,0.6640625
,47.7023435,0.634765625
,47.7514953,0.60546875
,47.7523708,0.5859375
,47.762648,0.56640625
,47.8129348,0.546875
,47.8133819,0.52734375
,47.8437317,0.5126953125
,47.8440569,0.498046875
,47.8912466,0.48828125
,47.89172,0.48828125
,47.9220264,0.4931640625
,47.9225279,0.498046875
,47.9610632,0.5078125
,47.9646134,0.517578125
,48.0163807,0.537109375
,48.0167658,0.56640625
,48.0275412,0.6005859375
,48.0479017,0.6396484375
,48.066224,0.6787109375
,48.08421,0.7080078125
,48.1185468,0.7421875
,48.1244637,0.771484375
,48.1733087,0.7958984375
,48.1737954,0.8154296875
,48.1864789,0.8251953125
,48.2353181,0.8251953125
,48.2356232,0.8203125
,48.2422066,0.8154296875
,48.2824398,0.8056640625
,48.2829343,0.8056640625
,48.3180913,0.80078125
,48.3381833,0.8056640625
,48.3463,0.8203125
,48.3655352,0.830078125
,48.4021207,0.83984375
,48.4081071,0.8447265625
,48.4229465,0.83984375
,48.4447341,0.8349609375
,48.4846627,0.8251953125
,48.4849836,0.8154296875
,48.5312317,0.80078125
,48.5317166,0.7861328125
,48.5460619,0.771484375
,48.581907,0.751953125
,48.5875666,0.7373046875
,48.6398259,0.72265625
,48.6401369,0.7177734375
,48.6448063,0.7177734375
,48.6859974,0.7177734375
,48.6864696,0.7177734375
,48.7207899,0.7177734375
,48.7419317,0.7080078125
,48.7480866,0.703125
,48.7831871,0.6884765625
,48.7916326,0.6884765625
,48.8036327,0.693359375
,48.8396706,0.712890625
,48.8459508,0.7373046875
,48.8917218,0.76171875
,48.8922298,0.78125
,48.9066721,0.80078125
,48.9445628,0.8154296875
,48.9451393,0.83984375
,48.9864761,0.859375
,48.9868221,0.8837890625
,49.0044608,0.8984375
,49.0484417,0.908203125
,49.0488055,0.9130859375
,49.0669319,0.9130859375
,49.1106119,0.9130859375
,49.1109695,0.908203125
,49.1257817,0.9033203125
,49.144617,0.8935546875
,49.1823384,0.8837890625
,49.1828036,0.869140625
,49.2184455,0.849609375
,49.2397609,0.830078125
,49.2478552,0.80078125
,49.2673615,0.78125
,49.2878746,0.7666015625
,49.3300743,0.751953125
,49.3304347,0.7421875
,49.3483428,0.7373046875
,49.3640976,0.732421875
,49.4081374,0.72265625
,49.4085189,0.7080078125
,49.4395345,0.693359375
,49.4470199,0.6787109375
,49.4825202,0.6640625
,49.5034436,0.654296875
,49.5082659,0.6494140625
,49.5249582,0.64453125
,49.5659476,0.634765625
,49.5664036,0.625
,49.6015944,0.615234375
,49.6064155,0.6201171875
,49.6412569,0.6396484375
,49.6617213,0.6689453125
,49.6688332,0.703125
,49.7053595,0.7373046875
,49.7059115,0.7666015625
,49.7261185,0.7958984375
,49.7627502,0.8154296875
,49.7649971,0.8349609375
,49.8009246,0.849609375
,49.8294727,0.859375
,49.8301259,0.8642578125
,49.8486078,0.859375
,49.866088,0.859375
,49.9077703,0.8544921875
,49.9082597,0.849609375
,49.9253458,0.849609375
,49.9612943,0.8447265625
,49.9812605,0.83984375
,49.9866449,0.83984375
,50.0328801,0.83984375
,50.0331842,0.8349609375
,50.0635814,0.8349609375
,50.0714686,0.830078125
,50.0863231,0.8203125
,50.1220941,0.8056640625
,50.1271615,0.7861328125
,50.1621466,0.76171875
,50.1670369,0.7373046875
,50.2108154,0.712890625
,50.2111594,0.693359375
,50.2410429,0.6787109375
,50.2460845,0.6689453125
,50.2820374,0.6640625
,50.2864798,0.6640625
,50.3084876,0.6640625
,50.3291807,0.6640625
,50.3655792,0.6689453125
,50.3695668,0.6640625
,50.4118438,0.6640625
,50.4123242,0.6640625
,50.4267662,0.6787109375
,50.4730567,0.703125
,50.4733658,0.732421875
,50.4865956,0.7666015625
,50.5220413,0.791015625
,50.5275644,0.8203125
,50.5657122,0.83984375
,50.5688316,0.8642578125
,50.5860562,0.8837890625
,50.6215606,0.9033203125
,50.6423242,0.9130859375
,50.6470491,0.9130859375
,50.690378,0.9130859375
,50.6908416,0.908203125
,50.7069429,0.9033203125
,50.7434498,0.8935546875
,50.7643762,0.8837890625
,50.7696359,0.869140625
,50.7898234,0.8544921875
,50.8079092,0.83984375
,50.828165,0.830078125
,50.8777397,0.8203125
,50.8781504,0.810546875
,50.8879381,0.80078125
,50.9213186,0.7958984375
,50.9422233,0.7861328125
,50.9482125,0.7763671875
,50.9869862,0.7666015625
,50.9874643,0.7568359375
,51.0227257,0.7470703125
,51.0273053,0.7421875
,51.0633057,0.732421875
,51.0685346,0.72265625
,51.1098082,0.7177734375
,51.1101135,0.7080078125
,51.1449253,0.703125
,51.1478695,0.693359375
,51.1886639,0.6884765625
,51.1890106,0.68359375
,51.2090377,0.6884765625
,51.2442132,0.703125
,51.2484179,0.7373046875
,51.284521,0.771484375
,51.2912343,0.810546875
,51.3293985,0.849609375
,51.3297922,0.87890625
,51.3487001,0.9130859375
,51.3918147,0.9375
,51.392296,0.9521484375
,51.4083978,0.9619140625
,51.4444901,0.9619140625
,51.4652076,0.9521484375
,51.4705116,0.9423828125
,51.4875115,0.927734375
,51.5215999,0.91796875
,51.5262306,0.9033203125
,51.5645171,0.8984375
,51.5689829,0.888671875
,51.6037224,0.8837890625
,51.6086901,0.8740234375
,51.6552636,0.859375
,51.6557102,0.849609375
,51.7017153,0.83984375
,51.7020573,0.8251953125
,51.7072693,0.810546875
,51.7497332,0.7958984375
,51.7502073,0.78125
,51.7804619,0.76171875
,51.7887572,0.751953125
,51.8261644,0.7373046875
,51.8471862,0.7275390625
,51.848962,0.7177734375
,51.8908448,0.712890625
,51.891317,0.712890625
,51.9094199,0.7080078125
,51.9283585,0.703125
,51.9683108,0.703125
,51.9993755,0.693359375
,51.9996858,0.68359375
,52.0101222,0.68359375
,52.0487057,0.693359375
,52.0491807,0.712890625
,52.0759754,0.751953125
,52.089687,0.7958984375
,52.1261991,0.849609375
,52.129101,0.8935546875
,52.1509636,0.9326171875
,52.1860454,0.9619140625
,52.1918205,0.9814453125
,52.2086197,0.986328125
,52.2512007,0.9814453125
,52.2516783,0.9716796875
,52.2815146,0.9521484375
,52.2886476,0.9326171875
,52.3294334,0.91796875
,52.3606491,0.9033203125
,52.361164,0.8837890625
,52.3720703,0.8642578125
,52.4228518,0.8447265625
,52.4233405,0.830078125
,52.4286202,0.8154296875
,52.4637426,0.8056640625
,52.4696819,0.80078125
,52.4911411,0.7958984375
,52.5101498,0.791015625
,52.5602668,0.78125
,52.5606111,0.7763671875
,52.581228,0.7666015625
,52.5935075,0.7568359375
,52.6100355,0.751953125
,52.653791,0.7470703125
,52.6540984,0.7470703125
,52.6704175,0.7470703125
,52.7164697,0.7470703125
,52.7168511,0.7470703125
,52.7308742,0.7470703125
,52.7669004,0.7470703125
,52.7672208,0.7421875
,52.8015206,0.7373046875
,52.8220889,0.732421875
,52.8296854,0.7421875
,52.850867,0.7568359375
,52.8860168,0.7861328125
,52.9199833,0.8154296875
,52.9203362,0.83984375
,52.9342665,0.8642578125
,52.9501674,0.87890625
,52.9701353,0.8984375
,52.990376,0.9130859375
,53.0432403,0.9228515625
,53.0436992,0.927734375
,53.0497782,0.9228515625
,53.0860966,0.9130859375
,53.1071215,0.8984375
,53.1135714,0.888671875
,53.1525565,0.87890625
,53.1530068,0.869140625
,53.1695165,0.8642578125
,53.2054197,0.859375
,53.2306361,0.849609375
,53.2311046,0.83984375
,53.266657,0.830078125
,53.2874924,0.8203125
,53.292927,0.8056640625
,53.3395604,0.7958984375
,53.3400376,0.7861328125
,53.3490007,0.78125
,53.3851701,0.771484375
,53.4049524,0.76171875
,53.4107612,0.7470703125
,53.4455801,0.7373046875
,53.4789167,0.72265625
,53.4792886,0.712890625
,53.4899568,0.6982421875
,53.5401832,0.6884765625
,53.5406578,0.6787109375
,53.5516538,0.673828125
,53.5878016,0.6689453125
,53.6187938,0.6689453125
,53.6192715,0.6689453125
,53.631533,0.673828125
,53.6667152,0.6982421875
,53.6868329,0.7275390625
,53.6893,0.76171875
,53.7283787,0.791015625
,53.7595743,0.8203125
,53.7599276,0.8447265625
,53.7736219,0.869140625
,53.8206426,0.888671875
,53.8210129,0.9033203125
,53.8349219,0.9130859375
,53.8551419,0.9130859375
,53.8965501,0.908203125
,53.8969915,0.8984375
,53.9108178,0.888671875
,53.9483817,0.87890625
,53.9510689,0.869140625
,53.9870609,0.859375
,54.0079705,0.849609375
,54.0204688,0.8349609375
,54.0341481,0.8203125
,54.0511114,0.8056640625
,54.0934033,0.791015625
,54.0938855,0.7763671875
,54.1132312,0.7666015625
,54.1328165,0.751953125
,54.1680395,0.7421875
,54.1732239,0.7275390625
,54.2084941,0.712890625
,54.2305705,0.693359375
,54.2310577,0.6591796875
,54.2667994,0.634765625
,54.298112,0.6201171875
,54.2986658,0.6201171875
,54.3133118,0.6201171875
,54.333244,0.6201171875
,54.3693509,0.625
,54.3753838,0.6298828125
,54.3923109,0.625
,54.4104105,0.625
,54.4470077,0.6298828125
,54.4688897,0.6494140625
,54.4732504,0.68359375
,54.4941101,0.72265625
,54.5445964,0.76171875
,54.5449211,0.7958984375
,54.554171,0.830078125
,54.5753102,0.8544921875
,54.6220623,0.869140625
,54.6223866,0.8837890625
,54.6321927,0.888671875
,54.6661577,0.888671875
,54.6848252,0.888671875
,54.692149,0.87890625
,54.7321716,0.869140625
,54.7633081,0.859375
,54.7636615,0.849609375
,54.772316,0.8349609375
,54.8090745,0.8203125
,54.8117295,0.810546875
,54.8481258,0.80078125
,54.8549326,0.791015625
,54.8916385,0.78125
,54.8946086,0.7763671875
,54.9290218,0.7666015625
,54.9495485,0.76171875
,54.9517281,0.7568359375
,54.9869929,0.751953125
,54.9927501,0.751953125
,55.0274018,0.7470703125
,55.0478342,0.7470703125
,55.0528678,0.7470703125
,55.0868648,0.7421875
,55.108217,0.7421875
,55.1153608,0.7470703125
,55.1317999,0.7470703125
,55.1667545,0.7470703125
,55.1862615,0.7470703125
,55.1934277,0.751953125
,55.2445004,0.7470703125
,55.2448372,0.76171875
,55.2550609,0.78125
,55.291044,0.810546875
,55.2954667,0.8447265625
,55.3157607,0.8740234375
,55.3331145,0.8984375
,55.3693706,0.9326171875
,55.3748785,0.95703125
,55.4150637,0.9814453125
,55.4153951,1.0009765625
,55.4597002,1.0107421875
,55.4601791,1.015625
,55.4761987,1.005859375
,55.5233363,0.99609375
,55.5238461,0.9814453125
,55.5324432,0.966796875
,55.5695657,0.9521484375
,55.599998,0.9423828125
,55.6004858,0.927734375
,55.6137123,0.908203125
,55.6500095,0.8935546875
,55.6711161,0.87890625
,55.6715739,0.869140625
,55.708884,0.859375
,55.7281749,0.849609375
,55.7341741,0.83984375
,55.7713543,0.830078125
,55.7929231,0.8203125
,55.79593,0.810546875
,55.8364035,0.7958984375
,55.836885,0.7861328125
,55.8522511,0.7763671875
,55.8734578,0.771484375
,55.908526,0.76171875
,55.9305478,0.751953125
,55.9353903,0.7470703125
,55.9769865,0.7373046875
,55.9772893,0.732421875
,56.0107029,0.7275390625
,56.011025,0.7177734375
,56.056129,0.7177734375
,56.0564422,0.72265625
,56.0920293,0.7373046875
,56.0925028,0.76171875
,56.1354558,0.7861328125
,56.1357715,0.810546875
,56.1669669,0.83984375
,56.1762288,0.8642578125
,56.2268675,0.8837890625
,56.2273273,0.8984375
,56.2352028,0.908203125
,56.2537137,0.9130859375
,56.2761753,0.908203125
,56.3118182,0.8984375
,56.3166293,0.888671875
,56.3534057,0.8740234375
,56.3576911,0.8642578125
,56.377013,0.8544921875
,56.4139235,0.8447265625
,56.4144063,0.8349609375
,56.4624378,0.8203125
,56.462762,0.810546875
,56.4937995,0.80078125
,56.4942928,0.7958984375
,56.5307324,0.7861328125
,56.5519639,0.7763671875
,56.5575562,0.7666015625
,56.575036,0.751953125
,56.6087784,0.7421875
,56.6148885,0.732421875
,56.651278,0.72265625
,56.6565051,0.7177734375
,56.690767,0.712890625
,56.695578,0.7080078125
,56.7322262,0.703125
,56.7531884,0.703125
,56.7537604,0.6982421875
,56.7892679,0.6982421875
,56.7935013,0.693359375
,56.8303111,0.693359375
,56.8506313,0.6884765625
,56.85467,0.6982421875
,56.8761758,0.7177734375
,56.9109095,0.7421875
,56.9324557,0.7666015625
,56.9396286,0.791015625
,56.9553048,0.8154296875
,56.9753766,0.83984375
,57.0243426,0.8642578125
,57.0248302,0.8837890625
,57.036866,0.8984375
,57.0872843,0.908203125
,57.087604,0.908203125
,57.1173907,0.9033203125
,57.1177061,0.8984375
,57.1342691,0.8935546875
,57.1805431,0.8837890625
,57.1810437,0.8740234375
,57.1964636,0.8642578125
,57.2327575,0.859375
,57.2371077,0.849609375
,57.2731776,0.8349609375
,57.3042566,0.8251953125
,57.3046438,0.810546875
,57.3144145,0.80078125
,57.3510268,0.791015625
,57.3724235,0.7861328125
,57.3770531,0.7763671875
,57.3977158,0.7666015625
,57.4337759,0.7568359375
,57.4395283,0.7470703125
,57.4582122,0.7373046875
,57.4742534,0.732421875
,57.5193448,0.7275390625
,57.5198334,0.72265625
,57.5414485,0.7177734375
,57.5577746,0.712890625
,57.5785484,0.7080078125
,57.6148193,0.703125
,57.61796,0.6982421875
,57.6586421,0.693359375
,57.6591126,0.6982421875
,57.6992798,0.7177734375
,57.6995803,0.7470703125
,57.715612,0.78125
,57.7607781,0.810546875
,57.76125,0.83984375
,57.7779607,0.869140625
,57.8143509,0.8984375
,57.8195585,0.91796875
,57.8701536,0.9375
,57.8708643,0.947265625
,57.8760334,0.947265625
,57.9145244,0.9423828125
,57.9187773,0.9228515625
,57.9377767,0.8984375
,57.9787057,0.87890625
,57.9791791,0.859375
,58.0001612,0.8447265625
,58.0193348,0.830078125
,58.0351052,0.810546875
,58.0705129,0.7958984375
,58.0902888,0.78125
,58.0972922,0.7666015625
,58.1351787,0.751953125
,58.1396103,0.7373046875
,58.1813325,0.7275390625
,58.1818079,0.7177734375
,58.1952035,0.7080078125
,58.2314259,0.6982421875
,58.2602999,0.6982421875
,58.2608571,0.6982421875
,58.275414,0.703125
,58.322029,0.7080078125
,58.3224731,0.712890625
,58.3433924,0.712890625
,58.3588677,0.7177734375
,58.3950844,0.7177734375
,58.4001265,0.7177734375
,58.415939,0.7177734375
,58.4639041,0.7177734375
,58.4642087,0.7177734375
,58.4772472,0.7275390625
,58.5145755,0.7470703125
,58.5191047,0.771484375
,58.5593922,0.7958984375
,58.5598815,0.8203125
,58.5748573,0.8447265625
,58.612609,0.8642578125
,58.6352906,0.87890625
,58.6371969,0.8984375
,58.6731811,0.908203125
,58.6935616,0.908203125
,58.6996695,0.9033203125
,58.7194395,0.8935546875
,58.7400033,0.8837890625
,58.7561547,0.8740234375
,58.793224,0.869140625
,58.8133889,0.8642578125
,58.8173678,0.8544921875
,58.8560741,0.849609375
,58.8768632,0.83984375
,58.8777264,0.830078125
,58.9004286,0.8203125
,58.9160163,0.8056640625
,58.9533498,0.80078125
,58.9556622,0.791015625
,58.991223,0.78125
,59.012373,0.771484375
,59.02035,0.76171875
,59.0393429,0.751953125
,59.0881012,0.7470703125
,59.0885862,0.7373046875
,59.1001186,0.732421875
,59.1213652,0.72265625
,59.1378143,0.712890625
,59.1806682,0.7080078125
,59.1811357,0.703125
,59.1980334,0.7080078125
,59.2340538,0.7080078125
,59.2551454,0.7080078125
,59.2601484,0.7080078125
,59.2968665,0.712890625
,59.302095,0.732421875
,59.3189797,0.7568359375
,59.3549959,0.7861328125
,59.359632,0.8154296875
,59.3975735,0.8447265625
,59.3980763,0.869140625
,59.4323204,0.8935546875
,59.4544316,0.9130859375
,59.4619126,0.927734375
,59.4784189,0.9326171875
,59.5210309,0.9326171875
,59.521506,0.927734375
,59.5387657,0.9228515625
,59.5818113,0.9130859375
,59.5822807,0.9033203125
,59.5988366,0.8935546875
,59.6356602,0.8837890625
,59.6413169,0.8740234375
,59.6590285,0.859375
,59.7065101,0.849609375
,59.7071154,0.83984375
,59.7181776,0.830078125
,59.7572817,0.8203125
,59.7620229,0.8154296875
,59.7973144,0.8056640625
,59.8030413,0.80078125
,59.8175113,0.791015625
,59.853664,0.78125
,59.8591836,0.7666015625
,59.9092816,0.7568359375
,59.9099167,0.751953125
,59.9183077,0.751953125
,59.9558421,0.7470703125
,59.9759042,0.7470703125
,59.9813605,0.7470703125
,60.0177508,0.7470703125
,60.0229865,0.7421875
,60.0395046,0.732421875
,60.0826159,0.7275390625
,60.0829999,0.72265625
,60.0996044,0.7373046875
,60.1354277,0.7568359375
,60.1404817,0.7861328125
,60.1771217,0.8154296875
,60.1822177,0.849609375
,60.1979143,0.87890625
,60.2347738,0.9130859375
,60.239941,0.9423828125
,60.2746332,0.9619140625
,60.2796295,0.9765625
,60.3285835,0.9814453125
,60.3288949,0.9814453125
,60.3485391,0.9765625
,60.3600594,0.9619140625
,60.3793395,0.9521484375
,60.414031,0.9375
,60.4184159,0.9228515625
,60.4534916,0.9033203125
,60.4749179,0.87890625
,60.4828409,0.859375
,60.501517,0.83984375
,60.5470789,0.8203125
,60.5474904,0.8056640625
,60.567631,0.791015625
,60.5800056,0.7763671875
,60.6250874,0.76171875
,60.6255766,0.751953125
,60.6397192,0.7373046875
,60.6778038,0.7275390625
,60.6831302,0.7177734375
,60.7329599,0.7080078125
,60.7334386,0.703125
,60.7431391,0.703125
,60.7598309,0.703125
,60.779106,0.7080078125
,60.824722,0.7080078125
,60.8251784,0.7080078125
,60.842172,0.7080078125
,60.8883759,0.7080078125
,60.8888498,0.7080078125
,60.9034759,0.712890625
,60.9378321,0.7275390625
,60.9387036,0.7568359375
,60.9783951,0.791015625
,60.9819212,0.8203125
,61.0010382,0.8544921875
,61.0421253,0.8837890625
,61.0425833,0.9130859375
,61.0887627,0.9326171875
,61.0893189,0.9521484375
,61.1010881,0.9619140625
,61.1199147,0.966796875
,61.1548411,0.966796875
,61.1757798,0.95703125
,61.1811408,0.9423828125
,61.2278077,0.9326171875
,61.2281354,0.9228515625
,61.2428027,0.908203125
,61.2894297,0.8984375
,61.2899038,0.8837890625
,61.3212874,0.869140625
,61.3216087,0.859375
,61.3569903,0.8447265625
,61.3615663,0.8349609375
,61.3976266,0.8203125
,61.4180695,0.810546875
,61.4227489,0.80078125
,61.4748439,0.791015625
,61.4753243,0.78125
,61.4805829,0.771484375
,61.5205785,0.7666015625
,61.5208867,0.7568359375
,61.5409616,0.751953125
,61.5821826,0.7470703125
,61.5826409,0.7421875
,61.6032796,0.7373046875
,61.6464412,0.732421875
,61.6468763,0.7275390625
,61.6769131,0.72265625
,61.6817176,0.7177734375
,61.7215888,0.712890625
,61.7221588,0.7177734375
,61.7595552,0.7373046875
,61.7642158,0.7666015625
,61.8019478,0.7958984375
,61.8022888,0.830078125
,61.8209785,0.8544921875
,61.84044,0.8837890625
,61.8774028,0.908203125
,61.8822079,0.927734375
,61.9183908,0.9423828125
,61.9237228,0.947265625
,61.9731331,0.947265625
,61.9741285,0.9423828125
,61.9832431,0.9326171875
,62.0014321,0.9228515625
,62.0366887,0.9130859375
,62.041716199999996,0.9033203125
,62.09365510000001,0.888671875
,62.0941291,0.87890625
,62.1029851,0.869140625
,62.138921999999994,0.859375
,62.14451699999999,0.8447265625
,62.16567190000001,0.8349609375
,62.200963200000004,0.8203125
,62.204060999999996,0.8056640625
,62.248839399999994,0.7958984375
,62.2491893,0.7861328125
,62.26188689999999,0.78125
,62.310855399999994,0.771484375
,62.3113242,0.7666015625
,62.324488200000005,0.76171875
,62.359362700000005,0.7568359375
,62.379599,0.7568359375
,62.380069199999994,0.751953125
,62.41928179999999,0.751953125
,62.4500606,0.7470703125
,62.4504615,0.7470703125
,62.4637901,0.7470703125
,62.4992455,0.7470703125
,62.504879,0.7470703125
,62.5430607,0.751953125
,62.543550100000004,0.771484375
,62.5776467,0.791015625
,62.582960799999995,0.8251953125
,62.616455,0.8544921875
,62.637848500000004,0.8837890625
,62.6431829,0.908203125
,62.679525600000005,0.9326171875
,62.6855726,0.9521484375
,62.720270299999996,0.966796875
,62.72067010000001,0.9765625
,62.7562951,0.9814453125
,62.762117200000006,0.9765625
,62.8082608,0.966796875
,62.80857399999999,0.95703125
,62.8234499,0.9423828125
,62.85721100000001,0.927734375
,62.8784031,0.91796875
,62.8862549,0.908203125
,62.905085299999996,0.8984375
,62.9482854,0.8837890625
,62.9486019,0.87890625
,62.96272209999999,0.869140625
,62.999821600000004,0.859375
,63.00570690000001,0.8544921875
,63.022782500000005,0.8447265625
,63.057288099999994,0.8349609375
,63.0791079,0.8251953125
,63.0852433,0.8154296875
,63.103187500000004,0.8056640625
,63.150564900000006,0.80078125
,63.15092,0.7958984375
,63.164608599999994,0.7861328125
,63.184304299999994,0.78125
,63.2262022,0.7763671875
,63.2265067,0.771484375
,63.2464291,0.7666015625
,63.267746,0.76171875
,63.281556300000005,0.7568359375
,63.3166561,0.751953125
,63.3374797,0.7470703125
,63.34312009999999,0.751953125
,63.3806417,0.76171875
,63.3856421,0.7861328125
,63.4274527,0.810546875
,63.4277639,0.83984375
,63.461726799999994,0.869140625
,63.462203200000005,0.8935546875
,63.5076236,0.91796875
,63.5080933,0.9375
,63.538524699999996,0.95703125
,63.5426703,0.9619140625
,63.5809352,0.966796875
,63.5865462,0.9619140625
,63.6061021,0.9521484375
,63.6274179,0.9423828125
,63.64828060000001,0.9326171875
,63.6639385,0.91796875
,63.6834808,0.908203125
,63.717760999999996,0.8935546875
,63.7386872,0.8837890625
,63.746304300000006,0.87890625
,63.7885649,0.869140625
,63.788995299999996,0.859375
,63.806768899999994,0.849609375
,63.8428912,0.83984375
,63.84336690000001,0.830078125
,63.878297399999994,0.8203125
,63.8983647,0.810546875
,63.905452800000006,0.80078125
,63.926041,0.791015625
,63.963900800000005,0.7763671875
,63.9665816,0.7666015625
,64.0051357,0.7568359375
,64.0057953,0.7470703125
,64.0251668,0.7470703125
,64.0451469,0.7421875
,64.0825476,0.7373046875
,64.0872263,0.732421875
,64.105228,0.732421875
,64.1400577,0.7275390625
,64.1614349,0.72265625
,64.1671867,0.7275390625
,64.1840655,0.7373046875
,64.2191759,0.7666015625
,64.2402419,0.791015625
,64.2447956,0.8203125
,64.2808293,0.8447265625
,64.2876447,0.869140625
,64.322585,0.888671875
,64.3269369,0.908203125
,64.3425706,0.9228515625
,64.3782423,0.9326171875
,64.399807,0.927734375
,64.4099486,0.9228515625
,64.4263816,0.9130859375
,64.445383,0.908203125
,64.4800472,0.8984375
,64.5014449,0.8935546875
,64.50717,0.888671875
,64.5522045,0.87890625
,64.552579,0.87890625
,64.5645224,0.8740234375
,64.5996201,0.869140625
,64.605376,0.8642578125
,64.6247809,0.8544921875
,64.6762238,0.849609375
,64.6767952,0.83984375
,64.7060579,0.8349609375
,64.70652,0.830078125
,64.7423401,0.8251953125
,64.7622547,0.8203125
,64.7655432,0.8203125
,64.7860536,0.8203125
,64.8215392,0.8154296875
,64.8263098,0.810546875
,64.8650942,0.8056640625
,64.865573,0.80078125
,64.9093651,0.791015625
,64.90984,0.78125
,64.9289483,0.7763671875
,64.9465638,0.771484375
,64.9662702,0.7666015625
,65.0173958,0.7763671875
,65.0183537,0.791015625
,65.025848,0.8154296875
,65.0620059,0.8447265625
,65.0829831,0.869140625
,65.0834361,0.8935546875
,65.1246083,0.91796875
,65.1249145,0.9375
,65.1455955,0.9521484375
,65.189559,0.9619140625
,65.1898935,0.966796875
,65.2077371,0.9619140625
,65.2427704,0.95703125
,65.2477894,0.947265625
,65.2829949,0.9375
,65.3045272,0.927734375
,65.3049996,0.9228515625
,65.3447542,0.9130859375
,65.3481697,0.908203125
,65.3680754,0.9033203125
,65.407224,0.8984375
,65.4077253,0.8935546875
,65.4441406,0.888671875
,65.4497064,0.87890625
,65.4680388,0.8740234375
,65.4872783,0.8642578125
,65.5071258,0.8544921875
,65.5487709,0.83984375
,65.5492488,0.830078125
,65.5683538,0.8203125
,65.6045698,0.810546875
,65.6088561,0.7958984375
,65.6249908,0.7861328125
,65.6730131,0.7763671875
,65.6734916,0.76171875
,65.7033985,0.751953125
,65.7079552,0.7421875
,65.7437077,0.732421875
,65.7495046,0.72265625
,65.7866378,0.7177734375
,65.7871117,0.7177734375
,65.8051858,0.7373046875
,65.8420035,0.76171875
,65.8465287,0.791015625
,65.8818929,0.8203125
,65.8873876,0.8447265625
,65.9260636,0.8740234375
,65.926546,0.8935546875
,65.9626244,0.91796875
,65.9845231,0.9326171875
,65.9914614,0.9423828125
,66.027609,0.9423828125
,66.0283448,0.9375
,66.075849,0.9326171875
,66.0765425,0.9228515625
,66.0880981,0.91796875
,66.1382048,0.9130859375
,66.1385655,0.908203125
,66.1497133,0.9033203125
,66.1716533,0.8935546875
,66.1857037,0.888671875
,66.21943,0.8837890625
,66.2397078,0.8740234375
,66.2466836,0.8642578125
,66.2830653,0.859375
,66.3033421,0.849609375
,66.3097464,0.83984375
,66.3305747,0.830078125
,66.3732796,0.8203125
,66.3737561,0.8056640625
,66.3870544,0.7958984375
,66.4362586,0.78125
,66.4367357,0.7763671875
,66.4490253,0.7666015625
,66.4968585,0.7568359375
,66.4972431,0.751953125
,66.5097399,0.7470703125
,66.5243903,0.7470703125
,66.5751819,0.751953125
,66.5755227,0.7568359375
,66.6061488,0.771484375
,66.6064628,0.791015625
,66.6531599,0.8349609375
,66.6535537,0.8837890625
,66.6739686,0.9375
,66.6906671,0.99609375
,66.7251244,1.0498046875
,66.7303532,1.1083984375
,66.74873,1.162109375
,66.7828452,1.2158203125
,66.7875968,1.2548828125
,66.8261623,1.2841796875
,66.8308724,1.2841796875
,66.8497817,1.2646484375
,66.8873203,1.2255859375
,66.8919659,1.181640625
,66.9086839,1.1328125
,66.9281362,1.083984375
,66.9632323,1.0400390625
,66.9839181,0.9912109375
,66.9913504,0.9375
,67.0093094,0.888671875
,67.0442721,0.8544921875
,67.0648409,0.8349609375
,67.0716929,0.8203125
,67.0883051,0.8154296875
,67.1084137,0.8056640625
,67.1440676,0.7958984375
,67.1492331,0.78125
,67.1682513,0.76171875
,67.2016782,0.7373046875
,67.2226708,0.7177734375
,67.2323193,0.7080078125
,67.2484532,0.7080078125
,67.2689381,0.7080078125
,67.3042145,0.703125
,67.3086887,0.6982421875
,67.3429052,0.693359375
,67.3635182,0.6884765625
,67.3685706,0.68359375
,67.4027322,0.6884765625
,67.4253918,0.7080078125
,67.432498,0.7373046875
,67.4519192,0.7666015625
,67.4695998,0.80078125
,67.5178213,0.8349609375
,67.5181653,0.8642578125
,67.529898,0.8935546875
,67.5676738,0.9130859375
,67.571549,0.927734375
,67.5904033,0.9326171875
,67.6288324,0.9326171875
,67.6583672,0.927734375
,67.6588339,0.9130859375
,67.6697496,0.8984375
,67.7195885,0.87890625
,67.7200267,0.859375
,67.7302331,0.83984375
,67.7669044,0.8251953125
,67.7714616,0.810546875
,67.7930424,0.80078125
,67.8084292,0.791015625
,67.8608164,0.7861328125
,67.8611483,0.7763671875
,67.8699472,0.771484375
,67.9229183,0.7666015625
,67.923282,0.7568359375
,67.9308822,0.7470703125
,67.9705167,0.7373046875
,67.9904549,0.7275390625
,67.991033,0.7177734375
,68.0091091,0.7080078125
,68.0452776,0.703125
,68.0661036,0.693359375
,68.0713297,0.6884765625
,68.1074594,0.6884765625
,68.1101137,0.6884765625
,68.1462266,0.6884765625
,68.1491456,0.68359375
,68.1714051,0.6787109375
,68.1885625,0.673828125
,68.2323454,0.68359375
,68.2326892,0.7080078125
,68.2626146,0.7373046875
,68.2713094,0.771484375
,68.3058399,0.80078125
,68.3268308,0.830078125
,68.3320429,0.8544921875
,68.3682255,0.87890625
,68.368742,0.8935546875
,68.404474,0.908203125
,68.4102792,0.91796875
,68.4444747,0.91796875
,68.4673569,0.908203125
,68.4719663,0.8984375
,68.50689,0.888671875
,68.5118552,0.87890625
,68.5301486,0.8642578125
,68.5665252,0.859375
,68.5718543,0.849609375
,68.5903184,0.83984375
,68.6271441,0.830078125
,68.647987,0.8203125
,68.652773,0.810546875
,68.6877894,0.80078125
,68.6931989,0.791015625
,68.7093734,0.78125
,68.7611006,0.7763671875
,68.7614287,0.7666015625
,68.7705341,0.7568359375
,68.7914625,0.7470703125
,68.8391618,0.7373046875
,68.8396283,0.7275390625
,68.8527525,0.7177734375
,68.8704387,0.7080078125
,68.9145767,0.703125
,68.9148849,0.6982421875
,68.9315422,0.6884765625
,68.9783376,0.6884765625
,68.9788169,0.6884765625
,68.9925178,0.693359375
,69.0284631,0.7080078125
,69.0330412,0.7373046875
,69.0708492,0.7666015625
,69.0738753,0.8056640625
,69.0898843,0.83984375
,69.1253095,0.869140625
,69.1462365,0.8984375
,69.1517255,0.9228515625
,69.1955624,0.9423828125
,69.1960491,0.95703125
,69.2124017,0.9619140625
,69.2486739,0.9619140625
,69.2715692,0.9521484375
,69.2718788,0.9375
,69.3084514,0.927734375
,69.3105768,0.9130859375
,69.3498192,0.9033203125
,69.3502919,0.888671875
,69.3974508,0.8740234375
,69.3978268,0.859375
,69.4266197,0.849609375
,69.428808,0.8349609375
,69.4745949,0.8203125
,69.4750621,0.8056640625
,69.4907508,0.7958984375
,69.537472,0.78125
,69.5377762,0.771484375
,69.5684406,0.76171875
,69.5732084,0.751953125
,69.6155037,0.7421875
,69.6158881,0.732421875
,69.6310874,0.72265625
,69.6665885,0.7177734375
,69.6873528,0.7080078125
,69.6919569,0.703125
,69.727607,0.693359375
,69.7478433,0.68359375
,69.7539794,0.673828125
,69.8027676,0.6689453125
,69.8030767,0.6640625
,69.8126952,0.6689453125
,69.8323832,0.6884765625
,69.8808424,0.72265625
,69.8813285,0.751953125
,69.8929662,0.791015625
,69.9408322,0.8203125
,69.9412018,0.849609375
,69.9554255,0.87890625
,69.9910901,0.8984375
,69.991566,0.9130859375
,70.0350154,0.9228515625
,70.0354781,0.9228515625
,70.0530154,0.91796875
,70.0996051,0.908203125
,70.1003508,0.8935546875
,70.1150363,0.8837890625
,70.1513839,0.869140625
,70.1518666,0.859375
,70.1719949,0.849609375
,70.2070125,0.83984375
,70.2124077,0.8251953125
,70.249076,0.810546875
,70.2519961,0.80078125
,70.2882157,0.791015625
,70.3096279,0.78125
,70.3142345,0.771484375
,70.3315436,0.76171875
,70.3668941,0.7568359375
,70.3720036,0.7470703125
,70.4084466,0.7421875
,70.4136438,0.732421875
,70.4485528,0.7275390625
,70.4538128,0.72265625
,70.503658,0.7177734375
,70.5039955,0.712890625
,70.5163695,0.7080078125
,70.552249,0.703125
,70.5527483,0.703125
,70.597973,0.703125
,70.5982801,0.703125
,70.6193536,0.712890625
,70.634448,0.7373046875
,70.6754427,0.7666015625
,70.6758966,0.80078125
,70.6970826,0.8349609375
,70.7119931,0.8642578125
,70.7488108,0.8984375
,70.7540628,0.9228515625
,70.8000248,0.947265625
,70.8003764,0.9619140625
,70.8150608,0.9765625
,70.8635711,0.9765625
,70.8640527,0.9716796875
,70.875215,0.9619140625
,70.8919885,0.9521484375
,70.9296559,0.9423828125
,70.9348969,0.9375
,70.9842105,0.9228515625
,70.984748,0.9130859375
,70.9941999,0.8935546875
,71.0481378,0.8740234375
,71.0484486,0.849609375
,71.0530107,0.830078125
,71.0946246,0.810546875
,71.0950395,0.791015625
,71.1313735,0.771484375
,71.1321413,0.751953125
,71.1734224,0.7421875
,71.1739,0.7275390625
,71.2125291,0.72265625
,71.2162795,0.7177734375
,71.265041,0.7177734375
,71.2653515,0.7177734375
,71.2748627,0.7177734375
,71.3109984,0.7177734375
,71.3140106,0.7177734375
,71.3591889,0.7177734375
,71.3596769,0.712890625
,71.3755001,0.712890625
,71.4204584,0.7080078125
,71.4209277,0.7177734375
,71.4315791,0.732421875
,71.4689407,0.76171875
,71.4737557,0.7958984375
,71.5087044,0.8251953125
,71.5302733,0.859375
,71.5349779,0.8837890625
,71.5706196,0.9130859375
,71.5757312,0.9375
,71.6220616,0.95703125
,71.6223666,0.9716796875
,71.6438693,0.986328125
,71.6533849,0.9912109375
,71.7005055,0.9912109375
,71.7008114,0.986328125
,71.7221221,0.9814453125
,71.7364874,0.9716796875
,71.7771311,0.9619140625
,71.7776518,0.947265625
,71.7953405,0.9326171875
,71.8318954,0.9130859375
,71.8345989,0.8935546875
,71.8729896,0.8740234375
,71.8734563,0.8544921875
,71.9113278,0.830078125
,71.9162763,0.8154296875
,71.9517393,0.7958984375
,71.9724929,0.7861328125
,71.9775841,0.771484375
,71.9943997,0.76171875
,72.0451878,0.7568359375
,72.0456623,0.7568359375
,72.0759351,0.7568359375
,72.076261,0.751953125
,72.1214935,0.751953125
,72.1219393,0.7470703125
,72.1380966,0.7421875
,72.1578002,0.7373046875
,72.1756777,0.7275390625
,72.2160307,0.72265625
,72.216545,0.7177734375
,72.2366804,0.72265625
,72.2779772,0.7470703125
,72.2783276,0.7763671875
,72.2984619,0.8056640625
,72.3387047,0.8349609375
,72.3390324,0.8544921875
,72.3543143,0.8740234375
,72.3744106,0.8837890625
,72.41198,0.8935546875
,72.4171838,0.8984375
,72.4544175,0.8984375
,72.4548873,0.8935546875
,72.4910075,0.888671875
,72.5121582,0.8837890625
,72.5147054,0.8837890625
,72.5526396,0.8837890625
,72.5531061,0.8837890625
,72.6021954,0.87890625
,72.6024955,0.87890625
,72.6234345,0.8740234375
,72.6392849,0.869140625
,72.683132,0.859375
,72.6836016,0.849609375
,72.6998211,0.8349609375
,72.7154569,0.8203125
,72.7597602,0.8056640625
,72.7602244,0.80078125
,72.7757595,0.7958984375
,72.7962112,0.7861328125
,72.8305989,0.78125
,72.8518104,0.771484375
,72.859238,0.7568359375
,72.9020799,0.7470703125
,72.9025504,0.7373046875
,72.9147759,0.7275390625
,72.9487142,0.7177734375
,72.9681741,0.712890625
,72.9770858,0.7080078125
,73.0130712,0.703125
,73.0190641,0.703125
,73.0384139,0.7177734375
,73.0883171,0.7421875
,73.0887115,0.771484375
,73.0965147,0.8056640625
,73.1358682,0.8349609375
,73.1361915,0.8642578125
,73.173599,0.888671875
,73.1803392,0.9130859375
,73.1987333,0.927734375
,73.2446808,0.9375
,73.2450803,0.9423828125
,73.275996,0.9423828125
,73.2764794,0.9326171875
,73.3219747,0.9228515625
,73.3223499,0.9130859375
,73.3387768,0.9033203125
,73.3836264,0.8935546875
,73.3841994,0.8837890625
,73.4006333,0.87890625
,73.4176745,0.8740234375
,73.436712,0.869140625
,73.4749258,0.8642578125
,73.4752402,0.859375
,73.5110425,0.849609375
,73.5318097,0.8447265625
,73.5376349,0.83984375
,73.5854248,0.830078125
,73.585815,0.8251953125
,73.6000565,0.8154296875
,73.6156307,0.8056640625
,73.663602,0.80078125
,73.6639678,0.7958984375
,73.683476,0.791015625
,73.6987543,0.78125
,73.7413379,0.7763671875
,73.7416485,0.771484375
,73.7584637,0.76171875
,73.7936989,0.7568359375
,73.8149828,0.751953125
,73.8153467,0.7470703125
,73.8518682,0.751953125
,73.8824846,0.7666015625
,73.8827986,0.7861328125
,73.8992075,0.810546875
,73.9185893,0.83984375
,73.953511,0.8642578125
,73.9739299,0.888671875
,73.9764476,0.908203125
,74.0130121,0.9228515625
,74.0183994,0.9326171875
,74.0679751,0.9375
,74.0684535,0.9326171875
,74.0795753,0.927734375
,74.1160621,0.91796875
,74.1208749,0.908203125
,74.1376316,0.9033203125
,74.1762562,0.9033203125
,74.177065,0.8984375
,74.1991265,0.8984375
,74.2375651,0.888671875
,74.2379966,0.8837890625
,74.2744383,0.8740234375
,74.2949348,0.8642578125
,74.2998438,0.8544921875
,74.3359409,0.8447265625
,74.3413676,0.8349609375
,74.3579222,0.8203125
,74.3948413,0.8154296875
,74.3977574,0.8056640625
,74.4409324,0.80078125
,74.4414446,0.791015625
,74.4601423,0.7861328125
,74.4806292,0.78125
,74.5173906,0.7763671875
,74.517725,0.7666015625
,74.5525691,0.76171875
,74.5578198,0.7568359375
,74.5930072,0.751953125
,74.6141117,0.7470703125
,74.6191541,0.7421875
,74.6579504,0.7421875
,74.6584177,0.7568359375
,74.7040737,0.78125
,74.7045326,0.810546875
,74.7247009,0.83984375
,74.7385409,0.8642578125
,74.7812077,0.8935546875
,74.7815178,0.9130859375
,74.8273336,0.927734375
,74.8278381,0.9423828125
,74.8417102,0.947265625
,74.8568503,0.9423828125
,74.8944716,0.9375
,74.8985473,0.9326171875
,74.9337125,0.9228515625
,74.9404948,0.91796875
,74.9594604,0.9130859375
,75.0001628,0.908203125
,75.000607,0.908203125
,75.0190933,0.9033203125
,75.0528407,0.8984375
,75.0744085,0.888671875
,75.0792608,0.8837890625
,75.1242063,0.8740234375
,75.1245289,0.8642578125
,75.1395104,0.8544921875
,75.1757325,0.8447265625
,75.2003927,0.83984375
,75.2011023,0.830078125
,75.2220903,0.8203125
,75.2391744,0.810546875
,75.2585433,0.80078125
,75.3129903,0.7958984375
,75.3134227,0.791015625
,75.318537,0.78125
,75.3606242,0.771484375
,75.3610252,0.7666015625
,75.406534,0.76171875
,75.4070118,0.751953125
,75.4193391,0.7470703125
,75.4552101,0.7470703125
,75.4596349,0.7568359375
,75.4944888,0.7763671875
,75.5004545,0.80078125
,75.5204075,0.830078125
,75.5614336,0.8544921875
,75.5617395,0.87890625
,75.578266,0.9033203125
,75.62438,0.9228515625
,75.624753,0.9423828125
,75.6392897,0.9521484375
,75.6863184,0.9521484375
,75.6867544,0.947265625
,75.701572,0.9375
,75.7385551,0.927734375
,75.7418534,0.91796875
,75.7632647,0.908203125
,75.7993758,0.8984375
,75.799843,0.888671875
,75.8405312,0.87890625
,75.8410776,0.869140625
,75.8886669,0.859375
,75.8891299,0.849609375
,75.9005298,0.83984375
,75.934724,0.830078125
,75.9667482,0.8251953125
,75.9672161,0.8154296875
,75.9818464,0.8056640625
,75.9989894,0.80078125
,76.0432111,0.791015625
,76.0436845,0.78125
,76.0634066,0.7763671875
,76.0830159,0.771484375
,76.1025108,0.76171875
,76.1528398,0.7568359375
,76.1531641,0.7470703125
,76.1598297,0.7421875
,76.1794225,0.732421875
,76.216947,0.7275390625
,76.2253169,0.7177734375
,76.2426118,0.712890625
,76.2907692,0.7177734375
,76.2911591,0.732421875
,76.3035978,0.751953125
,76.3198222,0.7763671875
,76.3563204,0.8056640625
,76.3584677,0.8251953125
,76.3929863,0.849609375
,76.4138419,0.8642578125
,76.4215825,0.869140625
,76.4581398,0.87890625
,76.461043,0.8740234375
,76.4827477,0.869140625
,76.5046746,0.8544921875
,76.5201407,0.83984375
,76.5414868,0.830078125
,76.5607421,0.8203125
,76.5981853,0.810546875
,76.6199872,0.8056640625
,76.6205401,0.7958984375
,76.6607086,0.7861328125
,76.6811056,0.78125
,76.685995,0.771484375
,76.70012,0.76171875
,76.7388645,0.7568359375
,76.7420178,0.751953125
,76.778029,0.7470703125
,76.780455,0.7421875
,76.814441,0.7373046875
,76.8357692,0.732421875
,76.8429317,0.732421875
,76.8601552,0.7275390625
,76.8951155,0.7275390625
,76.9158796,0.7275390625
,76.9207313,0.72265625
,76.9581951,0.72265625
,76.9613584,0.7177734375
,76.9840011,0.712890625
,77.0034376,0.712890625
,77.0395318,0.7080078125
,77.0400042,0.703125
,77.0611789,0.712890625
,77.0809055,0.732421875
,77.1322163,0.76171875
,77.1326211,0.791015625
,77.1413545,0.8251953125
,77.1930019,0.8544921875
,77.1933037,0.87890625
,77.1983232,0.9033203125
,77.2409389,0.927734375
,77.2472893,0.9423828125
,77.260503,0.947265625
,77.2950514,0.9521484375
,77.3163048,0.947265625
,77.3235764,0.9423828125
,77.3433209,0.9326171875
,77.3769903,0.9228515625
,77.3973291,0.9130859375
,77.4043856,0.9033203125
,77.4210306,0.8935546875
,77.4553883,0.8837890625
,77.4760444,0.8740234375
,77.4814709,0.869140625
,77.5219371,0.859375
,77.522381,0.849609375
,77.5437801,0.8447265625
,77.5792379,0.8349609375
,77.5999652,0.830078125
,77.6003496,0.8203125
,77.6360216,0.8154296875
,77.6566369,0.8056640625
,77.6625543,0.80078125
,77.6999621,0.791015625
,77.7061811,0.7861328125
,77.7253814,0.78125
,77.7601249,0.7763671875
,77.7605054,0.771484375
,77.8012643,0.7666015625
,77.8017413,0.76171875
,77.8227629,0.7568359375
,77.8568568,0.7568359375
,77.8773417,0.76171875
,77.8846338,0.7763671875
,77.9211593,0.80078125
,77.9260344,0.830078125
,77.9424953,0.859375
,77.9628912,0.888671875
,77.9987706,0.9130859375
,78.0013988,0.9326171875
,78.0403597,0.947265625
,78.0454666,0.9619140625
,78.0649326,0.966796875
,78.0849076,0.9619140625
,78.1273269,0.9521484375
,78.127636,0.9423828125
,78.1477818,0.927734375
,78.1634251,0.91796875
,78.2001722,0.908203125
,78.2046099,0.8984375
,78.2251437,0.8837890625
,78.2625397,0.8740234375
,78.263403,0.8642578125
,78.2855292,0.8544921875
,78.3312164,0.8447265625
,78.3317327,0.830078125
,78.3422224,0.8203125
,78.3920633,0.810546875
,78.3923695,0.80078125
,78.4217047,0.791015625
,78.4264833,0.78125
,78.4454152,0.771484375
,78.4651438,0.7666015625
,78.4825819,0.7568359375
,78.5161658,0.7568359375
,78.5370203,0.751953125
,78.5436028,0.7470703125
,78.5800141,0.7421875
,78.5846492,0.732421875
,78.6064458,0.7275390625
,78.6244464,0.7177734375
,78.6591217,0.712890625
,78.6800687,0.712890625
,78.6831731,0.72265625
,78.7346177,0.7373046875
,78.7350804,0.76171875
,78.7428642,0.7861328125
,78.7809202,0.810546875
,78.7855907,0.8349609375
,78.8219335,0.8544921875
,78.8274247,0.8740234375
,78.846644,0.8837890625
,78.8808992,0.8935546875
,78.9023789,0.8935546875
,78.9029509,0.888671875
,78.9396315,0.8837890625
,78.944834,0.8740234375
,78.9829005,0.8642578125
,78.9832419,0.859375
,79.0212069,0.8544921875
,79.0459343,0.849609375
,79.0462278,0.83984375
,79.0640993,0.8349609375
,79.0832041,0.830078125
,79.1237725,0.8203125
,79.1240805,0.8154296875
,79.1440436,0.810546875
,79.1826109,0.80078125
,79.1879889,0.7958984375
,79.2061654,0.791015625
,79.2243638,0.78125
,79.2447,0.7763671875
,79.2794145,0.7763671875
,79.2842438,0.771484375
,79.326596,0.7666015625
,79.3269053,0.76171875
,79.3752081,0.7568359375
,79.3756737,0.751953125
,79.3806925,0.751953125
,79.4198295,0.7470703125
,79.4243202,0.7421875
,79.4677848,0.7421875
,79.4682377,0.7470703125
,79.4864303,0.76171875
,79.5070936,0.7861328125
,79.5418575,0.8154296875
,79.5477942,0.849609375
,79.5668408,0.8740234375
,79.6012642,0.8984375
,79.6221489,0.9228515625
,79.624156,0.9423828125
,79.6593879,0.95703125
,79.6798406,0.9619140625
,79.6863368,0.9619140625
,79.7308808,0.95703125
,79.7314472,0.9521484375
,79.7480762,0.9375
,79.7650255,0.927734375
,79.8102278,0.9228515625
,79.8106792,0.9130859375
,79.8258278,0.9033203125
,79.8729613,0.888671875
,79.8734499,0.87890625
,79.8846019,0.869140625
,79.9211765,0.859375
,79.928271,0.849609375
,79.9443465,0.8349609375
,79.9792121,0.8251953125
,79.9853704,0.8154296875
,80.0224191,0.810546875
,80.027325,0.80078125
,80.0733245,0.791015625
,80.0737781,0.7861328125
,80.0871836,0.78125
,80.1230344,0.7763671875
,80.1234332,0.7666015625
,80.1768397,0.76171875
,80.177132,0.7568359375
,80.1839237,0.751953125
,80.2210177,0.751953125
,80.254724,0.7470703125
,80.2552161,0.7421875
,80.2672362,0.7421875
,80.2872857,0.7568359375
,80.3092377,0.7763671875
,80.3252715,0.80078125
,80.3633464,0.8349609375
,80.3844093,0.8642578125
,80.3865995,0.8935546875
,80.4267782,0.9130859375
,80.4270909,0.9375
,80.4618644,0.9521484375
,80.4827557,0.95703125
,80.4878196,0.95703125
,80.5049201,0.9521484375
,80.5508476,0.9423828125
,80.5512698,0.9326171875
,80.59815,0.9228515625
,80.5985115,0.9130859375
,80.6074197,0.8984375
,80.6431179,0.888671875
,80.6481062,0.87890625
,80.6656692,0.869140625
,80.7055674,0.859375
,80.7059745,0.849609375
,80.7538018,0.83984375
,80.7541072,0.8349609375
,80.7685824,0.8251953125
,80.7882635,0.8154296875
,80.829363,0.810546875
,80.8296675,0.80078125
,80.8452132,0.7958984375
,80.8910178,0.791015625
,80.8914084,0.7861328125
,80.9068213,0.7763671875
,80.9555424,0.771484375
,80.9557987,0.7666015625
,80.9749452,0.7568359375
,80.9863128,0.751953125
,81.0032056,0.7421875
,81.0379936,0.7373046875
,81.0598244,0.7275390625
,81.0673854,0.732421875
,81.1110015,0.7421875
,81.1112544,0.76171875
,81.1271923,0.7861328125
,81.1715871,0.8154296875
,81.1720009,0.83984375
,81.1937792,0.8642578125
,81.2088765,0.8837890625
,81.2259947,0.8984375
,81.2605724,0.9130859375
,81.2807219,0.9228515625
,81.2888805,0.9228515625
,81.3076858,0.9228515625
,81.344407,0.9130859375
,81.3751558,0.908203125
,81.3756139,0.9033203125
,81.3897319,0.9033203125
,81.4073184,0.8984375
,81.4515954,0.8935546875
,81.4519101,0.8837890625
,81.4681666,0.87890625
,81.514447,0.8740234375
,81.5148849,0.869140625
,81.5349226,0.859375
,81.5497209,0.8544921875
,81.5665734,0.8447265625
,81.602819,0.83984375
,81.6056454,0.830078125
,81.64119,0.8251953125
,81.6715422,0.8203125
,81.6719958,0.810546875
,81.6894547,0.80078125
,81.7328687,0.7958984375
,81.733239,0.791015625
,81.7460008,0.78125
,81.793638,0.78125
,81.7939254,0.7763671875
,81.8142214,0.771484375
,81.8289904,0.771484375
,81.8643962,0.7666015625
,81.8692886,0.771484375
,81.9036119,0.7861328125
,81.9244059,0.8056640625
,81.9305027,0.8349609375
,81.9484558,0.859375
,81.9681669,0.888671875
,82.0028866,0.908203125
,82.0082222,0.9326171875
,82.0277862,0.9521484375
,82.0660442,0.9619140625
,82.0691077,0.966796875
,82.1097879,0.966796875
,82.1102506,0.9619140625
,82.1275014,0.9521484375
,82.1742186,0.9423828125
,82.1745247,0.9375
,82.1882862,0.927734375
,82.224602,0.91796875
,82.2436883,0.908203125
,82.2490149,0.8984375
,82.286639,0.8837890625
,82.2870921,0.8740234375
,82.3222913,0.8642578125
,82.3272688,0.8544921875
,82.3635815,0.8447265625
,82.3687816,0.8349609375
,82.4048415,0.8203125
,82.4098789,0.810546875
,82.4306232,0.80078125
,82.4658725,0.7958984375
,82.4663846,0.7861328125
,82.50265,0.78125
,82.5082534,0.78125
,82.5483512,0.7763671875
,82.5488277,0.771484375
,82.5936159,0.7666015625
,82.5941086,0.7666015625
,82.6109823,0.76171875
,82.6560356,0.7568359375
,82.6565086,0.7568359375
,82.6726345,0.76171875
,82.6875388,0.78125
,82.7354368,0.8056640625
,82.7357273,0.8349609375
,82.7492267,0.869140625
,82.7861245,0.8935546875
,82.7893941,0.9228515625
,82.828608,0.9423828125
,82.8290686,0.9619140625
,82.848093,0.9716796875
,82.8835752,0.9814453125
,82.9051648,0.9814453125
,82.9100229,0.9765625
,82.929422,0.966796875
,82.9661121,0.95703125
,82.9684447,0.947265625
,83.0049385,0.9375
,83.0256753,0.927734375
,83.0288207,0.9130859375
,83.0655394,0.9033203125
,83.0687521,0.8935546875
,83.1044067,0.8837890625
,83.1102029,0.8740234375
,83.1303259,0.8642578125
,83.1660689,0.859375
,83.1993075,0.8447265625
,83.1996123,0.8349609375
,83.2087944,0.830078125
,83.2455515,0.8203125
,83.2665341,0.810546875
,83.2670903,0.80078125
,83.3036743,0.791015625
,83.3233484,0.78125
,83.3304522,0.7666015625
,83.3670517,0.7568359375
,83.3723374,0.7421875
,83.3937015,0.732421875
,83.4085643,0.72265625
,83.4441415,0.712890625
,83.4488213,0.7080078125
,83.4714501,0.7080078125
,83.5083843,0.72265625
,83.5129241,0.7470703125
,83.5561965,0.7763671875
,83.5566362,0.8056640625
,83.5688237,0.8349609375
,83.6025268,0.8642578125
,83.6242576,0.888671875
,83.6313555,0.9130859375
,83.6665206,0.9375
,83.6719629,0.947265625
,83.7146021,0.95703125
,83.7150467,0.95703125
,83.7322343,0.9521484375
,83.7502206,0.9423828125
,83.7861796,0.9326171875
,83.7909809,0.9228515625
,83.8090911,0.9130859375
,83.8540946,0.9033203125
,83.8544646,0.888671875
,83.8724423,0.87890625
,83.9079005,0.8642578125
,83.908337,0.8544921875
,83.9438656,0.8447265625
,83.9632198,0.83984375
,83.9715976,0.830078125
,84.008204,0.8251953125
,84.0086988,0.8154296875
,84.0480803,0.8056640625
,84.0509524,0.80078125
,84.089008,0.791015625
,84.0920936,0.78125
,84.1278606,0.771484375
,84.1283201,0.7666015625
,84.1641959,0.76171875
,84.1992737,0.751953125
,84.199928,0.7470703125
,84.2123115,0.7373046875
,84.2323628,0.732421875
,84.251975,0.7275390625
,84.2735929,0.7275390625
,84.3033196,0.7470703125
,84.3098633,0.771484375
,84.3499022,0.7958984375
,84.3506628,0.8251953125
,84.3869549,0.849609375
,84.3930827,0.869140625
,84.4126939,0.8935546875
,84.4599774,0.9033203125
,84.4604489,0.9130859375
,84.4700563,0.9130859375
,84.5066127,0.908203125
,84.5111603,0.8984375
,84.5473994,0.8837890625
,84.5521314,0.869140625
,84.599206,0.859375
,84.5995048,0.849609375
,84.6309865,0.83984375
,84.6314419,0.8251953125
,84.6501178,0.8154296875
,84.686484,0.8056640625
,84.6904641,0.80078125
,84.7414792,0.791015625
,84.7418483,0.78125
,84.7712113,0.7763671875
,84.7716708,0.7666015625
,84.8088876,0.76171875
,84.8299603,0.7568359375
,84.8354441,0.751953125
,84.8520298,0.7470703125
,84.8959143,0.7470703125
,84.8962485,0.7470703125
,84.911585,0.7470703125
,84.946082,0.7470703125
,84.9673005,0.7421875
,84.9752681,0.7421875
,84.9937553,0.7373046875
,85.0297408,0.732421875
,85.030192,0.732421875
,85.050152,0.732421875
,85.0866018,0.7470703125
,85.1061333,0.771484375
,85.1125717,0.80078125
,85.1623097,0.830078125
,85.1627918,0.859375
,85.1725781,0.8837890625
,85.1887603,0.908203125
,85.2240827,0.927734375
,85.2454601,0.947265625
,85.2519836,0.95703125
,85.3020191,0.95703125
,85.3023418,0.9521484375
,85.3139421,0.947265625
,85.3497709,0.9375
,85.3558207,0.9228515625
,85.3686925,0.9130859375
,85.4045298,0.908203125
,85.425831,0.8984375
,85.4329168,0.888671875
,85.4523445,0.87890625
,85.4885346,0.869140625
,85.4945783,0.859375
,85.5319567,0.8447265625
,85.5324934,0.8349609375
,85.5519686,0.8251953125
,85.5872926,0.8154296875
,85.5924921,0.80078125
,85.6277,0.791015625
,85.6329331,0.7861328125
,85.6710252,0.78125
,85.6743829,0.7763671875
,85.7109386,0.771484375
,85.7141305,0.771484375
,85.7355691,0.7666015625
,85.7507876,0.7666015625
,85.7860313,0.7666015625
,85.8073627,0.76171875
,85.8128051,0.76171875
,85.8334894,0.7568359375
,85.8801876,0.76171875
,85.8804953,0.7763671875
,85.8942409,0.80078125
,85.9321916,0.830078125
,85.9327257,0.8642578125
,85.9747421,0.8984375
,85.9752033,0.927734375
,86.0102173,0.9521484375
,86.0126747,0.9716796875
,86.0516509,0.99609375
,86.0563338,1.0205078125
,86.0744076,1.03515625
,86.0916279,1.0400390625
,86.1301317,1.03515625
,86.150834,1.025390625
,86.1525429,1.015625
,86.1871807,1.0009765625
,86.2066699,0.986328125
,86.2139022,0.966796875
,86.2547809,0.9423828125
,86.2552441,0.91796875
,86.2715615,0.8935546875
,86.3162249,0.8740234375
,86.3165178,0.849609375
,86.3326428,0.830078125
,86.3807215,0.810546875
,86.3814077,0.791015625
,86.409823,0.771484375
,86.4146487,0.7568359375
,86.4549839,0.7470703125
,86.4554318,0.732421875
,86.4714022,0.72265625
,86.5188461,0.712890625
,86.5192942,0.7080078125
,86.5390619,0.6982421875
,86.5554221,0.6884765625
,86.5906107,0.68359375
,86.596349,0.673828125
,86.6159153,0.6640625
,86.6510019,0.6591796875
,86.6514482,0.654296875
,86.689059,0.6640625
,86.6923251,0.68359375
,86.7360117,0.712890625
,86.7363135,0.7421875
,86.7569097,0.771484375
,86.8001721,0.80078125
,86.8006175,0.8251953125
,86.8114967,0.8447265625
,86.8635081,0.8642578125
,86.8639704,0.8740234375
,86.8734166,0.87890625
,86.9094818,0.8740234375
,86.9146492,0.869140625
,86.9551368,0.8642578125
,86.9554742,0.8544921875
,86.9902569,0.849609375
,87.011185,0.83984375
,87.0116398,0.830078125
,87.0477363,0.8251953125
,87.0690846,0.8154296875
,87.0744547,0.810546875
,87.1101352,0.80078125
,87.1157055,0.791015625
,87.1351382,0.7861328125
,87.1707136,0.7763671875
,87.1919556,0.771484375
,87.196935,0.7666015625
,87.2135216,0.7568359375
,87.2482365,0.751953125
,87.2690641,0.7470703125
,87.2743557,0.7470703125
,87.296025,0.7421875
,87.3305219,0.7421875
,87.3520969,0.7373046875
,87.3576391,0.7373046875
,87.3724947,0.732421875
,87.4120766,0.732421875
,87.443228,0.7275390625
,87.4437004,0.72265625
,87.455643,0.72265625
,87.4901093,0.7421875
,87.4960299,0.7666015625
,87.5149812,0.7958984375
,87.5496567,0.8251953125
,87.5711821,0.8544921875
,87.5716122,0.87890625
,87.6108443,0.9033203125
,87.6324221,0.9228515625
,87.6329193,0.9375
,87.6745753,0.9423828125
,87.7047878,0.9423828125
,87.7050852,0.9375
,87.7141341,0.9326171875
,87.7368209,0.9228515625
,87.7548674,0.9130859375
,87.7985415,0.9033203125
,87.7989631,0.8935546875
,87.8159376,0.8837890625
,87.8523834,0.87890625
,87.8566873,0.869140625
,87.8941456,0.859375
,87.8999343,0.849609375
,87.9358379,0.8447265625
,87.9362884,0.8349609375
,87.9711224,0.8251953125
,87.9757652,0.8203125
,88.0107107,0.8154296875
,88.0164726,0.8056640625
,88.0541054,0.80078125
,88.0568387,0.7958984375
,88.0914913,0.7861328125
,88.1123806,0.78125
,88.1146294,0.7763671875
,88.1578878,0.7666015625
,88.1581791,0.76171875
,88.1753372,0.7568359375
,88.2197889,0.751953125
,88.2200907,0.7470703125
,88.2416118,0.7421875
,88.2586093,0.7470703125
,88.2742554,0.7666015625
,88.3137003,0.7958984375
,88.3141636,0.8251953125
,88.3613809,0.8544921875
,88.3618272,0.8837890625
,88.3784696,0.908203125
,88.4227774,0.9326171875
,88.423557,0.9521484375
,88.4403064,0.966796875
,88.4553376,0.9765625
,88.4901667,0.9765625
,88.4960652,0.9716796875
,88.5481724,0.95703125
,88.5485194,0.947265625
,88.5571913,0.9326171875
,88.594555,0.9228515625
,88.5995364,0.908203125
,88.6186365,0.8984375
,88.6413454,0.8837890625
,88.6561324,0.869140625
,88.6911152,0.859375
,88.6969327,0.849609375
,88.7337142,0.83984375
,88.7364103,0.8251953125
,88.7723372,0.8154296875
,88.7775266,0.80078125
,88.8150557,0.791015625
,88.847072,0.78125
,88.8473638,0.771484375
,88.8567865,0.7666015625
,88.9081768,0.7568359375
,88.9084749,0.751953125
,88.9172844,0.7470703125
,88.9545993,0.7421875
,88.9599331,0.7373046875
,88.9955733,0.7373046875
,88.99601,0.732421875
,89.0340907,0.7275390625
,89.0641878,0.72265625
,89.0645108,0.7275390625
,89.0787699,0.7373046875
,89.0973621,0.76171875
,89.1433515,0.791015625
,89.1436934,0.8203125
,89.1734504,0.849609375
,89.1751601,0.8740234375
,89.2123427,0.8984375
,89.2174079,0.9130859375
,89.2526911,0.9326171875
,89.2573739,0.9375
,89.298801,0.9423828125
,89.2990986,0.9375
,89.3347319,0.927734375
,89.3633313,0.9130859375
,89.3637842,0.9033203125
,89.3775829,0.8837890625
,89.4241095,0.8740234375
,89.4247078,0.8642578125
,89.4388692,0.8544921875
,89.4593608,0.83984375
,89.4933081,0.830078125
,89.5138769,0.8203125
,89.5196203,0.810546875
,89.5393223,0.80078125
,89.5567715,0.791015625
,89.5921604,0.7861328125
,89.6131755,0.7763671875
,89.6181556,0.7666015625
,89.6552175,0.7568359375
,89.6607589,0.751953125
,89.6962167,0.7421875
,89.6992136,0.7373046875
,89.7379004,0.732421875
,89.7385314,0.7275390625
,89.7721906,0.7275390625
,89.778146,0.732421875
,89.8163284,0.732421875
,89.8167842,0.732421875
,89.8538186,0.732421875
,89.876099,0.732421875
,89.881693,0.7421875
,89.8974338,0.751953125
,89.9335755,0.78125
,89.936182,0.8056640625
,89.9815828,0.830078125
,89.9818723,0.849609375
,90.0125747,0.8740234375
,90.018977,0.888671875
,90.0408023,0.908203125
,90.0883384,0.91796875
,90.0886351,0.91796875
,90.1012753,0.9130859375
,90.118186,0.9033203125
,90.1662313,0.8984375
,90.1665682,0.888671875
,90.1795206,0.87890625
,90.228484,0.869140625
,90.2287927,0.859375
,90.2495108,0.849609375
,90.261253,0.8349609375
,90.2773887,0.8251953125
,90.3128515,0.8154296875
,90.3331015,0.8056640625
,90.3390042,0.7958984375
,90.3842739,0.7861328125
,90.3847226,0.7763671875
,90.4157618,0.771484375
,90.4204579,0.76171875
,90.4623699,0.751953125
,90.4631415,0.7421875
,90.4796166,0.732421875
,90.5255329,0.7275390625
,90.5262502,0.72265625
,90.539529,0.7177734375
,90.5732967,0.712890625
,90.5944333,0.7177734375
,90.601873,0.7177734375
,90.6178774,0.72265625
,90.666158,0.7275390625
,90.666531,0.732421875
,90.6783532,0.7470703125
,90.7139819,0.7763671875
,90.7357496,0.8056640625
,90.7406244,0.83984375
,90.7763835,0.869140625
,90.7809134,0.8984375
,90.7974765,0.9228515625
,90.8329528,0.947265625
,90.854956,0.9619140625
,90.8595982,0.9716796875
,90.9002403,0.9716796875
,90.900698,0.9619140625
,90.9205376,0.947265625
,90.9569647,0.9326171875
,90.9626896,0.91796875
,90.9988171,0.8984375
,91.0035689,0.888671875
,91.0181531,0.8740234375
,91.054074,0.8642578125
,91.0751663,0.849609375
,91.0805467,0.8349609375
,91.1177299,0.8251953125
,91.1224081,0.8154296875
,91.1413614,0.8056640625
,91.1779339,0.80078125
,91.178257,0.791015625
,91.225294,0.7861328125
,91.2255824,0.78125
,91.246334,0.7763671875
,91.2624887,0.771484375
,91.2824235,0.7666015625
,91.3197048,0.7666015625
,91.3217009,0.76171875
,91.3592556,0.7666015625
,91.3597201,0.771484375
,91.3796791,0.78125
,91.4281817,0.7861328125
,91.4284825,0.791015625
,91.4431321,0.7958984375
,91.4789276,0.80078125
,91.4800123,0.8056640625
,91.5191192,0.8203125
,91.51947,0.83984375
,91.5565096,0.8642578125
,91.5619572,0.8935546875
,91.5814563,0.9130859375
,91.630817,0.9375
,91.6312695,0.9521484375
,91.6412547,0.966796875
,91.6930872,0.9716796875
,91.6933939,0.9765625
,91.7025598,0.9716796875
,91.7400611,0.9619140625
,91.7404353,0.947265625
,91.7755877,0.9375
,91.7797763,0.927734375
,91.8143608,0.91796875
,91.8484994,0.908203125
,91.8488675,0.8935546875
,91.8622663,0.8837890625
,91.9110368,0.87890625
,91.9113347,0.869140625
,91.9190364,0.859375
,91.9568399,0.849609375
,91.9621397,0.83984375
,91.9970595,0.8251953125
,91.9997107,0.810546875
,92.035471,0.80078125
,92.0579554,0.791015625
,92.064042,0.78125
,92.0808088,0.7763671875
,92.1281651,0.7666015625
,92.1284599,0.76171875
,92.140271,0.7568359375
,92.1746715,0.7470703125
,92.1955609,0.7470703125
,92.2032,0.7373046875
,92.2528086,0.7373046875
,92.2532955,0.732421875
,92.2612212,0.7275390625
,92.2950115,0.7275390625
,92.3014057,0.7421875
,92.3207627,0.76171875
,92.3588522,0.7861328125
,92.3631553,0.8203125
,92.3989726,0.8447265625
,92.401648,0.869140625
,92.4388874,0.888671875
,92.4437569,0.908203125
,92.4587705,0.91796875
,92.4953669,0.927734375
,92.514435,0.927734375
,92.5216886,0.91796875
,92.5574967,0.908203125
,92.5787094,0.8984375
,92.5838333,0.888671875
,92.6261606,0.87890625
,92.6266316,0.869140625
,92.6405261,0.859375
,92.6780231,0.849609375
,92.6828409,0.83984375
,92.721901,0.830078125
,92.7223511,0.8203125
,92.7585425,0.810546875
,92.7825995,0.80078125
,92.7828975,0.7958984375
,92.7985398,0.80078125
,92.8323337,0.7958984375
,92.8528471,0.7958984375
,92.8622463,0.7958984375
,92.9098923,0.7958984375
,92.9103317,0.7958984375
,92.9232432,0.7958984375
,92.9594138,0.7861328125
,92.9641901,0.78125
,92.9789746,0.7666015625
,93.0151851,0.7568359375
,93.0365658,0.7470703125
,93.0434913,0.7373046875
,93.0827264,0.7373046875
,93.0831818,0.7373046875
,93.1191671,0.7470703125
,93.1238594,0.771484375
,93.1442856,0.7958984375
,93.1666137,0.8203125
,93.1817593,0.8447265625
,93.222606,0.8642578125
,93.2229075,0.87890625
,93.2690334,0.8935546875
,93.2694469,0.9033203125
,93.2841131,0.9130859375
,93.3194608,0.9130859375
,93.3403915,0.9130859375
,93.3453939,0.9130859375
,93.3611845,0.908203125
,93.3969772,0.908203125
,93.4162314,0.8984375
,93.4244077,0.87890625
,93.4593431,0.859375
,93.4641086,0.83984375
,93.5026227,0.8203125
,93.5079743,0.8056640625
,93.5227263,0.791015625
,93.5651021,0.78125
,93.5653903,0.771484375
,93.5832221,0.76171875
,93.6204101,0.751953125
,93.6233495,0.7470703125
,93.6619762,0.7373046875
,93.6624239,0.732421875
,93.7087107,0.7275390625
,93.7091086,0.7275390625
,93.7222245,0.732421875
,93.7712814,0.732421875
,93.7715853,0.732421875
,93.7840718,0.732421875
,93.8346909,0.7275390625
,93.8351132,0.72265625
,93.8449585,0.712890625
,93.8632824,0.7080078125
,93.886767,0.7080078125
,93.9062922,0.7177734375
,93.9222149,0.732421875
,93.959451,0.771484375
,93.9639386,0.80078125
,94.0019564,0.8349609375
,94.0048387,0.8642578125
,94.0517349,0.8935546875
,94.0521209,0.91796875
,94.0671484,0.9375
,94.0828918,0.947265625
,94.1040952,0.9521484375
,94.1234545,0.9521484375
,94.1449026,0.9423828125
,94.1651734,0.9326171875
,94.1851871,0.9228515625
,94.2223396,0.9130859375
,94.251705,0.9033203125
,94.2520612,0.8935546875
,94.2637975,0.888671875
,94.2842196,0.87890625
,94.3027639,0.869140625
,94.3375884,0.859375
,94.358476,0.849609375
,94.3666279,0.83984375
,94.385829,0.8251953125
,94.4222085,0.8154296875
,94.4226524,0.810546875
,94.4696587,0.80078125
,94.4699833,0.791015625
,94.4836737,0.7861328125
,94.5185432,0.78125
,94.5398778,0.771484375
,94.5471857,0.7666015625
,94.5664343,0.7568359375
,94.609779,0.751953125
,94.6101368,0.7421875
,94.6232798,0.7373046875
,94.6710655,0.7275390625
,94.6713678,0.72265625
,94.6916407,0.7177734375
,94.7054407,0.7177734375
,94.7407085,0.732421875
,94.7658865,0.76171875
,94.7662655,0.791015625
,94.8131042,0.830078125
,94.81341,0.859375
,94.8252863,0.8935546875
,94.8599478,0.9228515625
,94.8654312,0.9423828125
,94.9047723,0.95703125
,94.9052335,0.9619140625
,94.950274,0.9619140625
,94.9507217,0.947265625
,94.9665863,0.9326171875
,94.9997431,0.91796875
,95.0036059,0.9033203125
,95.0382903,0.888671875
,95.0597246,0.87890625
,95.0657731,0.8642578125
,95.1028075,0.8544921875
,95.1055267,0.83984375
,95.1494571,0.8251953125
,95.1497572,0.810546875
,95.1637508,0.80078125
,95.1990681,0.7861328125
,95.2211877,0.7763671875
,95.2256889,0.76171875
,95.2702139,0.751953125
,95.2705569,0.7421875
,95.2890431,0.7373046875
,95.3068217,0.7275390625
,95.324795,0.72265625
,95.3643071,0.7177734375
,95.364765,0.7177734375
,95.3837193,0.72265625
,95.4273323,0.72265625
,95.4276859,0.7275390625
,95.4584652,0.72265625
,95.4678241,0.72265625
,95.5046452,0.7177734375
,95.5068547,0.712890625
,95.5417234,0.7177734375
,95.5631022,0.732421875
,95.5657315,0.7568359375
,95.5850363,0.7861328125
,95.619306,0.810546875
,95.6396258,0.8349609375
,95.6465714,0.859375
,95.6889221,0.8740234375
,95.6892416,0.8935546875
,95.7044093,0.8984375
,95.74165,0.908203125
,95.7469962,0.9033203125
,95.7656074,0.8984375
,95.8144288,0.888671875
,95.8148867,0.8837890625
,95.8279818,0.8740234375
,95.8628232,0.8642578125
,95.8677102,0.859375
,95.8845616,0.8544921875
,95.9237194,0.849609375
,95.9480341,0.83984375
,95.9484854,0.830078125
,95.9642015,0.8251953125
,96.0007919,0.8154296875
,96.0215253,0.810546875
,96.0291215,0.80078125
,96.0454927,0.7958984375
,96.0868044,0.791015625
,96.0872554,0.7861328125
,96.1227482,0.7861328125
,96.1253142,0.78125
,96.1697497,0.7763671875
,96.170208,0.7763671875
,96.1861596,0.771484375
,96.2202583,0.7666015625
,96.241519,0.7666015625
,96.2489811,0.76171875
,96.2658042,0.7568359375
,96.2995201,0.751953125
,96.3065094,0.751953125
,96.3551908,0.7568359375
,96.3554819,0.7763671875
,96.3694391,0.8056640625
,96.4171499,0.830078125
,96.4174532,0.859375
,96.426639,0.8837890625
,96.464195,0.908203125
,96.4644883,0.927734375
,96.5111034,0.947265625
,96.511538,0.95703125
,96.531963,0.9619140625
,96.5477277,0.9619140625
,96.5693283,0.9521484375
,96.6051994,0.9423828125
,96.6056504,0.927734375
,96.6435063,0.91796875
,96.6732907,0.908203125
,96.6737386,0.8984375
,96.6858268,0.888671875
,96.7364649,0.87890625
,96.7369112,0.869140625
,96.7665184,0.8544921875
,96.7668491,0.8447265625
,96.7868625,0.830078125
,96.8222994,0.8203125
,96.8248597,0.810546875
,96.8610189,0.80078125
,96.8826364,0.791015625
,96.8894524,0.7861328125
,96.9361763,0.7763671875
,96.9364741,0.7666015625
,96.9508654,0.76171875
,96.9854632,0.751953125
,96.9859097,0.7568359375
,97.0083136,0.76171875
,97.0427929,0.76171875
,97.0484332,0.76171875
,97.0852539,0.76171875
,97.0899026,0.7666015625
,97.1372068,0.7666015625
,97.1374942,0.771484375
,97.149671,0.7861328125
,97.1690104,0.810546875
,97.2151492,0.8447265625
,97.2154544,0.8740234375
,97.2294199,0.9033203125
,97.2497037,0.927734375
,97.2854272,0.947265625
,97.291289,0.966796875
,97.3112217,0.9765625
,97.3264999,0.986328125
,97.3773287,0.986328125
,97.3776199,0.9814453125
,97.3878173,0.966796875
,97.4264073,0.95703125
,97.4267144,0.9423828125
,97.4705776,0.9326171875
,97.4708652,0.91796875
,97.4906684,0.9033203125
,97.5061722,0.8935546875
,97.5413983,0.87890625
,97.546693,0.869140625
,97.5678045,0.8544921875
,97.5882065,0.8447265625
,97.6230109,0.830078125
,97.6455959,0.8203125
,97.650551,0.8056640625
,97.6701111,0.7958984375
,97.6902097,0.78125
,97.7064068,0.7666015625
,97.7430541,0.76171875
,97.7480162,0.7568359375
,97.782444,0.7470703125
,97.8028362,0.7421875
,97.8076487,0.732421875
,97.8410218,0.7275390625
,97.8626708,0.7177734375
,97.8705316,0.712890625
,97.8873933,0.703125
,97.9233536,0.6982421875
,97.9291571,0.6982421875
,97.9690307,0.703125
,97.9693214,0.72265625
,98.0042058,0.751953125
,98.0319462,0.78125
,98.0323967,0.810546875
,98.0510415,0.83984375
,98.0683522,0.859375
,98.1077337,0.8837890625
,98.1080189,0.8984375
,98.1548075,0.9130859375
,98.1555371,0.91796875
,98.1687966,0.91796875
,98.2057777,0.908203125
,98.2103331,0.8984375
,98.2250629,0.8837890625
,98.2634273,0.87890625
,98.2844975,0.869140625
,98.288769,0.859375
,98.3244136,0.849609375
,98.3432975,0.83984375
,98.349029,0.830078125
,98.3886295,0.8203125
,98.4197817,0.8056640625
,98.4200789,0.7958984375
,98.4330236,0.7861328125
,98.4491563,0.771484375
,98.4848126,0.76171875
,98.4898466,0.7568359375
,98.5111129,0.751953125
,98.5607778,0.7421875
,98.561249,0.7373046875
,98.5716631,0.7373046875
,98.5910138,0.732421875
,98.6251083,0.7275390625
,98.6304261,0.7275390625
,98.6483248,0.72265625
,98.6841018,0.72265625
,98.6893435,0.7177734375
,98.7252422,0.712890625
,98.7454659,0.712890625
,98.7514982,0.7177734375
,98.7860086,0.7373046875
,98.8068385,0.76171875
,98.8100261,0.7958984375
,98.8592357,0.8251953125
,98.85954,0.8544921875
,98.8709952,0.87890625
,98.9194025,0.9033203125
,98.9197172,0.91796875
,98.9330338,0.9326171875
,98.9488058,0.9375
,98.9686031,0.9375
,99.0046691,0.927734375
,99.0094195,0.91796875
,99.06274,0.908203125
,99.0631927,0.8984375
,99.0721934,0.8837890625
,99.0923772,0.8740234375
,99.1117442,0.8642578125
,99.1292429,0.8544921875
,99.1487519,0.8447265625
,99.1837085,0.8349609375
,99.2042335,0.8251953125
,99.2097736,0.8154296875
,99.2309906,0.810546875
,99.2669384,0.80078125
,99.2724456,0.791015625
,99.3073057,0.78125
,99.3129384,0.771484375
,99.3545358,0.7666015625
,99.3549673,0.76171875
,99.3762347,0.7568359375
,99.3900868,0.751953125
,99.410634,0.7470703125
,99.4477153,0.7421875
,99.4523724,0.7421875
,99.4975843,0.732421875
,99.4980424,0.7275390625
,99.5098889,0.72265625
,99.5443824,0.72265625
,99.5655968,0.7275390625
,99.5707105,0.7470703125
,99.6208606,0.7763671875
,99.621846,0.8056640625
,99.6340784,0.83984375
,99.6537645,0.869140625
,99.6871551,0.8984375
,99.6876004,0.91796875
,99.7249849,0.9423828125
,99.7445277,0.95703125
,99.7524719,0.9716796875
,99.7714073,0.9716796875
,99.8073153,0.966796875
,99.8119596,0.95703125
,99.8481439,0.947265625
,99.8485767,0.9326171875
,99.8696466,0.9228515625
,99.912307,0.9130859375
,99.9127544,0.9033203125
,99.95895,0.8935546875
,99.9593252,0.87890625
,99.9703383,0.869140625
,100.0049717,0.859375
,100.0262068,0.849609375
,100.0338947,0.8349609375
,100.0862947,0.8251953125
,100.0866413,0.8154296875
,100.0908982,0.8056640625
,100.1328859,0.80078125
,100.1333355,0.791015625
,100.1797276,0.78125
,100.1800177,0.7763671875
,100.2102546,0.7666015625
,100.2126295,0.76171875
,100.2299977,0.7568359375
,100.2710634,0.751953125
,100.2715078,0.7470703125
,100.3065957,0.7421875
,100.3268283,0.7373046875
,100.3327182,0.732421875
,100.3695155,0.7275390625
,100.3727903,0.7373046875
,100.4110731,0.7568359375
,100.4115048,0.78125
,100.4577379,0.810546875
,100.4581197,0.83984375
,100.4879491,0.869140625
,100.4914295,0.888671875
,100.535342,0.9130859375
,100.5356459,0.927734375
,100.5656387,0.9423828125
,100.5684677,0.9423828125
,100.6040736,0.9423828125
,100.6249128,0.9375
,100.6330108,0.927734375
,100.6537666,0.91796875
,100.6904087,0.908203125
,100.6932578,0.8935546875
,100.7382601,0.888671875
,100.7387095,0.8740234375
,100.7595609,0.8642578125
,100.7747491,0.8544921875
,100.7905809,0.83984375
,100.8297754,0.830078125
,100.8505622,0.8203125
,100.8522432,0.810546875
,100.8879749,0.80078125
,100.8930283,0.791015625
,100.9287259,0.78125
,100.9492016,0.7763671875
,100.9551505,0.7666015625
,100.9726508,0.7568359375
,101.0079796,0.751953125
,101.0145807,0.7470703125
,101.0330988,0.7421875
,101.0824612,0.732421875
,101.0829263,0.7275390625
,101.0919627,0.72265625
,101.1435509,0.7177734375
,101.143857,0.7080078125
,101.174975,0.7080078125
,101.1754273,0.712890625
,101.1908711,0.7275390625
,101.2280136,0.751953125
,101.247684,0.78125
,101.2535092,0.810546875
,101.2734419,0.83984375
,101.3080699,0.8642578125
,101.3282921,0.8837890625
,101.3305396,0.908203125
,101.365869,0.91796875
,101.393462,0.927734375
,101.393768,0.927734375
,101.4298702,0.91796875
,101.4345699,0.9130859375
,101.4689786,0.9033203125
,101.4892467,0.8935546875
,101.4945613,0.8837890625
,101.510312,0.8740234375
,101.5473077,0.869140625
,101.5684154,0.8642578125
,101.5751866,0.8544921875
,101.5946172,0.849609375
,101.6410859,0.83984375
,101.6419242,0.830078125
,101.6565161,0.8203125
,101.7027714,0.810546875
,101.7032277,0.80078125
,101.7141544,0.7958984375
,101.7483174,0.7861328125
,101.7535056,0.78125
,101.7913407,0.771484375
,101.7967629,0.7666015625
,101.8162997,0.76171875
,101.8583052,0.76171875
,101.8587535,0.7568359375
,101.8724578,0.751953125
,101.9101683,0.7470703125
,101.9144985,0.7421875
,101.9504516,0.732421875
,101.9549761,0.7275390625
,101.9899666,0.732421875
,101.9947831,0.7470703125
,102.0303865,0.7763671875
,102.0503785,0.8056640625
,102.0537243,0.83984375
,102.0926501,0.8642578125
,102.0930983,0.8984375
,102.1315168,0.91796875
,102.1345444,0.9423828125
,102.1715841,0.95703125
