fs,t,y
50.679930629777616,0.5541151000000002,1.826171875
,0.5749485000000001,1.81640625
,0.5809063999999999,1.81640625
,0.5983356999999998,1.8359375
,0.6332149999999999,1.8994140625
,0.6540791000000001,1.982421875
,0.6575802,2.080078125
,0.6988335000000001,2.1630859375
,0.6991984000000002,2.2314453125
,0.7353097000000002,2.28515625
,0.7551850999999998,2.32421875
,0.7616675000000002,2.353515625
,0.7786582000000002,2.3779296875
,0.8131618999999999,2.40234375
,0.8184501000000002,2.412109375
,0.8535826000000002,2.412109375
,0.8865197,2.392578125
,0.8869823000000001,2.3583984375
,0.9016510000000002,2.3193359375
,0.9462882000000001,2.2802734375
,0.9466492,2.24609375
,0.9613806999999999,2.2119140625
,0.9777897000000002,2.1923828125
,1.0248084,2.1728515625
,1.0265586,2.1533203125
,1.0442057999999999,2.138671875
,1.0597069000000001,2.1142578125
,1.0955783000000001,2.0947265625
,1.1002583000000001,2.0654296875
,1.1489992,2.041015625
,1.1494244999999998,2.021484375
,1.1580503000000002,2.001953125
,1.1938613999999999,1.982421875
,1.1994278999999999,1.9677734375
,1.2190566,1.953125
,1.2527048,1.93359375
,1.2737693,1.9189453125
,1.2809871,1.904296875
,1.3158309,1.89453125
,1.3380703999999999,1.884765625
,1.3386592,1.875
,1.3746418,1.8701171875
,1.3805881000000002,1.8603515625
,1.4149237000000001,1.85546875
,1.4359937999999999,1.8505859375
,1.4418707,1.845703125
,1.4781958,1.8359375
,1.4826644999999998,1.8310546875
,1.4986221,1.81640625
,1.5190369000000001,1.81640625
,1.5396861,1.8310546875
,1.5736816,1.8896484375
,1.5948007,1.9677734375
,1.6013728,2.0654296875
,1.6392308999999998,2.1533203125
,1.6398205,2.2314453125
,1.6625778000000002,2.2900390625
,1.6844636999999998,2.32421875
,1.7276213999999999,2.353515625
,1.7282253,2.3828125
,1.7397936999999999,2.4072265625
,1.7898201999999999,2.421875
,1.7901813,2.421875
,1.8105859999999998,2.412109375
,1.8223820000000002,2.3876953125
,1.8578736,2.3486328125
,1.8637359999999998,2.3095703125
,1.8790752999999998,2.275390625
,1.9147734,2.255859375
,1.9355384,2.236328125
,1.9407397999999998,2.2216796875
,1.9904207999999999,2.2021484375
,1.9907857,2.1826171875
,2.0112933,2.16796875
,2.0242042,2.1484375
,2.0587729,2.1240234375
,2.0597152999999997,2.1044921875
,2.0798701,2.0849609375
,2.1161605000000003,2.0654296875
,2.1479843,2.0458984375
,2.1484300000000003,2.0263671875
,2.1614633999999997,2.0068359375
,2.197153,1.9921875
,2.2022974,1.9775390625
,2.2208211,1.962890625
,2.2573457,1.953125
,2.2610402,1.943359375
,2.3037604,1.93359375
,2.3041270000000003,1.9189453125
,2.3213523,1.9140625
,2.3564887,1.9091796875
,2.3816517,1.904296875
,2.3821972000000002,1.8994140625
,2.4038699,1.8994140625
,2.4378487,1.8798828125
,2.4584295999999997,1.875
,2.4611593000000003,1.875
,2.4967059000000003,1.884765625
,2.5205833,1.923828125
,2.5209859000000003,1.9873046875
,2.5550382999999997,2.0751953125
,2.5772000000000004,2.1533203125
,2.584544,2.2314453125
,2.6000981999999997,2.28515625
,2.6360127999999996,2.333984375
,2.6570403000000002,2.373046875
,2.6618863,2.3974609375
,2.6979303000000003,2.4169921875
,2.7010252,2.4267578125
,2.7377849999999997,2.431640625
,2.7587362000000004,2.421875
,2.7639255,2.3974609375
,2.7806787,2.3583984375
,2.8149876999999996,2.32421875
,2.8354956,2.294921875
,2.8409104000000003,2.275390625
,2.8617514999999996,2.255859375
,2.9105933999999998,2.24609375
,2.9109719,2.2265625
,2.9250752,2.20703125
,2.9401598,2.1826171875
,2.9771313,2.1630859375
,2.9805481,2.1435546875
,3.0194723999999997,2.119140625
,3.0213358,2.0947265625
,3.0666589,2.0703125
,3.0673952,2.0458984375
,3.0851219,2.03125
,3.1039195,2.01171875
,3.1255378,1.9970703125
,3.1597204000000003,1.9677734375
,3.1602838999999996,1.9580078125
,3.2067729,1.943359375
,3.207135,1.9287109375
,3.2282867,1.923828125
,3.2432062000000004,1.9140625
,3.2787324,1.904296875
,3.2988334999999998,1.904296875
,3.3045904000000004,1.8896484375
,3.3406361999999996,1.8798828125
,3.3410152,1.8701171875
,3.3773808,1.865234375
,3.3824649000000004,1.85546875
,3.4209011,1.85546875
,3.4215055000000003,1.884765625
,3.4567495,1.953125
,3.4761398000000003,2.03125
,3.4855280000000004,2.119140625
,3.5020492,2.1875
,3.5377671,2.24609375
,3.5412073,2.2900390625
,3.5792384999999998,2.32421875
,3.5836002000000002,2.3486328125
,3.6196626,2.373046875
,3.6243178,2.3876953125
,3.6587486,2.392578125
,3.6790544,2.3828125
,3.6809589999999996,2.3583984375
,3.716654,2.3291015625
,3.7379548,2.294921875
,3.7426842000000002,2.2607421875
,3.7784354999999996,2.236328125
,3.783385,2.2119140625
,3.8178422999999997,2.1923828125
,3.8390432,2.1728515625
,3.8455519999999996,2.1533203125
,3.8823637,2.1240234375
,3.8829133000000002,2.1044921875
,3.9184805999999996,2.0849609375
,3.922878,2.0654296875
,3.9680315999999998,2.041015625
,3.9685157999999996,2.0166015625
,3.9996874,1.9970703125
,4.0065637,1.982421875
,4.0425484,1.962890625
,4.0446769,1.943359375
,4.0626024,1.9287109375
,4.1069601,1.9140625
,4.1076926,1.8994140625
,4.1248177,1.884765625
,4.1451242,1.8701171875
,4.1794232,1.8603515625
,4.1865277,1.8505859375
,4.2218395,1.845703125
,4.2222658,1.8310546875
,4.2577589,1.826171875
,4.2776067,1.8212890625
,4.284829,1.8115234375
,4.3200235,1.8017578125
,4.3225102,1.7919921875
,4.3592601,1.8017578125
,4.3794558,1.845703125
,4.3852496,1.9287109375
,4.4011404,2.0166015625
,4.4380421,2.109375
,4.4620662,2.1826171875
,4.4626955,2.24609375
,4.5076194,2.294921875
,4.5079816,2.3291015625
,4.5290532,2.353515625
,4.5450304,2.373046875
,4.5827294,2.3876953125
,4.5875111,2.392578125
,4.6217186,2.3828125
,4.622252,2.3583984375
,4.6588934,2.32421875
,4.6637499,2.28515625
,4.6988913,2.2509765625
,4.7211031,2.2216796875
,4.7259551,2.2021484375
,4.7461273,2.177734375
,4.7815381,2.158203125
,4.8069452,2.138671875
,4.807426,2.119140625
,4.8232474,2.0947265625
,4.8598208,2.0703125
,4.879958,2.0458984375
,4.8851927,2.03125
,4.9073255,2.01171875
,4.9467703,1.9921875
,4.9472444,1.9677734375
,4.9636301,1.953125
,4.9993145,1.9384765625
,5.0045297,1.923828125
,5.0256522,1.9140625
,5.0447188,1.8994140625
,5.0883816,1.8896484375
,5.0887396,1.8798828125
,5.1356294,1.8701171875
,5.1365501,1.85546875
,5.143487,1.8505859375
,5.1818024,1.845703125
,5.1843873,1.8408203125
,5.2053837,1.8310546875
,5.2418912,1.8212890625
,5.2449878,1.8115234375
,5.2905312,1.8017578125
,5.2908885,1.8017578125
,5.3210528,1.8212890625
,5.3277169,1.8798828125
,5.3442448,1.962890625
,5.3801849,2.0654296875
,5.3847443,2.1484375
,5.4195393,2.2314453125
,5.4414403,2.28515625
,5.4466316,2.333984375
,5.4682644,2.36328125
,5.5097764,2.392578125
,5.5101528,2.4072265625
,5.5238989,2.421875
,5.5609702,2.4267578125
,5.5639835,2.4072265625
,5.5999092,2.3779296875
,5.6217709,2.34375
,5.626818,2.3046875
,5.662372,2.2705078125
,5.6679318,2.24609375
,5.6851074,2.2216796875
,5.7229392,2.2021484375
,5.7259997,2.1826171875
,5.7633,2.1630859375
,5.7672337,2.138671875
,5.7879763,2.119140625
,5.8374481,2.0947265625
,5.8380321,2.0703125
,5.848058,2.0458984375
,5.8626828,2.0166015625
,5.8974037,1.9970703125
,5.932272,1.9775390625
,5.9326866,1.962890625
,5.947594,1.9482421875
,5.9945608,1.93359375
,5.994928,1.9189453125
,6.0057022,1.904296875
,6.042375,1.8896484375
,6.0627674,1.875
,6.063273499999999,1.865234375
,6.104285000000001,1.8603515625
,6.1351475,1.85546875
,6.135546700000001,1.85546875
,6.1476428,1.845703125
,6.1671376,1.845703125
,6.2109217,1.8408203125
,6.211282799999999,1.8310546875
,6.2326064,1.826171875
,6.245136799999999,1.826171875
,6.2831656,1.85546875
,6.2862826,1.9140625
,6.307309699999999,2.0068359375
,6.3441154,2.0947265625
,6.3464887,2.1826171875
,6.3813172,2.24609375
,6.4150191,2.2998046875
,6.4153869,2.34375
,6.4242197,2.3828125
,6.458992,2.412109375
,6.4793991,2.431640625
,6.4868354,2.44140625
,6.5225328000000005,2.44140625
,6.5282974,2.4267578125
,6.549635500000001,2.3974609375
,6.584486399999999,2.3583984375
,6.5850729,2.3193359375
,6.6218842,2.294921875
,6.627902300000001,2.2705078125
,6.662187599999999,2.255859375
,6.666353900000001,2.236328125
,6.699633,2.216796875
,6.720586300000001,2.1923828125
,6.7289539000000005,2.16796875
,6.763236900000001,2.1435546875
,6.7836783,2.1142578125
,6.7863793999999995,2.08984375
,6.821228400000001,2.0703125
,6.8279394,2.05078125
,6.847092399999999,2.03125
,6.8820093,2.0068359375
,6.9024237,1.9873046875
,6.9106839,1.9677734375
,6.9444710999999995,1.953125
,6.950381,1.9384765625
,6.9668066,1.923828125
,7.0015076,1.9189453125
,7.022310900000001,1.9091796875
,7.027640699999999,1.8994140625
,7.0498782,1.89453125
,7.069616399999999,1.89453125
,7.116718199999999,1.884765625
,7.1170814,1.8701171875
,7.1372584,1.85546875
,7.1469533,1.845703125
,7.1816643,1.845703125
,7.1872299,1.8798828125
,7.2263798999999995,1.9482421875
,7.246119200000001,2.03125
,7.2507392,2.1142578125
,7.2880252,2.1875
,7.2884104999999995,2.24609375
,7.306042100000001,2.2900390625
,7.3419104,2.333984375
,7.3651561999999995,2.36328125
,7.3669718,2.392578125
,7.388437700000001,2.4072265625
,7.4233910000000005,2.421875
,7.4288826,2.4169921875
,7.4633447,2.3974609375
,7.484377200000001,2.3681640625
,7.490443000000001,2.3388671875
,7.5262872000000005,2.3095703125
,7.5267146,2.28515625
,7.5680225,2.265625
,7.568599300000001,2.24609375
,7.6135763999999995,2.2216796875
,7.6139393,2.197265625
,7.6354256,2.1728515625
,7.6495394999999995,2.1484375
,7.6900859,2.119140625
,7.690462200000001,2.08984375
,7.7230381,2.0654296875
,7.7282472,2.041015625
,7.763824,2.0166015625
,7.7979269,1.9921875
,7.7983002,1.97265625
,7.8103689,1.9482421875
,7.863641299999999,1.9287109375
,7.8642026000000005,1.9091796875
,7.8671863,1.8896484375
,7.901845,1.884765625
,7.9234028,1.875
,7.928057900000001,1.8603515625
,7.9640384,1.8505859375
,7.9866071000000005,1.8408203125
,7.988792200000001,1.8359375
,8.0335761,1.826171875
,8.0342053,1.81640625
,8.0476809,1.8115234375
,8.0849594,1.806640625
,8.0882834,1.81640625
,8.1094197,1.8603515625
,8.1438544,1.9287109375
,8.1494577,2.021484375
,8.1865938,2.1044921875
,8.191138,2.177734375
,8.2240368,2.236328125
,8.2439787,2.28515625
,8.2494194,2.3193359375
,8.284223,2.3486328125
,8.2896135,2.373046875
,8.3247536,2.392578125
,8.3286616,2.3974609375
,8.3649286,2.392578125
,8.3901677,2.3681640625
,8.3905837,2.3388671875
,8.4273596,2.2998046875
,8.4277171,2.2705078125
,8.4628259,2.24609375
,8.48514,2.2216796875
,8.4895409,2.2021484375
,8.5295636,2.1826171875
,8.5591042,2.158203125
,8.5596997,2.1337890625
,8.5718194,2.1142578125
,8.5890187,2.0947265625
,8.6371918,2.0751953125
,8.6378023,2.0458984375
,8.6507783,2.021484375
,8.6865732,1.9970703125
,8.6910329,1.97265625
,8.7298627,1.953125
,8.7302666,1.9384765625
,8.765818,1.9287109375
,8.7860915,1.9091796875
,8.7867842,1.8994140625
,8.8211791,1.8896484375
,8.8406775,1.875
,8.8498291,1.865234375
,8.8983157,1.85546875
,8.8989578,1.845703125
,8.9123171,1.8359375
,8.9606801,1.826171875
,8.9613327,1.81640625
,8.9813481,1.806640625
,8.9910394,1.806640625
,9.0359755,1.8212890625
,9.0363469,1.8603515625
,9.0500636,1.93359375
,9.0838176,2.021484375
,9.1046876,2.1044921875
,9.1123286,2.177734375
,9.1611848,2.2412109375
,9.1615571,2.28515625
,9.1697734,2.3291015625
,9.2069518,2.36328125
,9.2108571,2.3876953125
,9.2463664,2.40234375
,9.2519312,2.412109375
,9.303005,2.4072265625
,9.3036031,2.3876953125
,9.3095039,2.353515625
,9.3445584,2.32421875
,9.3663684,2.2900390625
,9.3707894,2.2705078125
,9.3924926,2.24609375
,9.4271758,2.2216796875
,9.4306618,2.197265625
,9.4522015,2.177734375
,9.4869723,2.1533203125
,9.5074318,2.12890625
,9.5090245,2.109375
,9.5443786,2.08984375
,9.5647207,2.0654296875
,9.5710335,2.041015625
,9.6141454,2.021484375
,9.614514,1.9970703125
,9.6621319,1.9775390625
,9.6625031,1.962890625
,9.672459,1.943359375
,9.706785,1.93359375
,9.7282326,1.9140625
,9.7288286,1.904296875
,9.7653499,1.89453125
,9.7858347,1.884765625
,9.7911731,1.875
,9.8249752,1.8701171875
,9.8472299,1.865234375
,9.8542317,1.85546875
,9.8705246,1.845703125
,9.9052347,1.8408203125
,9.9098598,1.8310546875
,9.9438849,1.8310546875
,9.964423,1.8408203125
,9.9745565,1.884765625
,9.9932331,1.9482421875
,10.0393377,2.0361328125
,10.0396953,2.1240234375
,10.0694838,2.1923828125
,10.069849,2.255859375
,10.1052152,2.2998046875
,10.1254988,2.34375
,10.1317856,2.373046875
,10.1796532,2.3974609375
,10.1800079,2.4169921875
,10.1933763,2.421875
,10.2102884,2.4169921875
,10.2458967,2.3974609375
,10.25068,2.3681640625
,10.2858008,2.333984375
,10.3058588,2.3046875
,10.3136938,2.2802734375
,10.3486941,2.265625
,10.3534156,2.2412109375
,10.3988199,2.2265625
,10.3992114,2.2021484375
,10.4132119,2.1826171875
,10.4320072,2.158203125
,10.4685227,2.138671875
,10.4731241,2.1142578125
,10.5081822,2.0947265625
,10.5133968,2.0703125
,10.5472917,2.05078125
,10.5679711,2.03125
,10.5759788,2.01171875
,10.5914998,1.9970703125
,10.6320789,1.982421875
,10.6325624,1.9677734375
,10.6511354,1.9580078125
,10.6926708,1.943359375
,10.6930716,1.93359375
,10.7294249,1.923828125
,10.7346325,1.9189453125
,10.7711112,1.9140625
,10.7714961,1.9091796875
,10.8197187,1.904296875
,10.8202806,1.89453125
,10.8326182,1.884765625
,10.8816458,1.875
,10.882306,1.8701171875
,10.8941233,1.8896484375
,10.9295126,1.943359375
,10.9590247,2.01171875
,10.9596219,2.08984375
,10.9730619,2.1630859375
,11.0225861,2.216796875
,11.0232268,2.265625
,11.033214,2.3046875
,11.0692526,2.34375
,11.0739289,2.373046875
,11.1124773,2.392578125
,11.1157104,2.4072265625
,11.1360601,2.4072265625
,11.1532036,2.3876953125
,11.18873,2.3681640625
,11.1913696,2.333984375
,11.2379158,2.3046875
,11.2387526,2.2802734375
,11.2539822,2.2607421875
,11.2892219,2.2412109375
,11.3097103,2.2265625
,11.3147618,2.20703125
,11.3319849,2.1875
,11.3667361,2.16796875
,11.3870705,2.1435546875
,11.3920543,2.1240234375
,11.4393499,2.099609375
,11.4399974,2.080078125
,11.4597001,2.060546875
,11.4762356,2.041015625
,11.4928837,2.021484375
,11.5278223,2.0068359375
,11.5333141,1.9921875
,11.5688804,1.9775390625
,11.5739745,1.962890625
,11.6113648,1.9482421875
,11.6161653,1.9384765625
,11.6519727,1.923828125
,11.6552366,1.9140625
,11.6739339,1.8994140625
,11.6927682,1.8994140625
,11.7296061,1.8896484375
,11.7345613,1.8798828125
,11.7812933,1.865234375
,11.7816688,1.865234375
,11.7957558,1.884765625
,11.8329169,1.943359375
,11.8375643,2.01171875
,11.87781,2.08984375
,11.8781721,2.158203125
,11.8931877,2.2265625
,11.9274871,2.275390625
,11.9491377,2.3193359375
,11.9557299,2.3583984375
,11.9913611,2.3876953125
,11.9958668,2.4072265625
,12.0402373,2.421875
,12.0408225,2.421875
,12.0532116,2.4072265625
,12.0899456,2.3828125
,12.0945112,2.353515625
,12.1152985,2.32421875
,12.1514123,2.2998046875
,12.1558261,2.2802734375
,12.1771239,2.265625
,12.2141834,2.24609375
,12.2146393,2.2265625
,12.2332082,2.20703125
,12.2676927,2.1875
,12.2884811,2.1630859375
,12.2932652,2.138671875
,12.3290724,2.1142578125
,12.3498485,2.08984375
,12.3546919,2.0654296875
,12.3980545,2.0458984375
,12.3984199,2.0263671875
,12.4198219,2.01171875
,12.4341077,1.9970703125
,12.4702606,1.9873046875
,12.4759491,1.97265625
,12.4961108,1.9580078125
,12.5307851,1.943359375
,12.5358415,1.9287109375
,12.5718809,1.9140625
,12.5770757,1.9091796875
,12.6138564,1.904296875
,12.614455,1.8896484375
,12.6509042,1.8896484375
,12.6538678,1.8798828125
,12.69128,1.8701171875
,12.6969455,1.865234375
,12.7443799,1.884765625
,12.7447482,1.93359375
,12.7583981,2.0068359375
,12.7735211,2.080078125
,12.8086189,2.1630859375
,12.8384131,2.2216796875
,12.8388531,2.2802734375
,12.8556433,2.3193359375
,12.8899784,2.353515625
,12.9111765,2.3828125
,12.9174266,2.4072265625
,12.9545731,2.421875
,12.955041,2.4267578125
,12.9950352,2.4169921875
,12.9956185,2.392578125
,13.0266865,2.353515625
,13.0359106,2.3193359375
,13.0879869,2.28515625
,13.0883827,2.2607421875
,13.097312,2.2412109375
,13.1135524,2.2216796875
,13.1527673,2.2021484375
,13.1533224,2.1826171875
,13.1889942,2.158203125
,13.2102265,2.1337890625
,13.2184938,2.109375
,13.237721,2.0849609375
,13.2891647,2.060546875
,13.2898727,2.0361328125
,13.2985607,2.0166015625
,13.3338677,1.9921875
,13.3342505,1.9775390625
,13.3829814,1.962890625
,13.3836426,1.953125
,13.3952329,1.9384765625
,13.4322097,1.923828125
,13.4615776,1.9091796875
,13.4620276,1.89453125
,13.4795514,1.884765625
,13.4944026,1.8701171875
,13.5294942,1.865234375
,13.5506971,1.8603515625
,13.5583812,1.8505859375
,13.5771285,1.8408203125
,13.6176925,1.8310546875
,13.6182364,1.8212890625
,13.63859,1.8212890625
,13.680305,1.8505859375
,13.6806722,1.9091796875
,13.7011354,1.9921875
,13.7151284,2.0751953125
,13.7530508,2.1533203125
,13.7562292,2.2119140625
,13.7896033,2.265625
,13.8120214,2.3046875
,13.818613,2.34375
,13.834606,2.36328125
,13.8694767,2.392578125
,13.8905446,2.4072265625
,13.8962142,2.4072265625
,13.9319642,2.392578125
,13.9378422,2.36328125
,13.9897549,2.32421875
,13.9903493,2.2900390625
,13.9976893,2.2607421875
,14.0365617,2.2412109375
,14.041338799999998,2.216796875
,14.055492000000001,2.197265625
,14.091272400000001,2.177734375
,14.0978405,2.158203125
,14.134866200000001,2.138671875
,14.1394801,2.119140625
,14.176342300000002,2.0947265625
,14.1769274,2.0751953125
,14.2148815,2.05078125
,14.2185071,2.03125
,14.237224900000001,2.01171875
,14.285429400000002,2.001953125
,14.285813399999999,1.9873046875
,14.2988009,1.97265625
,14.318061499999999,1.9580078125
,14.3619695,1.9482421875
,14.3624561,1.93359375
,14.3833181,1.923828125
,14.3960911,1.9091796875
,14.4317591,1.9091796875
,14.437113499999999,1.8994140625
,14.472936700000002,1.89453125
,14.478065399999998,1.8896484375
,14.513458700000001,1.8896484375
,14.5195595,1.8798828125
,14.5396398,1.8701171875
,14.575641399999999,1.865234375
,14.5760756,1.875
,14.614494700000002,1.9189453125
,14.615073299999999,1.9873046875
,14.637902799999999,2.0751953125
,14.6747868,2.1484375
,14.6774785,2.2216796875
,14.7209675,2.275390625
,14.721422100000002,2.3193359375
,14.7516785,2.353515625
,14.758858199999999,2.3828125
,14.776352200000002,2.40234375
,14.8118388,2.4267578125
,14.8321449,2.431640625
,14.837885700000001,2.421875
,14.877002300000001,2.392578125
,14.8777318,2.353515625
,14.916421799999998,2.314453125
,14.921995899999999,2.28515625
,14.970564,2.255859375
,14.971120299999999,2.236328125
,14.977904299999999,2.2216796875
,15.0171825,2.197265625
,15.0175476,2.177734375
,15.065600199999999,2.158203125
,15.066027299999998,2.1337890625
,15.0960794,2.1142578125
,15.100721100000001,2.08984375
,15.1177536,2.0654296875
,15.154035499999999,2.0556640625
,15.1570712,2.041015625
,15.1935513,2.021484375
,15.1993631,2.01171875
,15.2191626,1.9970703125
,15.2659217,1.9873046875
,15.2662938,1.97265625
,15.281476900000001,1.9580078125
,15.296581,1.943359375
,15.319104800000002,1.93359375
,15.3560384,1.923828125
,15.3564985,1.9091796875
,15.406516100000001,1.8994140625
,15.4068793,1.884765625
,15.437566799999999,1.865234375
,15.439389599999998,1.845703125
,15.4749318,1.8359375
,15.4952973,1.8505859375
,15.5007093,1.89453125
,15.519327700000002,1.962890625
,15.562295899999999,2.05078125
,15.562655500000002,2.119140625
,15.5806058,2.1826171875
,15.615065900000001,2.2314453125
,15.621414600000001,2.2705078125
,15.640886299999998,2.2998046875
,15.675193199999999,2.32421875
,15.6957499,2.34375
,15.6962644,2.3583984375
,15.7302481,2.3583984375
,15.7510042,2.3388671875
,15.7604921,2.3095703125
,15.797926100000002,2.2705078125
,15.802596600000001,2.2314453125
,15.8214599,2.2021484375
,15.869225,2.1826171875
,15.869622,2.1630859375
,15.877503,2.1435546875
,15.9117146,2.1240234375
,15.934672599999999,2.1044921875
,15.941623799999999,2.080078125
,15.960432699999998,2.0556640625
,16.0095711,2.03125
,16.0102177,2.001953125
,16.0194505,1.9775390625
,16.0383985,1.9580078125
,16.0876836,1.93359375
,16.0882655,1.9189453125
,16.119151,1.904296875
,16.1197356,1.884765625
,16.1548206,1.8701171875
,16.175457,1.85546875
,16.1828985,1.845703125
,16.2023495,1.8359375
,16.2366973,1.826171875
,16.2592753,1.81640625
,16.2598766,1.8115234375
,16.2949632,1.8017578125
,16.3017405,1.7919921875
,16.3226366,1.7822265625
,16.3417602,1.7724609375
,16.3782858,1.7724609375
,16.3828705,1.796875
,16.3981318,1.8505859375
,16.4334179,1.9482421875
,16.4535684,2.0458984375
,16.4594443,2.12890625
,16.5109675,2.20703125
,16.5116368,2.2607421875
,16.5206074,2.3046875
,16.5574454,2.3388671875
,16.5779952,2.3681640625
,16.5785769,2.3876953125
,16.6148647,2.40234375
,16.6198047,2.4072265625
,16.665871,2.392578125
,16.6662657,2.36328125
,16.6805504,2.3291015625
,16.7150961,2.2900390625
,16.7427521,2.255859375
,16.7431248,2.2314453125
,16.7584759,2.20703125
,16.7926021,2.1875
,16.8134811,2.16796875
,16.8219817,2.1484375
,16.8568533,2.1240234375
,16.8613824,2.099609375
,16.8822545,2.0751953125
,16.9296769,2.0458984375
,16.9300425,2.021484375
,16.942761,1.9970703125
,16.9586924,1.97265625
,16.995567,1.953125
,17.0246824,1.93359375
,17.025086,1.9189453125
,17.04119,1.8994140625
,17.0880367,1.884765625
,17.0887104,1.865234375
,17.1028125,1.8505859375
,17.1483441,1.8359375
,17.1487204,1.826171875
,17.1617039,1.81640625
,17.1979991,1.8115234375
,17.202664,1.806640625
,17.2216014,1.796875
,17.2589245,1.7919921875
,17.2792833,1.7822265625
,17.2843825,1.77734375
,17.2995675,1.796875
,17.3393115,1.8603515625
,17.3400023,1.943359375
,17.3622776,2.041015625
,17.3961018,2.1337890625
,17.4016271,2.2021484375
,17.4371557,2.2607421875
,17.4430854,2.3046875
,17.4792603,2.3388671875
,17.4797158,2.36328125
,17.5253884,2.3876953125
,17.5258388,2.40234375
,17.5559923,2.4072265625
,17.5629607,2.3876953125
,17.6034423,2.36328125
,17.6040266,2.32421875
,17.6398404,2.28515625
,17.6431433,2.2509765625
,17.6815739,2.2265625
,17.6820487,2.2021484375
,17.7013643,2.1875
,17.7367019,2.16796875
,17.7426898,2.1484375
,17.7761575,2.1240234375
,17.7970285,2.1044921875
,17.8046335,2.0751953125
,17.8417861,2.05078125
,17.8423621,2.03125
,17.8607668,2.0068359375
,17.8974891,1.9873046875
,17.9005764,1.9677734375
,17.9365915,1.953125
,17.9643489,1.9384765625
,17.964727,1.923828125
,17.9997118,1.9091796875
,18.0047659,1.8994140625
,18.0433534,1.8896484375
,18.0437707,1.875
,18.0632353,1.8701171875
,18.0971598,1.865234375
,18.1025067,1.8603515625
,18.1394352,1.8505859375
,18.144904,1.8408203125
,18.1819342,1.8310546875
,18.1823658,1.8212890625
,18.228739,1.8212890625
,18.2291839,1.8603515625
,18.242108,1.923828125
,18.2780415,2.01171875
,18.2839422,2.0947265625
,18.3039283,2.1728515625
,18.3527263,2.2314453125
,18.3534606,2.28515625
,18.363939,2.3193359375
,18.4000866,2.3486328125
,18.4214754,2.373046875
,18.4221354,2.3876953125
,18.4578928,2.3974609375
,18.463045,2.392578125
,18.4985992,2.373046875
,18.5036011,2.3388671875
,18.5396398,2.2998046875
,18.5454673,2.265625
,18.5808407,2.2412109375
,18.6057756,2.216796875
,18.6061338,2.2021484375
,18.6227617,2.1826171875
,18.6670378,2.1630859375
,18.6676314,2.1435546875
,18.6821777,2.119140625
,18.720319,2.08984375
,18.7249449,2.0654296875
,18.7600932,2.041015625
,18.7803851,2.0166015625
,18.7835472,1.9921875
,18.8200137,1.97265625
,18.8229329,1.953125
,18.8680182,1.93359375
,18.868387,1.9140625
,18.8831523,1.89453125
,18.9231348,1.8798828125
,18.9236953,1.865234375
,18.9420211,1.8603515625
,18.976446,1.845703125
,18.9974714,1.8359375
,19.0028113,1.8212890625
,19.0527544,1.8017578125
,19.0531334,1.7919921875
,19.0653399,1.77734375
,19.1160624,1.7919921875
,19.1165328,1.8359375
,19.1267023,1.9140625
,19.1422281,1.9970703125
,19.1781715,2.080078125
,19.1849642,2.1435546875
,19.2238713,2.197265625
,19.2242485,2.2412109375
,19.2583084,2.275390625
,19.2799789,2.2998046875
,19.2869723,2.3193359375
,19.3074086,2.333984375
,19.3251146,2.3291015625
,19.3616954,2.3193359375
,19.3625508,2.2900390625
,19.3996994,2.2509765625
,19.4045235,2.216796875
,19.4413825,2.1875
,19.4467111,2.1630859375
,19.4893053,2.1484375
,19.4897394,2.12890625
,19.5041883,2.1142578125
,19.5365704,2.0947265625
,19.5576964,2.0751953125
,19.5657699,2.05078125
,19.6134209,2.0263671875
,19.6138503,2.001953125
,19.62555,1.9775390625
,19.6481434,1.953125
,19.6631432,1.93359375
,19.6981245,1.9189453125
,19.7031469,1.8896484375
,19.7363237,1.884765625
,19.7587151,1.875
,19.7659723,1.8701171875
,19.8020281,1.8603515625
,19.8056688,1.8505859375
,19.8461519,1.8408203125
,19.8465163,1.8310546875
,19.8648951,1.8212890625
,19.8994868,1.81640625
,19.9041552,1.806640625
,19.9557393,1.796875
,19.9560949,1.796875
,19.9678012,1.81640625
,20.0024088,1.8798828125
,20.0071109,1.9580078125
,20.0278873,2.0556640625
,20.0446818,2.1337890625
,20.0823874,2.20703125
,20.0829882,2.255859375
,20.1193435,2.3046875
,20.1411038,2.333984375
,20.147672,2.3583984375
,20.1669468,2.373046875
,20.2049329,2.3876953125
,20.205299,2.3828125
,20.2403041,2.373046875
,20.2446876,2.34375
,20.280301,2.314453125
,20.3009871,2.2802734375
,20.3066113,2.24609375
,20.3448842,2.2265625
,20.3453067,2.2021484375
,20.3812915,2.1875
,20.4012762,2.16796875
,20.4039057,2.1533203125
,20.4255577,2.12890625
,20.4619098,2.1044921875
,20.4648929,2.080078125
,20.5170214,2.05078125
,20.5174969,2.0263671875
,20.5280609,2.001953125
,20.5649042,1.9775390625
,20.5694436,1.9580078125
,20.6100582,1.9384765625
,20.6106101,1.9189453125
,20.6263759,1.9091796875
,20.6599409,1.89453125
,20.6806174,1.884765625
,20.6850551,1.8701171875
,20.7218874,1.8603515625
,20.7424967,1.845703125
,20.7484845,1.8408203125
,20.7655146,1.8310546875
,20.7998824,1.8212890625
,20.8203363,1.8115234375
,20.8277902,1.806640625
,20.864494,1.8017578125
,20.8676042,1.8310546875
,20.9031338,1.884765625
,20.9089234,1.97265625
,20.9286383,2.060546875
,20.9464805,2.1337890625
,20.9814485,2.2021484375
,20.984564,2.2509765625
,21.0319458,2.294921875
,21.0323188,2.3291015625
,21.0538446,2.3583984375
,21.067561,2.3779296875
,21.1098911,2.392578125
,21.1102498,2.392578125
,21.1298631,2.3779296875
,21.1464697,2.34375
,21.1676461,2.314453125
,21.2166533,2.28515625
,21.2173109,2.255859375
,21.2290658,2.236328125
,21.265777,2.216796875
,21.266244,2.197265625
,21.300161,2.177734375
,21.3214442,2.1630859375
,21.3257357,2.138671875
,21.3619223,2.119140625
,21.3827691,2.1044921875
,21.3879853,2.080078125
,21.4243391,2.0556640625
,21.4275033,2.03125
,21.4626026,2.0068359375
,21.4944386,1.9873046875
,21.4947386,1.9677734375
,21.5055758,1.953125
,21.5413628,1.9384765625
,21.5486851,1.9287109375
,21.5675721,1.9140625
,21.588669,1.904296875
,21.6241975,1.89453125
,21.6290827,1.8896484375
,21.6648669,1.8798828125
,21.6654543,1.8701171875
,21.6849742,1.865234375
,21.7185559,1.85546875
,21.7409819,1.8505859375
,21.7482645,1.85546875
,21.7894907,1.89453125
,21.7898218,1.9580078125
,21.8236287,2.0361328125
,21.8257153,2.1044921875
,21.8598612,2.1728515625
,21.8809528,2.2119140625
,21.8877674,2.2412109375
,21.9069845,2.28515625
,21.958655,2.3193359375
,21.9590824,2.3486328125
,21.9691297,2.3681640625
,22.0036826,2.3779296875
,22.0233656,2.373046875
,22.0291687,2.353515625
,22.0614541,2.3193359375
,22.0657904,2.28515625
,22.0988747,2.255859375
,22.120994,2.2314453125
,22.1293715,2.2119140625
,22.1509607,2.1923828125
,22.1705092,2.1728515625
,22.2051043,2.1484375
,22.2104503,2.1240234375
,22.2270291,2.0947265625
,22.2637123,2.0703125
,22.268444,2.0458984375
,22.3130991,2.021484375
,22.3134708,1.9970703125
,22.3298616,1.97265625
,22.3656986,1.953125
,22.3701912,1.93359375
,22.3868916,1.9140625
,22.4079025,1.8994140625
,22.4526117,1.8798828125
,22.4531438,1.8701171875
,22.4723397,1.85546875
,22.4901064,1.845703125
,22.5237342,1.8359375
,22.5449022,1.81640625
,22.5495253,1.8017578125
,22.592417,1.7822265625
,22.5927769,1.7724609375
,22.6087218,1.7626953125
,22.6430092,1.806640625
,22.6478919,1.8701171875
,22.6838444,1.9580078125
,22.702336,2.03125
,22.7099591,2.099609375
,22.7477767,2.1484375
,22.7686421,2.197265625
,22.7691683,2.2265625
,22.7898694,2.2607421875
,22.8249498,2.28515625
,22.8280576,2.3095703125
,22.8720467,2.3193359375
,22.8724135,2.314453125
,22.8914666,2.2900390625
,22.910915,2.2607421875
,22.9455459,2.2265625
,22.9658535,2.197265625
,22.9682394,2.177734375
,23.0032695,2.1630859375
,23.0235032,2.1435546875
,23.0308661,2.1240234375
,23.0679853,2.1044921875
,23.0686191,2.080078125
,23.1044309,2.05078125
,23.1252692,2.0263671875
,23.1280415,1.9970703125
,23.1623762,1.9775390625
,23.1830067,1.953125
,23.1881319,1.93359375
,23.2228438,1.9091796875
,23.2439158,1.8896484375
,23.2509599,1.8701171875
,23.2913672,1.85546875
,23.2918421,1.8408203125
,23.3113883,1.826171875
,23.3299402,1.8017578125
,23.3495006,1.8017578125
,23.369358,1.796875
,23.4177609,1.7919921875
,23.4183381,1.787109375
,23.4455592,1.7822265625
,23.4532746,1.767578125
,23.4730786,1.767578125
,23.5079585,1.767578125
,23.5085473,1.7919921875
,23.5298838,1.85546875
,23.5673293,1.9384765625
,23.5886882,2.0263671875
,23.5892695,2.099609375
,23.6308825,2.16796875
,23.6314092,2.216796875
,23.6516344,2.2607421875
,23.6687254,2.294921875
,23.7035703,2.3291015625
,23.7240525,2.353515625
,23.7297609,2.3681640625
,23.7737471,2.373046875
,23.7741136,2.3583984375
,23.7925305,2.333984375
,23.811912,2.2998046875
,23.8498044,2.265625
,23.8501944,2.2314453125
,23.8848647,2.2119140625
,23.8893825,2.1923828125
,23.9375609,2.1728515625
,23.938042,2.1533203125
,23.9569404,2.1337890625
,23.9732997,2.109375
,24.0089933,2.0849609375
,24.0150532,2.060546875
,24.0342258,2.021484375
,24.0500566,1.9873046875
,24.0917846,1.9775390625
,24.0922774,1.9580078125
,24.1119107,1.943359375
,24.1464065,1.923828125
,24.1505871,1.904296875
,24.1864941,1.884765625
,24.2062022,1.8701171875
,24.2121765,1.85546875
,24.2286645,1.8408203125
,24.2660937,1.826171875
,24.2713381,1.81640625
,24.3094091,1.8115234375
,24.309838,1.796875
,24.3456016,1.787109375
,24.3662709,1.7724609375
,24.3743681,1.767578125
,24.3881592,1.7626953125
,24.4267171,1.77734375
,24.4315388,1.8310546875
,24.4669394,1.8994140625
,24.4718289,1.9921875
,24.5087716,2.0703125
,24.5112001,2.1435546875
,24.5454372,2.197265625
,24.5671066,2.2509765625
,24.5675039,2.28515625
,24.6045386,2.32421875
,24.6349239,2.3486328125
,24.6353906,2.3779296875
,24.652574,2.3876953125
,24.6877805,2.3828125
,24.6930625,2.3583984375
,24.7305935,2.32421875
,24.7311795,2.28515625
,24.7536019,2.255859375
,24.7740366,2.216796875
,24.7916111,2.1826171875
,24.8368343,2.16796875
,24.8372004,2.1533203125
,24.8541435,2.1337890625
,24.9005411,2.1142578125
,24.9011446,2.0947265625
,24.9133749,2.0703125
,24.9339964,2.05078125
,24.9518699,2.0263671875
,24.9705123,2.0068359375
,25.0078584,1.9873046875
,25.0280705,1.9677734375
,25.0335034,1.9482421875
,25.0711257,1.9287109375
,25.0740294,1.9140625
,25.1095654,1.8994140625
,25.1148141,1.8798828125
,25.1305974,1.865234375
,25.1668276,1.8603515625
,25.1950376,1.8505859375
,25.1954902,1.8505859375
,25.211575,1.8408203125
,25.2470514,1.8310546875
,25.2675343,1.81640625
,25.2736839,1.806640625
,25.2909228,1.796875
,25.3339372,1.826171875
,25.334522,1.875
,25.3546186,1.953125
,25.3890614,2.03125
,25.3918066,2.109375
,25.4299248,2.177734375
,25.4345368,2.2265625
,25.474041,2.275390625
,25.4744292,2.3046875
,25.4945812,2.32421875
,25.5354888,2.333984375
,25.5358615,2.3583984375
,25.5548113,2.36328125
,25.572951,2.3486328125
,25.6139942,2.32421875
,25.614385,2.294921875
,25.6336217,2.265625
,25.6691667,2.236328125
,25.6898431,2.2119140625
,25.6922835,2.1923828125
,25.7383224,2.177734375
,25.7386784,2.1533203125
,25.767557,2.12890625
,25.7751781,2.1044921875
,25.795674,2.080078125
,25.8460757,2.05078125
,25.8465555,2.0263671875
,25.8498517,1.9970703125
,25.8917732,1.9775390625
,25.8923558,1.953125
,25.9127379,1.9384765625
,25.9536989,1.9189453125
,25.9540636,1.904296875
,25.9910862,1.884765625
,25.9942347,1.865234375
,26.0110392,1.8505859375
,26.0463731,1.845703125
,26.0668206,1.8359375
,26.0737167,1.826171875
,26.109502,1.81640625
,26.1122118,1.8017578125
,26.1473838,1.7919921875
,26.1691372,1.7822265625
,26.1741882,1.787109375
,26.1959317,1.8212890625
,26.2158591,1.8798828125
,26.2330566,1.953125
,26.2792912,2.0458984375
,26.2796613,2.1240234375
,26.2944546,2.1923828125
,26.3301545,2.2412109375
,26.3359889,2.2802734375
,26.3733803,2.3095703125
,26.3766443,2.3291015625
,26.4191672,2.34375
,26.4197206,2.3486328125
,26.4345547,2.34375
,26.4549346,2.32421875
,26.4895153,2.294921875
,26.4940763,2.2607421875
,26.5320583,2.2314453125
,26.5351694,2.2021484375
,26.5713365,2.1826171875
,26.5910058,2.1630859375
,26.5913659,2.1435546875
,26.627792,2.1240234375
,26.6487114,2.099609375
,26.6537245,2.0751953125
,26.6891562,2.05078125
,26.7114566,2.0263671875
,26.7158302,2.001953125
,26.7585421,1.9775390625
,26.758912,1.9580078125
,26.7733442,1.9384765625
,26.8071831,1.9189453125
,26.8292106,1.904296875
,26.8344416,1.884765625
,26.8694866,1.875
,26.8901982,1.8603515625
,26.896324,1.8505859375
,26.9167517,1.8408203125
,26.938033,1.826171875
,26.9541911,1.8115234375
,26.9900892,1.8115234375
,26.9953794,1.8115234375
,27.0155158,1.8017578125
,27.0578988,1.796875
,27.058268,1.8017578125
,27.0885761,1.8359375
,27.0954924,1.89453125
,27.1312636,1.982421875
,27.1530407,2.0654296875
,27.1536278,2.1533203125
,27.1908646,2.216796875
,27.1944355,2.275390625
,27.2325603,2.3193359375
,27.2333874,2.353515625
,27.2689792,2.3779296875
,27.2903985,2.3974609375
,27.290788,2.4072265625
,27.3397442,2.4072265625
,27.3403304,2.392578125
,27.3702822,2.3583984375
,27.3749621,2.3193359375
,27.4150995,2.28515625
,27.4154649,2.2509765625
,27.4354218,2.2314453125
,27.4727514,2.2119140625
,27.4731114,2.1923828125
,27.4937025,2.177734375
,27.5403655,2.1533203125
,27.5408858,2.12890625
,27.5559903,2.1044921875
,27.5884313,2.080078125
,27.6085954,2.05078125
,27.6190293,2.0263671875
,27.6634325,2.001953125
,27.6638081,1.9775390625
,27.6781296,1.943359375
,27.6966293,1.923828125
,27.7164939,1.9091796875
,27.7532423,1.8896484375
,27.7562844,1.8798828125
,27.792059,1.8701171875
,27.7969279,1.85546875
,27.8316986,1.845703125
,27.8522926,1.8408203125
,27.8551943,1.8310546875
,27.89013,1.826171875
,27.8960721,1.8115234375
,27.9311204,1.8017578125
,27.9607775,1.7919921875
,27.9611489,1.8115234375
,27.9785432,1.865234375
,28.023034,1.9384765625
,28.0236455,2.03125
,28.0334081,2.1142578125
,28.0683013,2.1923828125
,28.0897647,2.255859375
,28.0973492,2.3095703125
,28.11784,2.3486328125
,28.136815,2.3779296875
,28.1765771,2.40234375
,28.1769462,2.4169921875
,28.198118,2.4169921875
,28.2159426,2.412109375
,28.2504739,2.3828125
,28.2555262,2.3486328125
,28.2917104,2.314453125
,28.2964802,2.2802734375
,28.3319007,2.255859375
,28.3521705,2.2314453125
,28.3572139,2.216796875
,28.3775308,2.197265625
,28.4256588,2.16796875
,28.4260205,2.1484375
,28.4459827,2.12890625
,28.4556449,2.1142578125
,28.4913913,2.0947265625
,28.5128973,2.0703125
,28.5178868,2.05078125
,28.5555434,2.03125
,28.5598721,2.01171875
,28.574881,1.9970703125
,28.609263,1.982421875
,28.6300008,1.97265625
,28.6384756,1.9580078125
,28.6720683,1.9482421875
,28.6794579,1.9384765625
,28.7253849,1.9287109375
,28.7259906,1.923828125
,28.7395339,1.9140625
,28.7560885,1.8994140625
,28.8003277,1.8896484375
,28.800978,1.884765625
,28.8166236,1.884765625
,28.8381637,1.904296875
,28.8728356,1.962890625
,28.8936632,2.0361328125
,28.8988952,2.119140625
,28.9364594,2.1923828125
,28.9368325,2.2509765625
,28.9713032,2.3046875
,28.978262,2.34375
,29.0122382,2.3779296875
,29.0183312,2.3974609375
,29.0531838,2.4169921875
,29.0733559,2.421875
,29.0795291,2.4169921875
,29.1004565,2.3876953125
,29.1382569,2.3486328125
,29.1388983,2.3095703125
,29.1558552,2.2802734375
,29.1925311,2.255859375
,29.2215915,2.236328125
,29.2219569,2.216796875
,29.2400537,2.197265625
,29.2756382,2.1728515625
,29.2789749,2.1484375
,29.3164064,2.1240234375
,29.3169872,2.099609375
,29.3354074,2.0751953125
,29.3730835,2.0556640625
,29.4070578,2.03125
,29.407485,2.01171875
,29.4188577,1.9921875
,29.4544795,1.9677734375
,29.4740219,1.9482421875
,29.4765208,1.93359375
,29.5125548,1.9287109375
,29.5474386,1.9189453125
,29.5478709,1.9091796875
,29.5572995,1.8994140625
,29.5931165,1.8896484375
,29.6250129,1.875
,29.6256005,1.8603515625
,29.6398086,1.8505859375
,29.6883502,1.845703125
,29.6887095,1.865234375
,29.6974783,1.9189453125
,29.7341863,2.001953125
,29.7376814,2.0849609375
,29.7736212,2.1630859375
,29.7935476,2.2265625
,29.8010799,2.2802734375
,29.8209507,2.3193359375
,29.8425927,2.34375
,29.8580738,2.3583984375
,29.904369,2.3876953125
,29.904925,2.40234375
,29.9190592,2.3974609375
,29.9525538,2.3779296875
,29.97355,2.34375
,29.9813449,2.3095703125
,30.0302813,2.275390625
,30.030779000000003,2.24609375
,30.039349700000002,2.2216796875
,30.058934899999997,2.20703125
,30.0785712,2.1875
,30.124227599999998,2.16796875
,30.124789200000002,2.1435546875
,30.155492700000003,2.1240234375
,30.1599868,2.099609375
,30.2023941,2.080078125
,30.202935699999998,2.0556640625
,30.2168055,2.03125
,30.2634946,2.01171875
,30.264054799999997,1.9921875
,30.2853329,1.97265625
,30.2998743,1.953125
,30.335440900000002,1.9384765625
,30.339801100000003,1.9189453125
,30.3761089,1.9091796875
,30.376473400000002,1.89453125
,30.421082499999997,1.8896484375
,30.4215283,1.8798828125
,30.450494900000002,1.875
,30.4594521,1.865234375
,30.4942298,1.85546875
,30.501257799999998,1.8408203125
,30.5448003,1.8408203125
,30.545394799999997,1.8505859375
,30.5620251,1.89453125
,30.596195100000003,1.9775390625
,30.616829199999998,2.060546875
,30.619809699999998,2.1533203125
,30.6686884,2.2265625
,30.6692422,2.2900390625
,30.688477900000002,2.3388671875
,30.700477499999998,2.373046875
,30.7474809,2.40234375
,30.7478397,2.421875
,30.758694400000003,2.431640625
,30.808928100000003,2.4365234375
,30.8093055,2.421875
,30.820726899999997,2.392578125
,30.858157300000002,2.3583984375
,30.861358799999998,2.314453125
,30.8820045,2.2802734375
,30.902467,2.2509765625
,30.938580899999998,2.2314453125
,30.938945599999997,2.20703125
,30.979629600000003,2.1923828125
,30.980010800000002,2.1728515625
,31.001720499999998,2.1533203125
,31.0428427,2.12890625
,31.0432146,2.1044921875
,31.078732700000003,2.0751953125
,31.079620400000003,2.05078125
,31.120549599999997,2.021484375
,31.120936299999997,2.001953125
,31.166349500000003,1.9775390625
,31.1667164,1.9580078125
,31.1808512,1.943359375
,31.2140944,1.923828125
,31.235097500000002,1.9091796875
,31.240813199999998,1.89453125
,31.2780106,1.8798828125
,31.282421900000003,1.865234375
,31.324482099999997,1.85546875
,31.325076699999997,1.845703125
,31.3403366,1.8359375
,31.3601264,1.826171875
,31.395153899999997,1.81640625
,31.416027399999997,1.806640625
,31.421953799999997,1.8115234375
,31.458156799999998,1.8359375
,31.4640523,1.904296875
,31.4837115,1.9970703125
,31.5006736,2.08984375
,31.535487600000003,2.177734375
,31.5570921,2.2509765625
,31.562176700000002,2.314453125
,31.5984031,2.3583984375
,31.601224600000002,2.3974609375
,31.6393762,2.421875
,31.64374,2.44140625
,31.661099800000002,2.451171875
,31.698710499999997,2.4462890625
,31.6991309,2.4267578125
,31.735740399999997,2.392578125
,31.7558486,2.353515625
,31.761598300000003,2.314453125
,31.809461900000002,2.28515625
,31.810023700000002,2.2607421875
,31.8251652,2.2412109375
,31.8417531,2.216796875
,31.861353899999997,2.2021484375
,31.896713300000002,2.177734375
,31.9001435,2.1533203125
,31.936443599999997,2.12890625
,31.941331400000003,2.1044921875
,31.976793,2.080078125
,31.997335300000003,2.0556640625
,32.0027129,2.03125
,32.0441224,1.9970703125
,32.0447063,1.9775390625
,32.0643383,1.9677734375
,32.0815533,1.953125
,32.1219526,1.9384765625
,32.1223815,1.9287109375
,32.155795,1.9189453125
,32.1771528,1.904296875
,32.1846189,1.89453125
,32.2204936,1.8896484375
,32.2210777,1.8798828125
,32.262297,1.875
,32.2626641,1.865234375
,32.2831527,1.85546875
,32.3202895,1.845703125
,32.323173,1.8603515625
,32.3568437,1.904296875
,32.3779406,1.982421875
,32.3783636,2.0703125
,32.416341,2.158203125
,32.4357734,2.2265625
,32.4423517,2.2900390625
,32.4783182,2.3388671875
,32.4841465,2.373046875
,32.5193855,2.40234375
,32.5240162,2.421875
,32.5595218,2.431640625
,32.5598872,2.431640625
,32.5961446,2.421875
,32.6167506,2.392578125
,32.6222134,2.3583984375
,32.6683814,2.32421875
,32.6688405,2.294921875
,32.6830098,2.2705078125
,32.7293994,2.24609375
,32.7298842,2.2265625
,32.7598491,2.1923828125
,32.7666311,2.177734375
,32.781166,2.1484375
,32.8176779,2.1240234375
,32.8230978,2.099609375
,32.8602035,2.0751953125
,32.8646815,2.05078125
,32.9012806,2.0263671875
,32.905808,2.001953125
,32.9411833,1.9775390625
,32.9417693,1.953125
,32.9767994,1.9384765625
,32.983881,1.923828125
,33.0239322,1.9091796875
,33.0245128,1.8896484375
,33.0434396,1.8798828125
,33.0774532,1.865234375
,33.0977407,1.85546875
,33.1053413,1.8408203125
,33.1211588,1.826171875
,33.1550951,1.81640625
,33.1766227,1.806640625
,33.1837248,1.8017578125
,33.2204545,1.8212890625
,33.2236218,1.884765625
,33.2576624,1.9677734375
,33.2776328,2.060546875
,33.2820951,2.138671875
,33.3176671,2.216796875
,33.3226647,2.265625
,33.3572074,2.3095703125
,33.362679,2.3388671875
,33.4143437,2.36328125
,33.4147098,2.3828125
,33.4246222,2.3876953125
,33.4602233,2.3828125
,33.4812116,2.3583984375
,33.4872001,2.32421875
,33.5025174,2.28515625
,33.5378216,2.2509765625
,33.5698821,2.2216796875
,33.5704153,2.197265625
,33.5849359,2.1728515625
,33.6207202,2.158203125
,33.6484806,2.1337890625
,33.6488445,2.1142578125
,33.6620298,2.0849609375
,33.6997037,2.060546875
,33.7047216,2.0361328125
,33.7404707,2.01171875
,33.7434735,1.9873046875
,33.7792011,1.962890625
,33.7854195,1.9384765625
,33.8196938,1.9189453125
,33.8408386,1.89453125
,33.8412092,1.8798828125
,33.8782947,1.865234375
,33.8992597,1.8505859375
,33.9041636,1.8359375
,33.9396915,1.826171875
,33.9444664,1.8115234375
,33.9806455,1.8017578125
,34.0059191,1.7919921875
,34.0063428,1.7822265625
,34.0231671,1.7724609375
,34.0589344,1.767578125
,34.0631125,1.7578125
,34.1001007,1.77734375
,34.1274283,1.8212890625
,34.1277953,1.9140625
,34.1444634,2.01171875
,34.190467,2.109375
,34.1908464,2.1875
,34.2112655,2.255859375
,34.2237422,2.3095703125
,34.2680955,2.353515625
,34.2686887,2.3876953125
,34.2844052,2.412109375
,34.3319272,2.4267578125
,34.3324961,2.4365234375
,34.3521508,2.421875
,34.3674327,2.3974609375
,34.4031955,2.36328125
,34.4037919,2.32421875
,34.4427648,2.2900390625
,34.4737847,2.2607421875
,34.4742613,2.236328125
,34.4857007,2.216796875
,34.5349689,2.1923828125
,34.5354101,2.1728515625
,34.5461799,2.1484375
,34.5802903,2.1240234375
,34.5835883,2.099609375
,34.6043935,2.0751953125
,34.6443339,2.05078125
,34.6739079,2.0263671875
,34.6742797,2.001953125
,34.685699,1.982421875
,34.7213963,1.9580078125
,34.7421151,1.9384765625
,34.7426938,1.923828125
,34.7781531,1.9091796875
,34.79864,1.89453125
,34.8043481,1.8798828125
,34.8412913,1.8701171875
,34.8453004,1.8603515625
,34.8804846,1.8505859375
,34.9009457,1.845703125
,34.9084576,1.8408203125
,34.9272969,1.8310546875
,34.945556,1.8212890625
,34.9865317,1.8115234375
,34.9871406,1.81640625
,35.0053214,1.85546875
,35.0411605,1.93359375
,35.0461942,2.0263671875
,35.0810771,2.1240234375
,35.1015793,2.2021484375
,35.1102892,2.2705078125
,35.1241847,2.3193359375
,35.1588027,2.3681640625
,35.1891148,2.3974609375
,35.1895989,2.421875
,35.206085,2.4365234375
,35.2423663,2.4365234375
,35.2473625,2.4267578125
,35.2819382,2.40234375
,35.3025261,2.36328125
,35.305314,2.3291015625
,35.3405685,2.294921875
,35.361566,2.265625
,35.3668164,2.2412109375
,35.4018197,2.2216796875
,35.4079593,2.2021484375
,35.4279897,2.1826171875
,35.4628944,2.158203125
,35.4632686,2.138671875
,35.4994194,2.1142578125
,35.5033326,2.08984375
,35.5402051,2.0703125
,35.5622463,2.05078125
,35.5668957,2.0263671875
,35.6135385,2.0068359375
,35.6141357,1.9873046875
,35.6337521,1.97265625
,35.6503213,1.962890625
,35.6853137,1.9482421875
,35.6858957,1.9384765625
,35.7224885,1.93359375
,35.7269768,1.9287109375
,35.7625572,1.9189453125
,35.7675798,1.9140625
,35.8021843,1.904296875
,35.8226152,1.89453125
,35.826801,1.884765625
,35.8608786,1.875
,35.8657692,1.875
,35.9083133,1.89453125
,35.9086808,1.953125
,35.9283461,2.0263671875
,35.9625972,2.1142578125
,35.9825728,2.1923828125
,35.9897825,2.2509765625
,36.0087807,2.3046875
,36.0261001,2.3388671875
,36.0610533,2.373046875
,36.0807618,2.392578125
,36.0868011,2.4072265625
,36.1208036,2.4072265625
,36.1417192,2.392578125
,36.149585,2.3681640625
,36.1850828,2.333984375
,36.185482,2.2998046875
,36.2215597,2.2705078125
,36.2264067,2.24609375
,36.2612002,2.2265625
,36.2662784,2.2021484375
,36.3135805,2.1826171875
,36.3139832,2.1630859375
,36.3284625,2.138671875
,36.36378,2.1142578125
,36.3848599,2.0849609375
,36.3900369,2.0556640625
,36.4064691,2.03125
,36.4423987,2.01171875
,36.4719627,1.9873046875
,36.4725054,1.97265625
,36.4881037,1.953125
,36.5214373,1.9384765625
,36.5424422,1.9189453125
,36.5511816,1.904296875
,36.568124,1.8896484375
,36.5864693,1.8798828125
,36.6226299,1.865234375
,36.6425034,1.8505859375
,36.6474067,1.8408203125
,36.6844417,1.826171875
,36.6892105,1.81640625
,36.7258523,1.8017578125
,36.7302243,1.796875
,36.746312,1.8115234375
,36.7829732,1.8701171875
,36.7864706,1.953125
,36.8223371,2.05078125
,36.8417559,2.1337890625
,36.8475434,2.20703125
,36.8827574,2.2607421875
,36.9026938,2.3046875
,36.9080078,2.333984375
,36.9440145,2.3583984375
,36.9470767,2.3779296875
,36.9867801,2.3828125
,37.0187248,2.3779296875
,37.0191594,2.3583984375
,37.0270246,2.32421875
,37.0618573,2.28515625
,37.0820117,2.24609375
,37.0915814,2.216796875
,37.1409196,2.1923828125
,37.1413497,2.1728515625
,37.146321,2.1533203125
,37.1899725,2.1435546875
,37.1904279,2.12890625
,37.2201041,2.109375
,37.2297453,2.08984375
,37.2505479,2.0703125
,37.299322,2.041015625
,37.2997337,2.021484375
,37.3289903,1.9970703125
,37.3294168,1.9775390625
,37.3487977,1.962890625
,37.3920988,1.9482421875
,37.3924611,1.9287109375
,37.4133759,1.9140625
,37.43012,1.8994140625
,37.4652321,1.884765625
,37.4859739,1.875
,37.4881146,1.865234375
,37.5236518,1.8603515625
,37.5444909,1.8505859375
,37.5492466,1.8408203125
,37.5850406,1.826171875
,37.5899579,1.81640625
,37.6269191,1.8115234375
,37.6465293,1.8310546875
,37.6472045,1.8798828125
,37.6823265,1.9677734375
,37.6874519,2.060546875
,37.7247548,2.158203125
,37.7277771,2.2314453125
,37.7656701,2.2900390625
,37.7700619,2.333984375
,37.808619,2.36328125
,37.8092094,2.3876953125
,37.844679,2.4072265625
,37.8653113,2.412109375
,37.8704408,2.412109375
,37.8894669,2.3974609375
,37.9261597,2.36328125
,37.930481,2.3193359375
,37.9687627,2.2802734375
,37.9714144,2.24609375
,38.0161711,2.216796875
,38.0167525,2.197265625
,38.0371276,2.1826171875
,38.0489263,2.1630859375
,38.0705276,2.1435546875
,38.1082554,2.1240234375
,38.1086178,2.099609375
,38.1442925,2.080078125
,38.165267,2.05078125
,38.1701393,2.0263671875
,38.2184801,1.9970703125
,38.2190755,1.982421875
,38.2293484,1.962890625
,38.266185,1.943359375
,38.2708312,1.9287109375
,38.3085382,1.9091796875
,38.3089487,1.8896484375
,38.3436039,1.875
,38.3642049,1.865234375
,38.3699888,1.8603515625
,38.3900009,1.85546875
,38.4247659,1.845703125
,38.4302135,1.8408203125
,38.464463,1.8310546875
,38.4849494,1.8212890625
,38.4898661,1.806640625
,38.523273,1.806640625
,38.5442458,1.8408203125
,38.5539611,1.904296875
,38.5879054,1.9970703125
,38.5902868,2.08984375
,38.6267947,2.177734375
,38.6321454,2.2509765625
,38.6690257,2.3046875
,38.669412,2.34375
,38.7041537,2.3779296875
,38.7250407,2.40234375
,38.7325225,2.4169921875
,38.7509856,2.421875
,38.7696506,2.421875
,38.8054328,2.40234375
,38.8115496,2.3681640625
,38.8315973,2.3291015625
,38.8520081,2.294921875
,38.8884602,2.265625
,38.9086169,2.2412109375
,38.9139524,2.216796875
,38.9306322,2.197265625
,38.967786,2.1826171875
,38.9713563,2.1630859375
,39.0077306,2.1435546875
,39.0100642,2.1240234375
,39.0569831,2.099609375
,39.0573449,2.080078125
,39.0724991,2.0556640625
,39.0905826,2.03125
,39.1250014,2.01171875
,39.1298185,1.9970703125
,39.1670052,1.982421875
,39.1725498,1.97265625
,39.2130202,1.9580078125
,39.2134221,1.9482421875
,39.2502355,1.93359375
,39.2520329,1.9287109375
,39.2879939,1.9140625
,39.3073919,1.9091796875
,39.3103522,1.89453125
,39.3471279,1.8896484375
,39.351981,1.875
,39.386186,1.865234375
,39.3923569,1.8701171875
,39.4268428,1.9091796875
,39.4469242,1.97265625
,39.454774,2.0556640625
,39.4696714,2.1337890625
,39.5039502,2.20703125
,39.5254269,2.265625
,39.5308791,2.3095703125
,39.5694234,2.3388671875
,39.5749193,2.3583984375
,39.5938228,2.373046875
,39.6286905,2.3779296875
,39.6507194,2.3779296875
,39.6511701,2.3583984375
,39.6971358,2.32421875
,39.697722,2.28515625
,39.7121411,2.24609375
,39.7450636,2.216796875
,39.7672251,2.1923828125
,39.7722428,2.1728515625
,39.8083654,2.1533203125
,39.8135401,2.12890625
,39.8303267,2.1044921875
,39.8675199,2.0849609375
,39.8972934,2.060546875
,39.8977103,2.0361328125
,39.9107919,2.01171875
,39.9458022,1.9873046875
,39.9680036,1.962890625
,39.9748162,1.9384765625
,40.0100569,1.9189453125
,40.0146968,1.8994140625
,40.032728,1.8798828125
,40.0515983,1.8701171875
,40.0897253,1.85546875
,40.093103,1.8408203125
,40.1292954,1.8310546875
,40.1340109,1.8212890625
,40.1706294,1.8115234375
,40.1736237,1.796875
,40.2122725,1.7822265625
,40.2128662,1.767578125
,40.233572,1.767578125
,40.2524913,1.7919921875
,40.2729851,1.8603515625
,40.3070994,1.953125
,40.3282416,2.05078125
,40.3351156,2.12890625
,40.3836626,2.197265625
,40.3842522,2.2509765625
,40.3931831,2.294921875
,40.4285904,2.3291015625
,40.4311052,2.353515625
,40.4657478,2.373046875
,40.4868924,2.3779296875
,40.493812,2.373046875
,40.5319044,2.3486328125
,40.5365399,2.314453125
,40.5518029,2.275390625
,40.5868787,2.2412109375
,40.6185066,2.2119140625
,40.6189418,2.1875
,40.6342675,2.1630859375
,40.6688059,2.1435546875
,40.6732133,2.1240234375
,40.7104509,2.1044921875
,40.7167062,2.080078125
,40.7523696,2.0556640625
,40.7530782,2.03125
,40.8031578,2.0166015625
,40.8035697,1.9921875
,40.8132173,1.9677734375
,40.846996,1.9482421875
,40.8686227,1.9287109375
,40.8756962,1.9091796875
,40.9110384,1.89453125
,40.9160563,1.8798828125
,40.9312219,1.865234375
,40.9669384,1.85546875
,40.9880883,1.845703125
,40.9955373,1.8359375
,41.0148332,1.826171875
,41.0521854,1.81640625
,41.0568333,1.806640625
,41.0932052,1.796875
,41.0978754,1.787109375
,41.1136905,1.796875
,41.1475307,1.8505859375
,41.1690302,1.9287109375
,41.1749864,2.03125
,41.1958851,2.1142578125
,41.2411012,2.1923828125
,41.241468,2.2509765625
,41.2577717,2.294921875
,41.2737571,2.3291015625
,41.3084255,2.36328125
,41.3134918,2.3828125
,41.3499222,2.3974609375
,41.3710314,2.3974609375
,41.3763122,2.3828125
,41.4115565,2.3486328125
,41.4146916,2.314453125
,41.4602566,2.275390625
,41.4606938,2.2412109375
,41.4778697,2.2119140625
,41.4934307,2.1875
,41.5385429,2.16796875
,41.5389157,2.1435546875
,41.5602753,2.1240234375
,41.5756382,2.099609375
,41.6095226,2.080078125
,41.6317067,2.05078125
,41.6362848,2.0263671875
,41.6539797,2.001953125
,41.6883224,1.9873046875
,41.6933399,1.962890625
,41.7286102,1.943359375
,41.7498966,1.9287109375
,41.7571135,1.9140625
,41.7934319,1.8994140625
,41.7962577,1.8896484375
,41.8317761,1.8798828125
,41.8344474,1.8701171875
,41.8691224,1.865234375
,41.8894807,1.85546875
,41.8950115,1.8505859375
,41.9303831,1.8408203125
,41.936617,1.8310546875
,41.9715235,1.8212890625
,41.977326,1.8212890625
,41.9937323,1.8359375
,42.0285713,1.89453125
,42.0504469,1.97265625
,42.0549718,2.0654296875
,42.0983767,2.1484375
,42.098841,2.20703125
,42.1171115,2.2607421875
,42.1537694,2.294921875
,42.1566923,2.32421875
,42.1925343,2.34375
,42.1995698,2.36328125
,42.2159811,2.3681640625
,42.2496407,2.3681640625
,42.2563688,2.3486328125
,42.2932874,2.314453125
,42.2972809,2.2802734375
,42.3337881,2.24609375
,42.3360081,2.2216796875
,42.3758602,2.197265625
,42.396762,2.1826171875
,42.3973446,2.1630859375
,42.4166139,2.1484375
,42.4520861,2.12890625
,42.4554693,2.1142578125
,42.4918942,2.0947265625
,42.497378,2.0751953125
,42.533602,2.05078125
,42.5381764,2.03125
,42.5546453,2.0068359375
,42.593091,1.9921875
,42.5934598,1.97265625
,42.6281971,1.962890625
,42.6490779,1.9482421875
,42.6560497,1.9384765625
,42.6925123,1.923828125
,42.6978618,1.9189453125
,42.7346163,1.9091796875
,42.7351006,1.89453125
,42.7550383,1.8896484375
,42.7895467,1.875
,42.8107818,1.865234375
,42.8161501,1.8505859375
,42.852117,1.8505859375
,42.8569468,1.8701171875
,42.89334,1.923828125
,42.9239083,1.9921875
,42.9243862,2.0703125
,42.9357748,2.1337890625
,42.9725609,2.1923828125
,42.977022,2.2314453125
,43.0133765,2.265625
,43.0174152,2.2900390625
,43.0535813,2.3046875
,43.0810407,2.314453125
,43.0815945,2.314453125
,43.0978154,2.2998046875
,43.115263,2.2705078125
,43.1502755,2.236328125
,43.1710959,2.197265625
,43.1764873,2.16796875
,43.2128125,2.138671875
,43.217863,2.1240234375
,43.254658,2.1044921875
,43.2591607,2.08984375
,43.2744011,2.0703125
,43.3095638,2.05078125
,43.3296704,2.03125
,43.3357772,2.01171875
,43.3756991,1.9873046875
,43.3760609,1.962890625
,43.3969909,1.943359375
,43.4388052,1.923828125
,43.4393107,1.904296875
,43.4594625,1.884765625
,43.4770408,1.875
,43.4968556,1.865234375
,43.5326105,1.85546875
,43.5376085,1.845703125
,43.5583819,1.8359375
,43.5775365,1.8310546875
,43.6186699,1.826171875
,43.6485853,1.8115234375
,43.649187,1.8017578125
,43.6601352,1.7919921875
,43.6768003,1.7822265625
,43.7254057,1.796875
,43.725768,1.8310546875
,43.7396892,1.9091796875
,43.7585927,1.9970703125
,43.8040272,2.0849609375
,43.804616,2.1533203125
,43.8201375,2.216796875
,43.8364167,2.2607421875
,43.8725989,2.3046875
,43.87811,2.333984375
,43.9152521,2.3583984375
,43.9198554,2.3681640625
,43.9613933,2.373046875
,43.9619875,2.36328125
,44.0060338,2.3388671875
,44.0066289,2.3046875
,44.0161829,2.2705078125
,44.0516787,2.236328125
,44.0718453,2.2119140625
,44.0773397,2.1923828125
,44.1147935,2.1728515625
,44.1192073,2.1533203125
,44.1540638,2.138671875
,44.1596073,2.1142578125
,44.175808,2.0947265625
,44.2120887,2.0751953125
,44.2178976,2.05078125
,44.2547727,2.03125
,44.2577559,2.01171875
,44.3020805,1.9873046875
,44.3024385,1.9677734375
,44.3238856,1.9482421875
,44.3410244,1.9287109375
,44.3755414,1.9091796875
,44.38057,1.8994140625
,44.3968118,1.8798828125
,44.4435542,1.875
,44.4441441,1.8603515625
,44.4641772,1.85546875
,44.4805558,1.845703125
,44.5174113,1.8359375
,44.5205099,1.8212890625
,44.5553127,1.8115234375
,44.555887,1.8017578125
,44.5772253,1.8115234375
,44.6126989,1.8408203125
,44.6199617,1.9189453125
,44.6545937,2.01171875
,44.6582285,2.0947265625
,44.695967,2.16796875
,44.7161793,2.2265625
,44.7209074,2.275390625
,44.7380395,2.3095703125
,44.7736676,2.3388671875
,44.7767504,2.3583984375
,44.8115952,2.373046875
,44.8320307,2.3779296875
,44.8394641,2.3681640625
,44.8745997,2.34375
,44.8959653,2.3095703125
,44.8963765,2.275390625
,44.9427167,2.2412109375
,44.9430818,2.2216796875
,44.9636672,2.197265625
,44.9804651,2.177734375
,45.0157244,2.158203125
,45.0208176,2.1435546875
,45.0560545,2.1240234375
,45.0595626,2.1044921875
,45.0807678,2.080078125
,45.1303396,2.0556640625
,45.1309211,2.0361328125
,45.1504555,2.0166015625
,45.1603039,1.9970703125
,45.1797745,1.982421875
,45.2152286,1.962890625
,45.2217188,1.9482421875
,45.2576742,1.93359375
,45.2609893,1.9189453125
,45.2987009,1.9091796875
,45.2991094,1.8994140625
,45.3358281,1.89453125
,45.3661556,1.8896484375
,45.366753,1.8896484375
,45.381412,1.8798828125
,45.4025625,1.8701171875
,45.4220806,1.8603515625
,45.4434301,1.85546875
,45.4578593,1.8505859375
,45.4928445,1.8798828125
,45.5132974,1.9384765625
,45.5177461,2.0263671875
,45.5682272,2.1044921875
,45.5686177,2.177734375
,45.5819999,2.2412109375
,45.6172293,2.28515625
,45.6221024,2.32421875
,45.6389168,2.3486328125
,45.6744948,2.3779296875
,45.6810979,2.392578125
,45.7186376,2.3974609375
,45.7190076,2.3876953125
,45.7568064,2.36328125
,45.7792084,2.3291015625
,45.7798219,2.294921875
,45.8163201,2.255859375
,45.8380075,2.2314453125
,45.8387181,2.20703125
,45.8751192,2.1923828125
,45.8808306,2.1728515625
,45.9174918,2.158203125
,45.9202169,2.1337890625
,45.9394403,2.1142578125
,45.9892327,2.08984375
,45.9895931,2.0654296875
,46.0108398,2.041015625
,46.0204607,2.0166015625
,46.0672897,1.9970703125
,46.0676521,1.9775390625
,46.0810001,1.9580078125
,46.1156237,1.943359375
,46.121316,1.923828125
,46.1575596,1.9091796875
,46.163049,1.8994140625
,46.1799426,1.884765625
,46.2147294,1.8798828125
,46.2186906,1.8701171875
,46.2565746,1.85546875
,46.2861538,1.845703125
,46.2867288,1.826171875
,46.3007838,1.8212890625
,46.3374472,1.826171875
,46.3435485,1.865234375
,46.3598831,1.93359375
,46.3950449,2.021484375
,46.424261,2.0947265625
,46.4246849,2.16796875
,46.4425268,2.216796875
,46.488148,2.2607421875
,46.4885122,2.28515625
,46.5008306,2.3095703125
,46.5373117,2.3193359375
,46.5575595,2.3291015625
,46.562561,2.32421875
,46.5807852,2.2998046875
,46.6286945,2.265625
,46.6292883,2.2265625
,46.6432152,2.1923828125
,46.6785561,2.158203125
,46.6836667,2.1337890625
,46.7189581,2.1142578125
,46.7244421,2.0947265625
,46.7403211,2.0751953125
,46.7755794,2.060546875
,46.7806344,2.041015625
,46.8158858,2.0166015625
,46.8363726,1.9970703125
,46.8416171,1.97265625
,46.8780097,1.953125
,46.8986105,1.9287109375
,46.9036177,1.9091796875
,46.922119,1.8896484375
,46.9581635,1.8798828125
,46.9611022,1.865234375
,46.9977659,1.8505859375
,47.0015113,1.8408203125
,47.0376332,1.8310546875
,47.0423813,1.8212890625
,47.0766562,1.8115234375
,47.0980159,1.806640625
,47.0986424,1.8017578125
,47.1420157,1.787109375
,47.1424857,1.77734375
,47.1631763,1.7626953125
,47.1826147,1.7724609375
,47.2045601,1.81640625
,47.2393665,1.89453125
,47.2441618,1.9921875
,47.2843142,2.080078125
,47.284773,2.1630859375
,47.3048572,2.2265625
,47.3219124,2.2802734375
,47.3565567,2.3193359375
,47.3785697,2.3486328125
,47.3828527,2.3681640625
,47.4253344,2.3828125
,47.4258147,2.3828125
,47.4459242,2.373046875
,47.4619736,2.3486328125
,47.4976461,2.314453125
,47.5012007,2.2802734375
,47.5499427,2.24609375
,47.5504032,2.2216796875
,47.5645712,2.197265625
,47.611722,2.177734375
,47.6122833,2.158203125
,47.6253473,2.138671875
,47.6421466,2.119140625
,47.6625596,2.0947265625
,47.6968582,2.0703125
,47.7014542,2.05078125
,47.7380075,2.0263671875
,47.7580712,1.9970703125
,47.7655708,1.97265625
,47.8015613,1.953125
,47.8021435,1.93359375
,47.8432826,1.9189453125
,47.8645029,1.8896484375
,47.8650935,1.865234375
,47.8844301,1.85546875
,47.9222127,1.845703125
,47.9226917,1.8408203125
,47.9696259,1.8359375
,47.9699949,1.8310546875
,47.9862371,1.826171875
,48.0230217,1.81640625
,48.0233814,1.806640625
,48.0598674,1.8017578125
,48.0641482,1.8017578125
,48.0993991,1.8310546875
,48.1038458,1.8896484375
,48.1412296,1.982421875
,48.143448,2.080078125
,48.1806619,2.158203125
,48.2016222,2.2314453125
,48.2022717,2.28515625
,48.2518058,2.3388671875
,48.2524646,2.373046875
,48.2627044,2.40234375
,48.3144051,2.4169921875
,48.3150122,2.4267578125
,48.3262922,2.4267578125
,48.362753,2.4072265625
,48.3633456,2.373046875
,48.3988787,2.3388671875
,48.4020776,2.2998046875
,48.4512559,2.2705078125
,48.4516173,2.2412109375
,48.4718334,2.216796875
,48.4850337,2.197265625
,48.5202505,2.177734375
,48.5405068,2.1533203125
,48.5464384,2.1337890625
,48.567451,2.099609375
,48.5830695,2.0654296875
,48.6179245,2.0458984375
,48.63927,2.03125
,48.6441883,2.01171875
,48.6887265,1.9873046875
,48.6893194,1.9677734375
,48.7071602,1.9482421875
,48.7432331,1.9287109375
,48.7437954,1.9091796875
,48.7786038,1.89453125
,48.7826508,1.884765625
,48.8279641,1.8701171875
,48.8285512,1.8603515625
,48.8583582,1.8505859375
,48.8651245,1.845703125
,48.8994519,1.8359375
,48.9221341,1.826171875
,48.9227983,1.81640625
,48.9648114,1.806640625
,48.9654647,1.806640625
,48.9954124,1.8359375
,49.0045618,1.8896484375
,49.0408873,1.982421875
,49.0612703,2.0751953125
,49.0683866,2.1630859375
,49.0833793,2.2314453125
,49.1208448,2.294921875
,49.1231899,2.34375
,49.1677434,2.3779296875
,49.1681015,2.4072265625
,49.1876317,2.421875
,49.2043298,2.431640625
,49.2421433,2.4267578125
,49.2470075,2.4072265625
,49.2642585,2.373046875
,49.3089669,2.3388671875
,49.3093465,2.2900390625
,49.3252273,2.265625
,49.3445735,2.2412109375
,49.3797637,2.2265625
,49.4004341,2.20703125
,49.4066215,2.1875
,49.4419022,2.1728515625
,49.4639269,2.1484375
,49.4666166,2.12890625
,49.5012142,2.1044921875
,49.5040436,2.08984375
,49.5242511,2.0654296875
,49.5724296,2.0458984375
,49.5727904,2.0263671875
,49.5938642,2.0068359375
,49.6066832,1.9921875
,49.6502765,1.9775390625
,49.6508752,1.962890625
,49.6633552,1.953125
,49.6987226,1.943359375
,49.7271267,1.9384765625
,49.7277962,1.9287109375
,49.7623397,1.923828125
,49.7674277,1.9091796875
,49.8030647,1.89453125
,49.8076433,1.8798828125
,49.8245015,1.8701171875
,49.85962,1.884765625
,49.8806176,1.9287109375
,49.8854111,2.0068359375
,49.9061122,2.0849609375
,49.9401214,2.1630859375
,49.9599661,2.2265625
,49.9693742,2.275390625
,49.9849578,2.3095703125
,50.0198774,2.34375
,50.025502,2.353515625
,50.0464637,2.373046875
,50.0673623,2.3876953125
,50.1018575,2.3779296875
,50.1057162,2.353515625
,50.1462641,2.3193359375
,50.1785397,2.2802734375
,50.1791377,2.2412109375
,50.1899373,2.2119140625
,50.2045792,2.1923828125
,50.2388487,2.1728515625
,50.2586342,2.1533203125
,50.2680096,2.1337890625
,50.3038197,2.109375
,50.3071045,2.0849609375
,50.3424549,2.060546875
,50.347793,2.0361328125
,50.3644624,2.01171875
,50.4003283,1.9921875
,50.4205183,1.9677734375
,50.4261715,1.9482421875
,50.4742392,1.9287109375
,50.474784,1.9091796875
,50.4878359,1.8896484375
,50.5098493,1.875
,50.552014,1.865234375
,50.5523796,1.8505859375
,50.5667554,1.845703125
,50.6000147,1.8359375
,50.6053778,1.826171875
,50.6424299,1.8115234375
,50.6476812,1.8017578125
,50.6938212,1.7919921875
,50.69425,1.8017578125
,50.7104645,1.85546875
,50.7289822,1.93359375
,50.7496813,2.021484375
,50.7672696,2.099609375
,50.8149281,2.1875
,50.8153021,2.2509765625
,50.8281262,2.3095703125
,50.8638259,2.34375
,50.8682075,2.373046875
,50.9051197,2.392578125
,50.9077838,2.4072265625
,50.9270899,2.4072265625
,50.9708846,2.3974609375
,50.9714796,2.3681640625
,50.9866556,2.3291015625
,51.0333115,2.2900390625
,51.0336862,2.2607421875
,51.0491751,2.2314453125
,51.0856189,2.20703125
,51.1116068,2.1875
,51.1120789,2.16796875
,51.1260943,2.1484375
,51.1629938,2.12890625
,51.16762,2.109375
,51.2025922,2.08984375
,51.2078651,2.060546875
,51.2292597,2.0361328125
,51.2644808,2.01171875
,51.2648539,1.9873046875
,51.2988608,1.9677734375
,51.3279986,1.9482421875
,51.3285985,1.9287109375
,51.3481157,1.9140625
,51.3903077,1.89453125
,51.3907381,1.884765625
,51.4245482,1.8701171875
,51.4293644,1.865234375
,51.4505473,1.85546875
,51.470343,1.8359375
,51.4867169,1.8115234375
,51.5230164,1.8115234375
,51.5287834,1.806640625
,51.5739835,1.8212890625
,51.5743839,1.865234375
,51.5892809,1.943359375
,51.6249308,2.0361328125
,51.6300339,2.12890625
,51.645612,2.20703125
,51.6811806,2.275390625
,51.7021213,2.3291015625
,51.7092152,2.3681640625
,51.7454511,2.40234375
,51.7488298,2.4267578125
,51.7853338,2.44140625
,51.7905805,2.44140625
,51.8263043,2.4365234375
,51.8558213,2.4072265625
,51.8561928,2.373046875
,51.8667837,2.333984375
,51.9039074,2.2998046875
,51.909515,2.2705078125
,51.9466051,2.24609375
,51.9514595,2.2216796875
,51.9703709,2.2021484375
,52.0050844,2.177734375
,52.0249959,2.1533203125
,52.028327,2.12890625
,52.0668794,2.1044921875
,52.0696056,2.0849609375
,52.1067559,2.0556640625
,52.1115148,2.0361328125
,52.1471848,2.01171875
,52.1519293,1.9873046875
,52.1726836,1.9677734375
,52.1917627,1.943359375
,52.2089592,1.9140625
,52.2458153,1.9091796875
,52.2503007,1.8994140625
,52.2918779,1.89453125
,52.2923559,1.884765625
,52.3269,1.875
,52.3298956,1.8701171875
,52.3667746,1.8603515625
,52.3895676,1.8505859375
,52.3902441,1.8359375
,52.4243937,1.8408203125
,52.4281212,1.8701171875
,52.4633515,1.943359375
,52.484043,2.03125
,52.4893227,2.1240234375
,52.5373574,2.2021484375
,52.5377796,2.2705078125
,52.549001,2.3193359375
,52.5990981,2.36328125
,52.599777,2.392578125
,52.60928,2.4169921875
,52.6440293,2.431640625
,52.6484471,2.4365234375
,52.6827745,2.4267578125
,52.7076465,2.3974609375
,52.7120801,2.36328125
,52.7281235,2.32421875
,52.7644807,2.2900390625
,52.769998,2.2607421875
,52.7900357,2.2412109375
,52.8241146,2.216796875
,52.8441169,2.197265625
,52.8515254,2.177734375
,52.8876845,2.158203125
,52.8920297,2.138671875
,52.9135616,2.109375
,52.9301161,2.0751953125
,52.9732107,2.0654296875
,52.973676,2.0458984375
,52.9892853,2.0263671875
,53.0252466,2.01171875
,53.0465893,1.9970703125
,53.0522816,1.982421875
,53.0865467,1.97265625
,53.1078718,1.962890625
,53.1085642,1.953125
,53.1442421,1.9482421875
,53.1521536,1.9384765625
,53.1866066,1.923828125
,53.1902811,1.9091796875
,53.2268382,1.89453125
,53.233703,1.8798828125
,53.2682718,1.8701171875
,53.2731385,1.8798828125
,53.2892692,1.9287109375
,53.3242943,2.0068359375
,53.3312677,2.0849609375
,53.3757578,2.1630859375
,53.3761544,2.2216796875
,53.3935024,2.275390625
,53.4133346,2.3046875
,53.4492664,2.333984375
,53.4498148,2.3486328125
,53.4848346,2.36328125
,53.4897543,2.36328125
,53.510292,2.353515625
,53.5461783,2.3291015625
,53.5522349,2.294921875
,53.5869954,2.255859375
,53.5917669,2.2216796875
,53.6287141,2.1923828125
,53.6343159,2.16796875
,53.6701292,2.138671875
,53.670487,2.1240234375
,53.7047276,2.109375
,53.7110468,2.08984375
,53.7470898,2.0654296875
,53.7700327,2.0458984375
,53.7706322,2.0263671875
,53.8143964,2.001953125
,53.8149812,1.9775390625
,53.835185,1.953125
,53.852266,1.93359375
,53.8899069,1.9140625
,53.8903358,1.8994140625
,53.9261113,1.884765625
,53.946366,1.8701171875
,53.9550886,1.8603515625
,53.9733083,1.8505859375
,54.0087924,1.8359375
,54.0091617,1.826171875
,54.0462752,1.8212890625
,54.0517916,1.8115234375
,54.0908073,1.8017578125
,54.0911727,1.7919921875
,54.1123878,1.8115234375
,54.1542748,1.865234375
,54.1548145,1.953125
,54.1733005,2.0458984375
,54.1896724,2.138671875
,54.2314028,2.2119140625
,54.2319542,2.2802734375
,54.2514254,2.32421875
,54.2926567,2.353515625
,54.293027,2.3779296875
,54.3428643,2.392578125
,54.3433203,2.3974609375
,54.3611227,2.392578125
,54.3750611,2.36328125
,54.3918611,2.333984375
,54.435121,2.294921875
,54.4355258,2.2607421875
,54.4524347,2.2216796875
,54.4967343,2.197265625
,54.4971821,2.177734375
,54.5179237,2.158203125
,54.5341089,2.138671875
,54.5686012,2.1240234375
,54.5899385,2.099609375
,54.5903033,2.080078125
,54.6366486,2.0556640625
,54.6370109,2.0361328125
,54.656865,2.01171875
,54.6736472,1.9873046875
,54.7090841,1.962890625
,54.7293689,1.943359375
,54.7299454,1.923828125
,54.7666104,1.9091796875
,54.7950275,1.89453125
,54.7958372,1.884765625
,54.8139025,1.8701171875
,54.8485062,1.8603515625
,54.8686163,1.8505859375
,54.8743753,1.845703125
,54.9111839,1.8359375
,54.911548,1.8212890625
,54.9465069,1.8115234375
,54.951353,1.8017578125
,54.9887961,1.8115234375
,54.9944994,1.845703125
,55.0431003,1.923828125
,55.0435619,2.0166015625
,55.0543331,2.1142578125
,55.0754451,2.1923828125
,55.1200739,2.2509765625
,55.1204415,2.3046875
,55.1328224,2.3486328125
,55.1706047,2.3828125
,55.1734998,2.40234375
,55.2091807,2.4169921875
,55.2148216,2.4169921875
,55.2651778,2.4072265625
,55.2657873,2.3779296875
,55.2762753,2.3388671875
,55.2909168,2.294921875
,55.3286629,2.255859375
,55.333725,2.2265625
,55.373425,2.2021484375
,55.3738006,2.1826171875
,55.4102258,2.1630859375
,55.4138439,2.1435546875
,55.4504408,2.1240234375
,55.4698171,2.1044921875
,55.4724119,2.080078125
,55.5064117,2.0556640625
,55.5270624,2.0361328125
,55.5347197,2.01171875
,55.5705985,1.9873046875
,55.5738434,1.962890625
,55.5958728,1.943359375
,55.6379981,1.923828125
,55.6383701,1.9091796875
,55.6513682,1.89453125
,55.7003211,1.8798828125
,55.700826,1.8701171875
,55.7208721,1.8603515625
,55.7335712,1.8505859375
,55.7780011,1.845703125
,55.7783632,1.8359375
,55.7999016,1.826171875
,55.8167246,1.8115234375
,55.8508128,1.806640625
,55.8711898,1.8115234375
,55.8738881,1.845703125
,55.9092664,1.9140625
,55.9154851,2.01171875
,55.9533206,2.1044921875
,55.9536938,2.1875
,55.9892873,2.255859375
,56.0094443,2.3095703125
,56.0130912,2.3486328125
,56.03311,2.3828125
,56.0761702,2.40234375
,56.0766003,2.4169921875
,56.1123984,2.421875
,56.1166434,2.412109375
,56.1533826,2.3828125
,56.1574102,2.353515625
,56.1936791,2.314453125
,56.1942622,2.275390625
,56.2327256,2.2509765625
,56.2330907,2.2265625
,56.2687131,2.20703125
,56.2927929,2.1923828125
,56.293206,2.1728515625
,56.3289148,2.1533203125
,56.3499114,2.12890625
,56.3504781,2.1044921875
,56.3870912,2.080078125
,56.4087024,2.060546875
,56.4142048,2.0361328125
,56.4499046,2.0166015625
,56.4557626,1.9921875
,56.4963428,1.97265625
,56.4969129,1.9580078125
,56.5316451,1.943359375
,56.5379559,1.9287109375
,56.5743472,1.9189453125
,56.5749424,1.9091796875
,56.6112536,1.904296875
,56.6159911,1.89453125
,56.6535289,1.8896484375
,56.6541235,1.8798828125
,56.6889618,1.865234375
,56.7103163,1.85546875
,56.7171451,1.85546875
,56.7352472,1.8798828125
,56.7689282,1.9482421875
,56.7739594,2.03125
,56.8096604,2.119140625
,56.8303694,2.197265625
,56.8358292,2.2509765625
,56.8858294,2.294921875
,56.8862405,2.32421875
,56.9154554,2.3486328125
,56.9160362,2.36328125
,56.9497673,2.3779296875
,56.9544168,2.373046875
,56.9922304,2.3583984375
,56.9950618,2.32421875
,57.0310852,2.28515625
,57.0517493,2.24609375
,57.0567635,2.2119140625
,57.0752171,2.177734375
,57.0952424,2.158203125
,57.1307951,2.138671875
,57.1337584,2.119140625
,57.1685931,2.099609375
,57.1905595,2.0751953125
,57.1973861,2.05078125
,57.2324718,2.0263671875
,57.2375828,1.9970703125
,57.2587534,1.97265625
,57.2951251,1.9384765625
,57.295494,1.9189453125
,57.3318842,1.8994140625
,57.3348642,1.8798828125
,57.3723031,1.865234375
,57.4011714,1.8505859375
,57.4015412,1.8359375
,57.4175222,1.8212890625
,57.4388362,1.81640625
,57.4741393,1.806640625
,57.4745107,1.796875
,57.5092426,1.7919921875
,57.5294235,1.7822265625
,57.5352682,1.767578125
,57.5727541,1.7626953125
,57.5755091,1.796875
,57.6238774,1.8603515625
,57.6244489,1.9580078125
,57.6533362,2.05078125
,57.6537357,2.138671875
,57.7007965,2.20703125
,57.7013846,2.265625
,57.7215216,2.3095703125
,57.7364964,2.3388671875
,57.7714141,2.36328125
,57.7921775,2.3779296875
,57.7968304,2.3779296875
,57.8146014,2.3681640625
,57.8574519,2.3486328125
,57.8579672,2.3095703125
,57.891978,2.2705078125
,57.8966306,2.2314453125
,57.9367661,2.197265625
,57.9371294,2.1728515625
,57.9745038,2.1484375
,57.9795892,2.12890625
,58.0155502,2.109375
,58.0159149,2.08984375
,58.052733,2.0703125
,58.0575487,2.0458984375
,58.0787408,2.0263671875
,58.1248517,2.001953125
,58.1256515,1.97265625
,58.1400523,1.953125
,58.173277,1.9287109375
,58.1788989,1.904296875
,58.1953385,1.884765625
,58.2354236,1.875
,58.235817,1.8603515625
,58.2725745,1.8505859375
,58.2966279,1.8408203125
,58.2970196,1.8310546875
,58.3434575,1.826171875
,58.3438215,1.81640625
,58.3645908,1.8017578125
,58.3770572,1.7919921875
,58.4223085,1.7822265625
,58.4229066,1.7724609375
,58.437621,1.7919921875
,58.4842105,1.845703125
,58.4846289,1.9384765625
,58.4983215,2.0361328125
,58.5352948,2.12890625
,58.5356539,2.197265625
,58.5718622,2.265625
,58.5771002,2.3095703125
,58.6255684,2.3486328125
,58.6261666,2.373046875
,58.6385693,2.3974609375
,58.6741034,2.40234375
,58.6953268,2.40234375
,58.7005681,2.3828125
,58.7201458,2.34375
,58.7677099,2.3046875
,58.7680947,2.2607421875
,58.7992396,2.2314453125
,58.7997501,2.2021484375
,58.8178197,2.177734375
,58.8531162,2.158203125
,58.8739455,2.138671875
,58.8788184,2.1142578125
,58.9223548,2.08984375
,58.9229178,2.0654296875
,58.9424359,2.041015625
,58.9580722,2.021484375
,58.9928511,2.001953125
,58.9976912,1.9775390625
,59.0343554,1.953125
,59.0544514,1.93359375
,59.061647,1.9091796875
,59.0960925,1.8896484375
,59.0964713,1.8701171875
,59.1320217,1.8603515625
,59.1580332,1.845703125
,59.1585748,1.8359375
,59.1924054,1.826171875
,59.2127897,1.81640625
,59.2206072,1.8017578125
,59.2675287,1.796875
,59.2680526,1.7822265625
,59.2775789,1.7724609375
,59.3146097,1.767578125
,59.3176186,1.7822265625
,59.3607418,1.8310546875
,59.3611052,1.9189453125
,59.3812602,2.0263671875
,59.4006656,2.1142578125
,59.43946,2.197265625
,59.4399341,2.255859375
,59.4754539,2.3046875
,59.5031421,2.3388671875
,59.5037099,2.3681640625
,59.5182705,2.3876953125
,59.5651219,2.3974609375
,59.5654882,2.3974609375
,59.5866535,2.3828125
,59.6021448,2.3486328125
,59.6381793,2.314453125
,59.6385768,2.2705078125
,59.675719,2.236328125
,59.7051187,2.2119140625
,59.7054891,2.1875
,59.7182033,2.16796875
,59.7516275,2.1484375
,59.7731504,2.12890625
,59.7807198,2.1044921875
,59.8159665,2.080078125
,59.8368431,2.0556640625
,59.8377644,2.0361328125
,59.8792298,2.01171875
,59.8797752,1.9921875
,59.8985285,1.97265625
,59.9417469,1.953125
,59.942144,1.93359375
,59.9627519,1.9189453125
,59.9794519,1.8994140625
,59.9989762,1.8896484375
,60.0347825,1.8798828125
,60.0383086,1.875
,60.0760933,1.865234375
,60.0790783,1.85546875
,60.1140115,1.845703125
,60.135184,1.8310546875
,60.1409464,1.81640625
,60.1773041,1.8017578125
,60.1812959,1.796875
,60.199446,1.8212890625
,60.237246,1.89453125
,60.2572786,1.982421875
,60.2602306,2.080078125
,60.2978136,2.158203125
,60.3012488,2.2265625
,60.346565,2.275390625
,60.3470694,2.3095703125
,60.363698,2.3388671875
,60.3791036,2.3583984375
,60.4135255,2.3779296875
,60.4339507,2.3779296875
,60.4420145,2.3681640625
,60.4779282,2.3388671875
,60.4809448,2.3046875
,60.5186628,2.265625
,60.5209585,2.236328125
,60.539268,2.20703125
,60.5739839,2.1875
,60.5787091,2.16796875
,60.6254214,2.1484375
,60.6257827,2.1240234375
,60.646328,2.099609375
,60.6627938,2.0751953125
,60.697619,2.0458984375
,60.7029451,2.0166015625
,60.7193719,1.9873046875
,60.7398214,1.9677734375
,60.7742691,1.9482421875
,60.7942711,1.9287109375
,60.7994778,1.904296875
,60.8448572,1.884765625
,60.8454385,1.865234375
,60.8663623,1.8505859375
,60.8839194,1.8359375
,60.9030524,1.826171875
,60.9215243,1.8115234375
,60.9710097,1.8017578125
,60.9716041,1.796875
,60.9829043,1.7822265625
,61.0159833,1.7626953125
,61.0361044,1.7578125
,61.0414086,1.787109375
,61.0780372,1.8505859375
,61.0831249,1.943359375
,61.1011994,2.0361328125
,61.1384166,2.1240234375
,61.1389552,2.1923828125
,61.1754653,2.24609375
,61.1953725,2.28515625
,61.2006412,2.3193359375
,61.236904,2.3388671875
,61.2662803,2.3486328125
,61.2667294,2.353515625
,61.2797195,2.353515625
,61.3281604,2.333984375
,61.3285211,2.2998046875
,61.3406007,2.2607421875
,61.375817,2.2265625
,61.4058312,2.1923828125
,61.4064191,2.1630859375
,61.4230264,2.138671875
,61.4400138,2.1142578125
,61.4825545,2.0947265625
,61.4829883,2.0751953125
,61.5288967,2.05078125
,61.5292527,2.0263671875
,61.5423731,2.001953125
,61.5782975,1.9775390625
,61.5828839,1.9482421875
,61.6182636,1.923828125
,61.6233542,1.8994140625
,61.6689644,1.8798828125
,61.6693326,1.8603515625
,61.6810967,1.845703125
,61.7178598,1.826171875
,61.7386687,1.8115234375
,61.7436395,1.796875
,61.7932856,1.787109375
,61.7936584,1.77734375
,61.8043204,1.7724609375
,61.8204308,1.7578125
,61.8561593,1.7529296875
,61.8766379,1.73828125
,61.8808788,1.7333984375
,61.918369,1.7529296875
,61.9489586,1.81640625
,61.9494349,1.9091796875
,61.9657536,2.001953125
,61.9857951,2.0947265625
,62.0005438,2.1630859375
,62.0349279,2.2265625
,62.055032800000006,2.2705078125
,62.062256399999995,2.3095703125
,62.105799700000006,2.333984375
,62.106222200000005,2.353515625
,62.123748500000005,2.36328125
,62.1588957,2.36328125
,62.1592919,2.34375
,62.19457,2.3193359375
,62.2151961,2.2802734375
,62.2216263,2.2412109375
,62.261776999999995,2.2021484375
,62.293156100000004,2.177734375
,62.293669699999995,2.1484375
,62.30569010000001,2.12890625
,62.323606,2.1142578125
,62.357455,2.08984375
,62.378828999999996,2.0703125
,62.3794695,2.0458984375
,62.4325879,2.0263671875
,62.4331627,2.001953125
,62.4628749,1.9775390625
,62.4632421,1.9482421875
,62.497229899999994,1.9287109375
,62.518727600000005,1.904296875
,62.525205799999995,1.884765625
,62.5415055,1.865234375
,62.56331110000001,1.8505859375
,62.600913399999996,1.8359375
,62.6013432,1.8212890625
,62.6527734,1.806640625
,62.6532093,1.796875
,62.6823285,1.7822265625
,62.6826945,1.7724609375
,62.72023780000001,1.7626953125
,62.720599199999995,1.748046875
,62.75825330000001,1.73828125
,62.762553600000004,1.7333984375
,62.80894189999999,1.7578125
,62.8094351,1.8115234375
,62.840125900000004,1.904296875
,62.844454,1.9921875
,62.879800200000005,2.080078125
,62.88632440000001,2.1533203125
,62.902857100000006,2.2021484375
,62.923259400000006,2.24609375
,62.9666639,2.2802734375
,62.967018100000004,2.3046875
,62.9846369,2.3193359375
,63.02976030000001,2.333984375
,63.030173700000006,2.3291015625
,63.0592795,2.314453125
,63.0649313,2.28515625
,63.100279,2.2509765625
,63.1206806,2.216796875
,63.12298010000001,2.1875
,63.142700500000004,2.1630859375
,63.178512600000005,2.1435546875
,63.1850721,2.119140625
,63.2308283,2.099609375
,63.2313099,2.0751953125
,63.2465136,2.0556640625
,63.2924053,2.03125
,63.29281829999999,2.0068359375
,63.303287600000004,1.9873046875
,63.3550388,1.9677734375
,63.355548299999995,1.9482421875
,63.364829400000005,1.9287109375
,63.400020299999994,1.9140625
,63.404214499999995,1.89453125
,63.4397123,1.8798828125
,63.4614354,1.8603515625
,63.4618215,1.85546875
,63.497636,1.845703125
,63.518751300000005,1.8359375
,63.5251775,1.8310546875
,63.573634799999994,1.8212890625
,63.5740948,1.8115234375
,63.5855605,1.806640625
,63.636201299999996,1.796875
,63.636560700000004,1.787109375
,63.6560812,1.7919921875
,63.665319,1.8212890625
,63.70179039999999,1.884765625
,63.70596020000001,1.962890625
,63.744957799999995,2.05078125
,63.7455044,2.1240234375
,63.783407600000004,2.1875
,63.787857200000005,2.2314453125
,63.8249979,2.2705078125
,63.8254489,2.294921875
,63.8451457,2.32421875
,63.881870000000006,2.3388671875
,63.888118399999996,2.3486328125
,63.90513850000001,2.3388671875
,63.942447400000006,2.3193359375
,63.9480705,2.28515625
,63.9826324,2.255859375
,63.9876043,2.2265625
,64.0047133,2.197265625
,64.0396883,2.177734375
,64.0450805,2.1630859375
,64.0805084,2.138671875
,64.1016027,2.119140625
,64.1065043,2.099609375
,64.1512175,2.080078125
,64.1517968,2.0556640625
,64.1668518,2.0361328125
,64.1838401,2.0068359375
,64.2278361,1.9921875
,64.2281992,1.9677734375
,64.2484661,1.9482421875
,64.2674236,1.9287109375
,64.3014773,1.9091796875
,64.3069514,1.89453125
,64.3431673,1.8798828125
,64.3435601,1.865234375
,64.3828217,1.8603515625
,64.3831874,1.85546875
,64.4046206,1.845703125
,64.4251994,1.8310546875
,64.4602047,1.81640625
,64.4806816,1.8017578125
,64.48598,1.806640625
,64.5228928,1.8359375
,64.5282953,1.89453125
,64.5637634,1.97265625
,64.5641263,2.0556640625
,64.6018192,2.12890625
,64.6217269,2.1826171875
,64.6266647,2.2314453125
,64.6474476,2.2607421875
,64.6677283,2.28515625
,64.7031095,2.2998046875
,64.7101301,2.3095703125
,64.7251974,2.3095703125
,64.7601452,2.2998046875
,64.7651408,2.275390625
,64.7848611,2.24609375
,64.8350974,2.2119140625
,64.8354684,2.1826171875
,64.8472204,2.158203125
,64.8981973,2.138671875
,64.8988478,2.1240234375
,64.9065901,2.1044921875
,64.9247054,2.08984375
,64.9746378,2.0751953125
,64.9752259,2.0556640625
,65.0045796,2.03125
,65.0091405,2.01171875
,65.0445485,1.9873046875
,65.0475078,1.9677734375
,65.0650965,1.9482421875
,65.1027438,1.9287109375
,65.1033471,1.9140625
,65.1464758,1.904296875
,65.1468388,1.8896484375
,65.1678241,1.8798828125
,65.202956,1.865234375
,65.2077359,1.85546875
,65.2449073,1.845703125
,65.2481997,1.8359375
,65.2687428,1.8310546875
,65.2855517,1.8212890625
,65.3220256,1.81640625
,65.3511076,1.8115234375
,65.3518117,1.8310546875
,65.3679543,1.875
,65.4141733,1.9580078125
,65.4145786,2.041015625
,65.4297084,2.1240234375
,65.4508733,2.1923828125
,65.4661953,2.24609375
,65.5004468,2.294921875
,65.5216917,2.32421875
,65.5292025,2.353515625
,65.5656003,2.373046875
,65.5687322,2.3828125
,65.6067758,2.3828125
,65.6073747,2.3681640625
,65.6238286,2.34375
,65.6609077,2.3095703125
,65.6932201,2.275390625
,65.6938837,2.24609375
,65.7088459,2.216796875
,65.7424623,2.197265625
,65.7488789,2.1728515625
,65.7852426,2.1533203125
,65.789896,2.1337890625
,65.8070496,2.109375
,65.842906,2.08984375
,65.8457854,2.0654296875
,65.8829172,2.041015625
,65.9106322,2.0166015625
,65.9114293,1.9970703125
,65.9288776,1.9775390625
,65.9640481,1.9580078125
,65.9692807,1.9384765625
,66.0046296,1.9189453125
,66.0049886,1.8994140625
,66.0291641,1.8896484375
,66.0473824,1.8798828125
,66.0820495,1.8701171875
,66.1026443,1.8603515625
,66.1082795,1.8505859375
,66.1438298,1.845703125
,66.1640306,1.8359375
,66.1700028,1.826171875
,66.1884621,1.8212890625
,66.222906,1.8408203125
,66.2271512,1.884765625
,66.2714911,1.962890625
,66.2719874,2.05078125
,66.306816,2.1337890625
,66.3114914,2.2021484375
,66.3471048,2.2607421875
,66.3476891,2.3046875
,66.3824166,2.3388671875
,66.4026351,2.3681640625
,66.4072571,2.392578125
,66.4434189,2.4072265625
,66.4653503,2.4072265625
,66.4700418,2.3974609375
,66.4905854,2.373046875
,66.5377921,2.3388671875
,66.5384537,2.3046875
,66.568017,2.2802734375
,66.5684719,2.255859375
,66.6137008,2.2314453125
,66.6140133,2.2119140625
,66.628322,2.1923828125
,66.6658405,2.16796875
,66.6712749,2.1484375
,66.7075246,2.1240234375
,66.7096814,2.099609375
,66.746564,2.080078125
,66.7710821,2.05078125
,66.7717439,2.03125
,66.7886961,2.0166015625
,66.8245493,1.9970703125
,66.8296972,1.9775390625
,66.8660998,1.962890625
,66.8709223,1.943359375
,66.9085179,1.9287109375
,66.9092976,1.9189453125
,66.9282228,1.9140625
,66.9725818,1.9091796875
,66.9731845,1.904296875
,66.9887602,1.89453125
,67.026648,1.884765625
,67.0310657,1.875
,67.0671639,1.8701171875
,67.0722342,1.8798828125
,67.0890281,1.923828125
,67.1296925,1.9970703125
,67.1302877,2.0751953125
,67.1503493,2.158203125
,67.1845431,2.2265625
,67.1895534,2.2802734375
,67.2259639,2.32421875
,67.2309125,2.3583984375
,67.2469771,2.3828125
,67.2816376,2.40234375
,67.3024746,2.412109375
,67.3082886,2.412109375
,67.3417641,2.3974609375
,67.3632823,2.36328125
,67.3702688,2.3291015625
,67.4069333,2.294921875
,67.439075,2.265625
,67.439617,2.236328125
,67.4542351,2.216796875
,67.4686001,2.197265625
,67.5050923,2.177734375
,67.5095617,2.158203125
,67.54504,2.1337890625
,67.5660318,2.109375
,67.572966,2.08984375
,67.6093918,2.060546875
,67.61428,2.0361328125
,67.6284466,2.0166015625
,67.6670547,1.9970703125
,67.6702524,1.9775390625
,67.7197009,1.962890625
,67.7200764,1.9482421875
,67.7314134,1.9287109375
,67.7693451,1.9189453125
,67.7698838,1.904296875
,67.8059205,1.8896484375
,67.8261262,1.875
,67.8270505,1.8701171875
,67.8750095,1.85546875
,67.8755784,1.8408203125
,67.9046678,1.8408203125
,67.9110062,1.8701171875
,67.9330629,1.9287109375
,67.9524718,2.0166015625
,67.9705525,2.0947265625
,68.0048552,2.1728515625
,68.0084871,2.236328125
,68.0444706,2.275390625
,68.0492797,2.3095703125
,68.0867433,2.333984375
,68.1098683,2.3583984375
,68.110347,2.3681640625
,68.1468456,2.373046875
,68.1676605,2.3583984375
,68.1729373,2.333984375
,68.1902804,2.294921875
,68.2245597,2.265625
,68.2453061,2.236328125
,68.2534437,2.2119140625
,68.2715825,2.1923828125
,68.306184,2.1728515625
,68.3265171,2.1533203125
,68.3322122,2.1337890625
,68.3682785,2.109375
,68.3688682,2.0849609375
,68.4028322,2.0654296875
,68.4244799,2.041015625
,68.4318515,2.021484375
,68.4675822,2.001953125
,68.473346,1.9873046875
,68.5094624,1.9677734375
,68.5110849,1.9482421875
,68.5471728,1.9287109375
,68.5475334,1.9140625
,68.5837996,1.8994140625
,68.6044303,1.8896484375
,68.61277,1.8798828125
,68.648325,1.865234375
,68.6515366,1.8603515625
,68.6896346,1.845703125
,68.6939147,1.8310546875
,68.708932,1.81640625
,68.7497171,1.8359375
,68.7500729,1.875
,68.7704463,1.953125
,68.812904,2.0361328125
,68.8132654,2.1240234375
,68.8330456,2.197265625
,68.8746246,2.2607421875
,68.8749868,2.3046875
,68.910224,2.34375
,68.9108102,2.373046875
,68.9457442,2.3974609375
,68.9670911,2.4072265625
,68.9725684,2.412109375
,69.0174335,2.40234375
,69.0178026,2.373046875
,69.0324991,2.3388671875
,69.0696953,2.3046875
,69.0742233,2.2705078125
,69.0903402,2.2412109375
,69.1110887,2.216796875
,69.1597434,2.197265625
,69.160337,2.1728515625
,69.1727863,2.1484375
,69.2212151,2.1240234375
,69.2215907,2.099609375
,69.2344298,2.0703125
,69.252114,2.0458984375
,69.2880468,2.021484375
,69.2916645,2.001953125
,69.3272076,1.97265625
,69.3615646,1.953125
,69.3619357,1.93359375
,69.373697,1.9140625
,69.4230817,1.89453125
,69.4237785,1.8798828125
,69.4434924,1.865234375
,69.4521207,1.8603515625
,69.4713601,1.845703125
,69.510191,1.8408203125
,69.5107742,1.8310546875
,69.548684,1.8212890625
,69.5538683,1.8115234375
,69.5878717,1.8017578125
,69.6083832,1.8115234375
,69.6161208,1.865234375
,69.6508437,1.9482421875
,69.651425,2.0361328125
,69.6880583,2.12890625
,69.7078592,2.2021484375
,69.7132773,2.265625
,69.746886,2.314453125
,69.7686896,2.353515625
,69.7753764,2.3876953125
,69.8103796,2.4072265625
,69.8109735,2.421875
,69.8628837,2.4267578125
,69.8632424,2.412109375
,69.8936995,2.3876953125
,69.8941232,2.353515625
,69.9411009,2.3095703125
,69.9416924,2.275390625
,69.9559932,2.24609375
,69.9747446,2.216796875
,70.0078026,2.1923828125
,70.0117939,2.177734375
,70.0518577,2.158203125
,70.0523317,2.1337890625
,70.0876663,2.109375
,70.1135673,2.0849609375
,70.1141546,2.060546875
,70.149998,2.0361328125
,70.1503605,2.0068359375
,70.1906162,1.9873046875
,70.2204056,1.9677734375
,70.2207782,1.9482421875
,70.2339414,1.9287109375
,70.2699674,1.9189453125
,70.2754721,1.904296875
,70.2956557,1.89453125
,70.3467146,1.884765625
,70.3472948,1.8798828125
,70.3561365,1.875
,70.3720426,1.8603515625
,70.4075985,1.85546875
,70.4294723,1.845703125
,70.4347184,1.8408203125
,70.4703227,1.8603515625
,70.473661,1.923828125
,70.5117641,2.001953125
,70.5177044,2.0947265625
,70.5341114,2.1728515625
,70.5688399,2.24609375
,70.5737771,2.3095703125
,70.6079868,2.353515625
,70.6303766,2.3876953125
,70.6349768,2.412109375
,70.6734231,2.4365234375
,70.6762584,2.44140625
,70.710542,2.4365234375
,70.7315137,2.412109375
,70.732054,2.3779296875
,70.7675461,2.3388671875
,70.7873658,2.3095703125
,70.7943378,2.2802734375
,70.8303298,2.255859375
,70.8357289,2.2314453125
,70.8710698,2.20703125
,70.8714329,2.1875
,70.9062348,2.16796875
,70.9280814,2.1435546875
,70.9335458,2.1044921875
,70.9707607,2.0849609375
,71.0016421,2.060546875
,71.0021837,2.0361328125
,71.0183321,2.01171875
,71.0358658,1.9921875
,71.070159,1.9677734375
,71.0921471,1.9482421875
,71.0926117,1.93359375
,71.129235,1.9189453125
,71.134589,1.904296875
,71.1703739,1.8896484375
,71.1761217,1.875
,71.2128955,1.8603515625
,71.2136472,1.845703125
,71.2512721,1.826171875
,71.2833896,1.81640625
,71.2838201,1.8310546875
,71.2960134,1.89453125
,71.3145671,1.97265625
,71.3605092,2.0654296875
,71.360874,2.138671875
,71.3808896,2.20703125
,71.3965231,2.2607421875
,71.431627,2.2998046875
,71.4319882,2.32421875
,71.4688488,2.3486328125
,71.4739735,2.36328125
,71.5163987,2.36328125
,71.5170008,2.353515625
,71.5374256,2.333984375
,71.5774078,2.2998046875
,71.5777736,2.2607421875
,71.5974356,2.2216796875
,71.6142364,2.1923828125
,71.6485249,2.16796875
,71.6534481,2.138671875
,71.6871818,2.1240234375
,71.7084061,2.1044921875
,71.7157742,2.0849609375
,71.7651672,2.0654296875
,71.7656252,2.041015625
,71.7762171,2.0166015625
,71.8124026,1.9970703125
,71.8127877,1.97265625
,71.8490662,1.953125
,71.8742442,1.93359375
,71.8746933,1.9140625
,71.9190874,1.904296875
,71.9194578,1.8896484375
,71.9392596,1.875
,71.9559573,1.865234375
,71.9906714,1.85546875
,72.0122348,1.845703125
,72.0126314,1.8359375
,72.0598139,1.826171875
,72.0602462,1.81640625
,72.0919202,1.806640625
,72.0977432,1.806640625
,72.1322897,1.8408203125
,72.1372489,1.904296875
,72.1533611,1.9921875
,72.1881999,2.0947265625
,72.2085588,2.1826171875
,72.2160419,2.2509765625
,72.2538891,2.3095703125
,72.2565277,2.3486328125
,72.292028,2.3828125
,72.297695,2.40234375
,72.3330022,2.421875
,72.3335774,2.4267578125
,72.353995,2.421875
,72.3892532,2.40234375
,72.4097143,2.3681640625
,72.4157002,2.3291015625
,72.4645564,2.294921875
,72.4650044,2.2607421875
,72.4793187,2.236328125
,72.5140598,2.2119140625
,72.5183741,2.1923828125
,72.5534005,2.16796875
,72.5757371,2.1484375
,72.5763465,2.12890625
,72.6195705,2.109375
,72.619961,2.0849609375
,72.6669937,2.060546875
,72.6674268,2.03125
,72.6803554,2.001953125
,72.6991761,1.9775390625
,72.7153221,1.953125
,72.759056,1.93359375
,72.7594251,1.9140625
,72.7764969,1.8994140625
,72.7978503,1.884765625
,72.8369244,1.8798828125
,72.8372921,1.865234375
,72.8741002,1.85546875
,72.8988097,1.8408203125
,72.8991789,1.8310546875
,72.9167283,1.8212890625
,72.9617605,1.8115234375
,72.9621498,1.8115234375
,72.9779752,1.845703125
,73.0235526,1.9189453125
,73.0241444,2.0068359375
,73.0400323,2.1044921875
,73.0560781,2.1826171875
,73.1037081,2.255859375
,73.1041846,2.3095703125
,73.1188744,2.353515625
,73.1366574,2.392578125
,73.1719944,2.4169921875
,73.1925744,2.4365234375
,73.198362,2.4365234375
,73.2347717,2.431640625
,73.2583134,2.4072265625
,73.2586947,2.3681640625
,73.2761134,2.32421875
,73.311488,2.2900390625
,73.3373314,2.2607421875
,73.3377534,2.2314453125
,73.373662,2.20703125
,73.3787611,2.1875
,73.4138136,2.1630859375
,73.4188992,2.1435546875
,73.4358137,2.1142578125
,73.4792337,2.0947265625
,73.4797922,2.0703125
,73.5153357,2.05078125
,73.5179838,2.021484375
,73.5572344,2.001953125
,73.5603661,1.9775390625
,73.6049829,1.9580078125
,73.6055585,1.9482421875
,73.6167025,1.93359375
,73.6534977,1.9189453125
,73.6578654,1.9091796875
,73.6943086,1.8994140625
,73.7000466,1.8896484375
,73.7349409,1.884765625
,73.7401291,1.8701171875
,73.7757412,1.8603515625
,73.7808168,1.845703125
,73.7962493,1.8359375
,73.8324409,1.8505859375
,73.8373435,1.884765625
,73.8716963,1.9677734375
,73.8925607,2.060546875
,73.8983704,2.1533203125
,73.9472494,2.2216796875
,73.9476116,2.28515625
,73.9613559,2.333984375
,73.9804243,2.373046875
,73.9970413,2.3974609375
,74.0316699,2.421875
,74.051929,2.431640625
,74.059356,2.431640625
,74.0953458,2.4169921875
,74.0996408,2.3876953125
,74.1356876,2.353515625
,74.1561209,2.314453125
,74.1621101,2.2802734375
,74.1791633,2.2509765625
,74.2158998,2.2314453125
,74.2164293,2.20703125
,74.2546047,2.1875
,74.2595901,2.1630859375
,74.3074124,2.138671875
,74.307771,2.109375
,74.3389219,2.0849609375
,74.3393863,2.0556640625
,74.3743742,2.0361328125
,74.3775803,2.01171875
,74.4150604,1.9873046875
,74.4173661,1.9677734375
,74.4535355,1.943359375
,74.4742453,1.9287109375
,74.4796954,1.9091796875
,74.5158262,1.89453125
,74.5407001,1.8798828125
,74.5411345,1.8603515625
,74.5586323,1.8359375
,74.5927824,1.826171875
,74.6136931,1.8115234375
,74.619248,1.806640625
,74.6558361,1.8115234375
,74.6613504,1.85546875
,74.6994535,1.9287109375
,74.6998235,2.021484375
,74.7465891,2.1044921875
,74.7469522,2.1826171875
,74.7591958,2.24609375
,74.7976299,2.2900390625
,74.7982144,2.3291015625
,74.8332828,2.3486328125
,74.8543133,2.3681640625
,74.8616232,2.373046875
,74.902831,2.373046875
,74.903433,2.353515625
,74.919942,2.32421875
,74.9397423,2.28515625
,74.9741004,2.24609375
,74.9947614,2.216796875
,75.0008729,2.1875
,75.0223675,2.16796875
,75.0574163,2.1435546875
,75.0628298,2.1240234375
,75.081181,2.1044921875
,75.098694,2.080078125
,75.1356693,2.0556640625
,75.1553313,2.0361328125
,75.1601387,2.0068359375
,75.1990142,1.9873046875
,75.1995979,1.9580078125
,75.2459488,1.9384765625
,75.2463682,1.9140625
,75.2655339,1.8994140625
,75.2796256,1.8701171875
,75.3173405,1.8603515625
,75.3205463,1.8505859375
,75.355818,1.8408203125
,75.3878705,1.8310546875
,75.3885103,1.826171875
,75.4023993,1.81640625
,75.4389511,1.8017578125
,75.4432827,1.787109375
,75.457665,1.787109375
,75.4942548,1.806640625
,75.5148558,1.8701171875
,75.5198872,1.962890625
,75.5559364,2.0556640625
,75.5761146,2.1484375
,75.5815303,2.2216796875
,75.6167722,2.2802734375
,75.63636,2.32421875
,75.6397716,2.373046875
,75.674075,2.3974609375
,75.6961333,2.421875
,75.7010032,2.4267578125
,75.7451488,2.421875
,75.7455115,2.40234375
,75.7616724,2.3681640625
,75.7974195,2.3291015625
,75.817811,2.2900390625
,75.8211428,2.255859375
,75.840591,2.2314453125
,75.8748247,2.20703125
,75.8954279,2.1875
,75.9012452,2.16796875
,75.9477414,2.1484375
,75.9483351,2.1240234375
,75.9597382,2.099609375
,75.9969467,2.080078125
,76.0016915,2.041015625
,76.0379584,2.021484375
,76.0399487,2.001953125
,76.0756415,1.9775390625
,76.0836393,1.9580078125
,76.1189309,1.9384765625
,76.122043,1.9189453125
,76.1568375,1.904296875
,76.1790327,1.884765625
,76.1794251,1.875
,76.2309036,1.865234375
,76.2312644,1.85546875
,76.2603062,1.845703125
,76.2607473,1.8359375
,76.3074315,1.8212890625
,76.308018,1.8115234375
,76.3284648,1.81640625
,76.3447417,1.8505859375
,76.3614962,1.9189453125
,76.3952788,2.0166015625
,76.4155201,2.109375
,76.4237515,2.1923828125
,76.4431564,2.255859375
,76.4920576,2.3095703125
,76.4926412,2.3486328125
,76.5022702,2.3828125
,76.5379563,2.40234375
,76.5429271,2.421875
,76.5840937,2.4267578125
,76.5844615,2.4169921875
,76.6180206,2.392578125
,76.622601,2.3583984375
,76.6618091,2.314453125
,76.6641292,2.28515625
,76.7017163,2.255859375
,76.7045847,2.2314453125
,76.7267197,2.197265625
,76.7429028,2.1728515625
,76.7637006,2.1630859375
,76.802825,2.1435546875
,76.803281,2.1240234375
,76.8409959,2.099609375
,76.8439275,2.0703125
,76.8763708,2.041015625
,76.8965715,2.0166015625
,76.9013464,1.9873046875
,76.9367725,1.9677734375
,76.9431498,1.953125
,76.9909871,1.93359375
,76.9915425,1.9189453125
,77.003591,1.904296875
,77.0244158,1.884765625
,77.0670127,1.875
,77.0673749,1.865234375
,77.0883164,1.8505859375
,77.1015883,1.845703125
,77.1376008,1.8359375
,77.1427658,1.8212890625
,77.1639336,1.8115234375
,77.2000904,1.8359375
,77.2036827,1.8896484375
,77.2417264,1.97265625
,77.2421574,2.060546875
,77.2771127,2.1533203125
,77.2983729,2.2216796875
,77.3032556,2.28515625
,77.3391692,2.3291015625
,77.3436783,2.3583984375
,77.3803254,2.3828125
,77.3856672,2.40234375
,77.4067862,2.412109375
,77.4259222,2.4072265625
,77.4477298,2.3828125
,77.4637516,2.34375
,77.4985191,2.314453125
,77.5034242,2.2802734375
,77.5423884,2.255859375
,77.542816,2.2314453125
,77.5803031,2.2119140625
,77.5990322,2.1923828125
,77.6038239,2.16796875
,77.646855,2.1484375
,77.6474542,2.1240234375
,77.6615762,2.1044921875
,77.697136,2.080078125
,77.7184254,2.060546875
,77.724309,2.0361328125
,77.7702207,2.01171875
,77.7708284,1.9873046875
,77.7847417,1.962890625
,77.8189947,1.943359375
,77.8229595,1.9287109375
,77.8585109,1.9140625
,77.8640849,1.8994140625
,77.9005174,1.884765625
,77.9051245,1.875
,77.9397507,1.85546875
,77.9602538,1.8408203125
,77.9655173,1.8212890625
,77.9838487,1.8115234375
,78.0197715,1.8408203125
,78.0225252,1.904296875
,78.0564278,1.9873046875
,78.0776924,2.0703125
,78.0846367,2.1484375
,78.1192042,2.20703125
,78.1401307,2.255859375
,78.1463907,2.2900390625
,78.1666467,2.3095703125
,78.1832216,2.32421875
,78.2341509,2.34375
,78.2345105,2.353515625
,78.2451056,2.34375
,78.265597,2.314453125
,78.2855909,2.2802734375
,78.3057049,2.2412109375
,78.3411786,2.20703125
,78.3626989,2.1826171875
,78.3632108,2.158203125
,78.3988123,2.138671875
,78.4047703,2.1142578125
,78.4514932,2.0947265625
,78.4522252,2.0703125
,78.4665167,2.0458984375
,78.4862504,2.021484375
,78.5216443,1.9970703125
,78.5220051,1.9677734375
,78.5424181,1.943359375
,78.5914591,1.9189453125
,78.5918551,1.904296875
,78.6134447,1.884765625
,78.6271161,1.865234375
,78.6721438,1.8505859375
,78.6725971,1.8408203125
,78.6876883,1.8310546875
,78.7037656,1.8212890625
,78.7392077,1.8212890625
,78.7451362,1.8115234375
,78.781052,1.806640625
,78.7853324,1.796875
,78.8346595,1.8017578125
,78.8350324,1.8310546875
,78.8474686,1.8994140625
,78.867015,1.9873046875
,78.8894348,2.0703125
,78.9078623,2.1484375
,78.9242138,2.216796875
,78.9465051,2.275390625
,78.9807081,2.32421875
,78.9867856,2.36328125
,79.0206469,2.3876953125
,79.0431169,2.4072265625
,79.0478267,2.4169921875
,79.0839419,2.412109375
,79.0843005,2.3876953125
,79.1341773,2.3583984375
,79.1349533,2.3193359375
,79.1443742,2.28515625
,79.1799669,2.255859375
,79.2007784,2.2265625
,79.2065335,2.2021484375
,79.2440159,2.1826171875
,79.2469843,2.158203125
,79.2651942,2.138671875
,79.3009885,2.1142578125
,79.3043865,2.08984375
,79.3413996,2.0654296875
,79.3456708,2.0361328125
,79.3645852,2.01171875
,79.400022,1.9873046875
,79.4206573,1.962890625
,79.4234589,1.943359375
,79.4450747,1.923828125
,79.4898512,1.9091796875
,79.490218,1.89453125
,79.5115299,1.8798828125
,79.5275931,1.8701171875
,79.5702021,1.8603515625
,79.5706496,1.845703125
,79.589496,1.8359375
,79.6089387,1.8212890625
,79.6458669,1.8017578125
,79.6465188,1.8017578125
,79.6948127,1.845703125
,79.6952864,1.9091796875
,79.7063273,2.001953125
,79.7430267,2.0849609375
,79.7725121,2.16796875
,79.7729743,2.2314453125
,79.7895936,2.2802734375
,79.8075852,2.314453125
,79.8269246,2.3486328125
,79.8639644,2.3681640625
,79.866857,2.3876953125
,79.9039242,2.392578125
,79.9071105,2.3828125
,79.9447939,2.353515625
,79.9628648,2.314453125
,79.9682726,2.2705078125
,79.9861239,2.2314453125
,80.0204716,2.2021484375
,80.041568,2.1826171875
,80.0470566,2.1630859375
,80.082018,2.1435546875
,80.0876519,2.1240234375
,80.1219952,2.1044921875
,80.1435866,2.0849609375
,80.1445461,2.060546875
,80.1951281,2.041015625
,80.195777,2.021484375
,80.2076344,1.9970703125
,80.2584001,1.97265625
,80.2588782,1.953125
,80.2662223,1.9384765625
,80.3049484,1.923828125
,80.3251656,1.9091796875
,80.3309585,1.904296875
,80.3665843,1.884765625
,80.3670777,1.8798828125
,80.4019782,1.8798828125
,80.4068036,1.8701171875
,80.4407435,1.865234375
,80.4613272,1.85546875
,80.468518,1.8505859375
,80.5042117,1.8603515625
,80.5095286,1.9140625
,80.5454522,1.9921875
,80.5460492,2.0703125
,80.5804451,2.1533203125
,80.6027237,2.216796875
,80.6095108,2.2705078125
,80.6473877,2.3046875
,80.6495289,2.3388671875
,80.6709813,2.353515625
,80.6903668,2.3681640625
,80.7060007,2.373046875
,80.7396466,2.3681640625
,80.7597843,2.3486328125
,80.7666227,2.3193359375
,80.8034395,2.2802734375
,80.8235698,2.24609375
,80.8282193,2.216796875
,80.8655576,2.1923828125
,80.8956909,2.1728515625
,80.8960563,2.1484375
,80.9071456,2.1337890625
,80.9292053,2.1142578125
,80.9645907,2.08984375
,80.9694323,2.0703125
,81.0059116,2.041015625
,81.0104798,2.0166015625
,81.0468922,1.9970703125
,81.0497213,1.97265625
,81.0869798,1.9384765625
,81.0874607,1.923828125
,81.1087773,1.9140625
,81.1296801,1.8994140625
,81.1779711,1.8896484375
,81.178651,1.8798828125
,81.1906299,1.865234375
,81.211304,1.85546875
,81.2328153,1.8408203125
,81.273385,1.8212890625
,81.2738654,1.8115234375
,81.2868882,1.8212890625
,81.3217005,1.865234375
,81.3433092,1.943359375
,81.3504601,2.021484375
,81.3859621,2.1044921875
,81.38853,2.16796875
,81.4252508,2.2216796875
,81.4590707,2.2607421875
,81.4594413,2.2900390625
,81.4683615,2.314453125
,81.5060648,2.3291015625
,81.510889,2.333984375
,81.5312357,2.32421875
,81.5493103,2.3046875
,81.5845672,2.2705078125
,81.6056939,2.2265625
,81.6089865,2.1923828125
,81.6295816,2.158203125
,81.6484116,2.1337890625
,81.6828256,2.1142578125
,81.7030127,2.0947265625
,81.708631,2.0751953125
,81.7454753,2.060546875
,81.7499139,2.0361328125
,81.7708879,2.01171875
,81.8067189,1.982421875
,81.8130242,1.962890625
,81.8280351,1.943359375
,81.8501935,1.923828125
,81.8691206,1.9091796875
,81.9135589,1.8896484375
,81.9141561,1.8701171875
,81.9306638,1.8603515625
,81.9652711,1.845703125
,81.9870483,1.8359375
,81.9874743,1.826171875
,82.0233826,1.8212890625
,82.0435592,1.8115234375
,82.05083,1.806640625
,82.088166,1.7919921875
,82.0926178,1.7822265625
,82.1108737,1.7822265625
,82.1492799,1.8017578125
,82.1795645,1.865234375
,82.1804448,1.943359375
,82.1885625,2.041015625
,82.227098,2.119140625
,82.2276864,2.1875
,82.2632116,2.236328125
,82.2847271,2.275390625
,82.293412,2.2998046875
,82.3119517,2.32421875
,82.3290794,2.333984375
,82.3635836,2.34375
,82.3840463,2.333984375
,82.3895388,2.314453125
,82.4268171,2.275390625
,82.4295756,2.236328125
,82.4513275,2.1923828125
,82.4894793,2.158203125
,82.490041,2.1337890625
,82.5254069,2.1142578125
,82.5460205,2.099609375
,82.5465725,2.080078125
,82.5973154,2.0703125
,82.5976777,2.05078125
,82.6197453,2.03125
,82.6326107,2.01171875
,82.6681612,1.9873046875
,82.6708269,1.962890625
,82.7057636,1.9384765625
,82.7277128,1.9189453125
,82.7280708,1.8994140625
,82.7639987,1.884765625
,82.7847468,1.8701171875
,82.7895877,1.85546875
,82.825398,1.845703125
,82.8467779,1.8408203125
,82.8524999,1.8310546875
,82.8966413,1.826171875
,82.8970482,1.81640625
,82.9099813,1.8115234375
,82.944688,1.8017578125
,82.9515677,1.796875
,82.9727428,1.8017578125
,83.0204197,1.845703125
,83.0210214,1.9189453125
,83.0319671,2.0166015625
,83.0503902,2.099609375
,83.0997471,2.177734375
,83.1002772,2.2412109375
,83.111584,2.28515625
,83.1452023,2.3193359375
,83.15091,2.34375
,83.185345,2.3583984375
,83.2062256,2.3681640625
,83.2113479,2.36328125
,83.2478098,2.3486328125
,83.2765424,2.3193359375
,83.2769056,2.2802734375
,83.2916034,2.24609375
,83.3255445,2.2119140625
,83.345659,2.1826171875
,83.3534649,2.1630859375
,83.3893891,2.1435546875
,83.3924449,2.1240234375
,83.4264865,2.1044921875
,83.446305,2.0849609375
,83.4492398,2.060546875
,83.4862937,2.041015625
,83.4910124,2.021484375
,83.5277491,1.9970703125
,83.5513779,1.9775390625
,83.5517409,1.9580078125
,83.5887932,1.9384765625
,83.5940765,1.9189453125
,83.6096787,1.904296875
,83.658777,1.89453125
,83.6591379,1.884765625
,83.6803156,1.8798828125
,83.6930571,1.8701171875
,83.712977,1.865234375
,83.7525221,1.85546875
,83.7528926,1.8505859375
,83.7751351,1.8359375
,83.7909519,1.8310546875
,83.826901,1.8408203125
,83.8322981,1.8896484375
,83.8694829,1.97265625
,83.8700908,2.0556640625
,83.9105863,2.138671875
,83.9111904,2.2021484375
,83.9574745,2.255859375
,83.9580644,2.2900390625
,83.9872868,2.3193359375
,83.9917466,2.3388671875
,84.0337651,2.353515625
,84.0341346,2.3583984375
,84.067719,2.3486328125
,84.0724452,2.32421875
,84.111269,2.294921875
,84.1116572,2.255859375
,84.1590082,2.216796875
,84.1593778,2.1826171875
,84.1805096,2.158203125
,84.1918201,2.138671875
,84.2279044,2.119140625
,84.2327992,2.099609375
,84.2538875,2.0751953125
,84.2976276,2.0556640625
,84.2979912,2.03125
,84.3147104,2.0068359375
,84.3322338,1.982421875
,84.3660256,1.962890625
,84.3711999,1.9384765625
,84.4213657,1.9189453125
,84.4217265,1.89453125
,84.442902,1.875
,84.4550832,1.85546875
,84.4743885,1.8408203125
,84.5100175,1.8310546875
,84.5305958,1.81640625
,84.530995,1.806640625
,84.5670256,1.7919921875
,84.5720443,1.7724609375
,84.609175,1.7626953125
,84.612753,1.7724609375
,84.6488862,1.8212890625
,84.6550448,1.904296875
,84.6905939,2.0068359375
,84.7112035,2.08984375
,84.7163968,2.16796875
,84.7331411,2.2216796875
,84.7684273,2.265625
,84.7731554,2.294921875
,84.8086329,2.3193359375
,84.8136923,2.3291015625
,84.8487871,2.333984375
,84.8769896,2.3291015625
,84.8775745,2.3095703125
,84.8919692,2.275390625
,84.9273799,2.236328125
,84.9326458,2.2021484375
,84.9671587,2.16796875
,84.9878388,2.138671875
,84.9935267,2.1142578125
,85.0317415,2.099609375
,85.0345679,2.0751953125
,85.0701714,2.060546875
,85.0907043,2.0361328125
,85.0941377,2.0166015625
,85.1287001,1.9921875
,85.1341366,1.9677734375
,85.1684817,1.943359375
,85.173163,1.923828125
,85.2072827,1.89453125
,85.2280403,1.875
,85.2302249,1.85546875
,85.2631689,1.8408203125
,85.2842619,1.826171875
,85.2943164,1.81640625
,85.3432169,1.8115234375
,85.3438011,1.8017578125
,85.373008,1.7919921875
,85.3733721,1.7822265625
,85.4086889,1.77734375
,85.4287047,1.7626953125
,85.4369603,1.7822265625
,85.453917,1.8310546875
,85.4882369,1.9287109375
,85.4940532,2.0263671875
,85.5290151,2.1240234375
,85.5501429,2.197265625
,85.5551879,2.265625
,85.5765658,2.3046875
,85.6122441,2.34375
,85.6128246,2.36328125
,85.6323489,2.3828125
,85.6691806,2.392578125
,85.7013033,2.3876953125
,85.7018714,2.36328125
,85.7168317,2.333984375
,85.7528734,2.294921875
,85.7536147,2.2509765625
,85.7957078,2.2119140625
,85.7962902,2.1826171875
,85.8166225,2.1630859375
,85.836703,2.138671875
,85.8547579,2.119140625
,85.9033897,2.099609375
,85.9039723,2.080078125
,85.9238714,2.0556640625
,85.9363394,2.0361328125
,85.9807882,2.01171875
,85.9813709,1.982421875
,86.0020451,1.962890625
,86.01455,1.9384765625
,86.0491696,1.9140625
,86.0699541,1.89453125
,86.077445,1.8798828125
,86.0974834,1.8603515625
,86.1376265,1.8505859375
,86.1379951,1.8408203125
,86.1725099,1.8310546875
,86.1732024,1.826171875
,86.2143985,1.81640625
,86.2150159,1.806640625
,86.2624899,1.796875
,86.2629582,1.7919921875
,86.2759311,1.81640625
,86.3113762,1.884765625
,86.3173654,1.9775390625
,86.3564031,2.0751953125
,86.356762,2.1630859375
,86.3759138,2.2412109375
,86.4109283,2.294921875
,86.4341968,2.34375
,86.4346865,2.373046875
,86.4750306,2.3974609375
,86.490747,2.4072265625
,86.4976456,2.4072265625
,86.5144703,2.3974609375
,86.5529092,2.3779296875
,86.5533099,2.3388671875
,86.5905216,2.294921875
,86.5959536,2.255859375
,86.6328005,2.2216796875
,86.6374629,2.1923828125
,86.6715501,2.1728515625
,86.6914931,2.1533203125
,86.6950035,2.1337890625
,86.7148161,2.119140625
,86.7520364,2.0947265625
,86.7542489,2.0751953125
,86.8026933,2.05078125
,86.8033167,2.0263671875
,86.8352252,2.001953125
,86.8358358,1.9775390625
,86.8703044,1.953125
,86.8923275,1.93359375
,86.8927265,1.9140625
,86.9281895,1.9091796875
,86.9486319,1.8994140625
,86.9591986,1.8896484375
,86.9771188,1.884765625
,87.0134209,1.8798828125
,87.0163569,1.875
,87.0527661,1.8603515625
,87.073571,1.8505859375
,87.0740436,1.8408203125
,87.1190697,1.85546875
,87.119651,1.9091796875
,87.1486925,1.9921875
,87.1559635,2.080078125
,87.1940105,2.16796875
,87.1961722,2.236328125
,87.2330509,2.2900390625
,87.2545827,2.333984375
,87.2551348,2.36328125
,87.2911694,2.3828125
,87.295883,2.392578125
,87.3322563,2.3974609375
,87.3525381,2.3876953125
,87.3581108,2.3583984375
,87.393406,2.32421875
,87.3982311,2.28515625
,87.4163436,2.24609375
,87.460357,2.216796875
,87.4607252,2.1923828125
,87.474972,2.177734375
,87.5227167,2.158203125
,87.5234185,2.1337890625
,87.5374961,2.1142578125
,87.5854724,2.0849609375
,87.5859405,2.060546875
,87.599601,2.0361328125
,87.6477534,2.01171875
,87.648156,1.9873046875
,87.6575748,1.9677734375
,87.7093142,1.9482421875
,87.7097943,1.923828125
,87.7182025,1.904296875
,87.7523602,1.8896484375
,87.7721621,1.875
,87.7807969,1.8603515625
,87.7973494,1.845703125
,87.8321576,1.8359375
,87.837315,1.81640625
,87.8833677,1.8017578125
,87.8839569,1.7919921875
,87.897813,1.806640625
,87.9315608,1.8603515625
,87.9527366,1.9482421875
,87.9597774,2.05078125
,87.9763282,2.1337890625
,88.0221987,2.20703125
,88.0225646,2.2607421875
,88.0431745,2.3046875
,88.0579056,2.333984375
,88.0930184,2.353515625
,88.1136285,2.36328125
,88.1194554,2.36328125
,88.1357552,2.3486328125
,88.171877,2.3291015625
,88.1773807,2.2900390625
,88.2226743,2.2509765625
,88.2230852,2.2119140625
,88.2367332,2.1826171875
,88.2855276,2.158203125
,88.2859279,2.1337890625
,88.3074239,2.1142578125
,88.3219204,2.0947265625
,88.3411932,2.0703125
,88.3580793,2.05078125
,88.3943819,2.0263671875
,88.3984823,2.0068359375
,88.4330756,1.982421875
,88.4529948,1.9580078125
,88.4584084,1.9384765625
,88.506901,1.9140625
,88.5072629,1.89453125
,88.5277966,1.8798828125
,88.5380072,1.8603515625
,88.5854039,1.8505859375
,88.5857766,1.8359375
,88.59932,1.8310546875
,88.6337728,1.8212890625
,88.6550606,1.81640625
,88.6600652,1.8017578125
,88.6965938,1.7919921875
,88.7267954,1.787109375
,88.7272047,1.81640625
,88.7398206,1.884765625
,88.7580068,1.9873046875
,88.7927727,2.0849609375
,88.8139521,2.177734375
,88.819844,2.2509765625
,88.8568243,2.3095703125
,88.8598752,2.353515625
,88.8768623,2.3828125
,88.9118611,2.412109375
,88.9326276,2.4267578125
,88.9375176,2.431640625
,88.9733059,2.4267578125
,88.9939542,2.4072265625
,89.0001322,2.373046875
,89.0357143,2.3291015625
,89.0559978,2.28515625
,89.0617742,2.24609375
,89.0788404,2.2216796875
,89.1137642,2.197265625
,89.1195864,2.177734375
,89.1623861,2.158203125
,89.1628383,2.1337890625
,89.1790351,2.109375
,89.2167576,2.080078125
,89.2212136,2.0556640625
,89.2564549,2.0263671875
,89.2570346,1.9970703125
,89.2899693,1.9775390625
,89.3120291,1.9482421875
,89.3213964,1.9287109375
,89.3567159,1.904296875
,89.3592235,1.884765625
,89.397482,1.865234375
,89.4004088,1.85546875
,89.4179983,1.8408203125
,89.4537429,1.8310546875
,89.4591242,1.8212890625
,89.4800508,1.81640625
,89.5141476,1.806640625
,89.5201294,1.7919921875
,89.5546882,1.787109375
,89.5768634,1.8115234375
,89.5824177,1.8798828125
,89.5978443,1.97265625
,89.6481181,2.080078125
,89.6487536,2.1728515625
,89.676939,2.2509765625
,89.6804541,2.3046875
,89.7240755,2.353515625
,89.7247316,2.3828125
,89.7409335,2.412109375
,89.7779094,2.421875
,89.7830489,2.4267578125
,89.819155,2.4267578125
,89.8195127,2.40234375
,89.8536733,2.3681640625
,89.8745225,2.3291015625
,89.8808382,2.2900390625
,89.9161965,2.2509765625
,89.9213785,2.2216796875
,89.9572029,2.197265625
,89.9629529,2.177734375
,89.9814208,2.1533203125
,90.015393,2.1337890625
,90.0206284,2.109375
,90.0566503,2.0849609375
,90.0607613,2.060546875
,90.0959262,2.03125
,90.1020352,2.0068359375
,90.139213,1.9775390625
,90.141988,1.953125
,90.1611456,1.9287109375
,90.1803325,1.9091796875
,90.2152595,1.8896484375
,90.2359191,1.875
,90.2415616,1.8603515625
,90.2627457,1.8505859375
,90.2840189,1.8408203125
,90.3184194,1.8359375
,90.318895,1.826171875
,90.3657943,1.8212890625
,90.3662543,1.806640625
,90.3808749,1.796875
,90.4275517,1.7919921875
,90.4282429,1.8212890625
,90.4420454,1.89453125
,90.4917556,1.9873046875
,90.4923411,2.0947265625
,90.5024625,2.1826171875
,90.5411375,2.2607421875
,90.5415955,2.314453125
,90.5842135,2.3681640625
,90.5845836,2.3974609375
,90.6032629,2.421875
,90.6389767,2.431640625
,90.6422801,2.44140625
,90.6809342,2.4267578125
,90.6815159,2.40234375
,90.7001154,2.36328125
,90.7353762,2.3193359375
,90.7405088,2.2802734375
,90.7765145,2.2509765625
,90.7817186,2.2265625
,90.8161993,2.2021484375
,90.8367918,2.1826171875
,90.8420194,2.1630859375
,90.8832752,2.138671875
,90.8838688,2.1142578125
,90.9018139,2.08984375
,90.9367311,2.0654296875
,90.9411374,2.041015625
,90.9772782,2.0166015625
,90.9830375,1.9921875
,91.0202872,1.9677734375
,91.0231774,1.9482421875
,91.0414161,1.9287109375
,91.0821332,1.9189453125
,91.0826473,1.904296875
,91.1012072,1.8896484375
,91.1381988,1.8798828125
,91.1410715,1.865234375
,91.1759929,1.85546875
,91.2056345,1.8359375
,91.2060341,1.81640625
,91.2523665,1.8017578125
,91.2527348,1.8115234375
,91.2619975,1.85546875
,91.2964109,1.9482421875
,91.3022662,2.041015625
,91.3230377,2.138671875
,91.357409,2.2119140625
,91.3787276,2.275390625
,91.3837382,2.3193359375
,91.4240937,2.353515625
,91.4244574,2.3779296875
,91.4448109,2.392578125
,91.4614472,2.3974609375
,91.4971119,2.3876953125
,91.516842,2.36328125
,91.5233429,2.32421875
,91.5588757,2.2802734375
,91.5805996,2.236328125
,91.5850889,2.2021484375
,91.6013467,2.177734375
,91.6363019,2.1533203125
,91.6586722,2.1337890625
,91.6632864,2.109375
,91.7025245,2.0849609375
,91.7029009,2.060546875
,91.7386509,2.03125
,91.7582382,2.001953125
,91.7659238,1.97265625
,91.7804372,1.943359375
,91.8286268,1.9189453125
,91.8292531,1.89453125
,91.8490728,1.8701171875
,91.8644321,1.845703125
,91.8834837,1.826171875
,91.9217479,1.806640625
,91.924329,1.7919921875
,91.9620598,1.77734375
,91.9650577,1.767578125
,91.9822626,1.7529296875
,92.0173983,1.7431640625
,92.0234559,1.728515625
,92.0606312,1.7236328125
,92.0632247,1.7431640625
,92.0828084,1.796875
,92.1178834,1.904296875
,92.1389198,2.01171875
,92.143478,2.1240234375
,92.1617203,2.2119140625
,92.2028003,2.2900390625
,92.2033817,2.34375
,92.2243253,2.3876953125
,92.2457869,2.4169921875
,92.2648552,2.431640625
,92.3123195,2.44140625
,92.3131632,2.4365234375
,92.3201692,2.4169921875
,92.3568341,2.3828125
,92.3893075,2.34375
,92.3898941,2.2998046875
,92.4050539,2.2607421875
,92.4400375,2.2265625
,92.4441632,2.2021484375
,92.4781266,2.177734375
,92.499664,2.1533203125
,92.5002249,2.12890625
,92.5450986,2.109375
,92.545507,2.0849609375
,92.5915245,2.0556640625
,92.592206,2.0263671875
,92.6034333,1.9970703125
,92.6544107,1.9677734375
,92.6547799,1.9384765625
,92.6838895,1.9140625
,92.6844719,1.8896484375
,92.7233197,1.865234375
,92.7237677,1.8505859375
,92.7607599,1.8359375
,92.761596,1.8212890625
,92.7996687,1.8115234375
,92.8204894,1.806640625
,92.8252141,1.796875
,92.8588397,1.787109375
,92.8791212,1.7724609375
,92.8848863,1.7578125
,92.9208157,1.7626953125
,92.9257291,1.796875
,92.9449542,1.8798828125
,92.9799868,1.982421875
,92.999764,2.0947265625
,93.0060667,2.197265625
,93.0425034,2.2705078125
,93.0455406,2.333984375
,93.064954,2.3828125
,93.0838944,2.4267578125
,93.1184919,2.451171875
,93.1233005,2.470703125
,93.158241,2.470703125
,93.1774971,2.4609375
,93.1848608,2.431640625
,93.220531,2.3974609375
,93.2410281,2.353515625
,93.2428317,2.3095703125
,93.2761582,2.275390625
,93.2979151,2.2412109375
,93.3044157,2.2119140625
,93.3396507,2.1923828125
,93.3609207,2.16796875
,93.367362,2.138671875
,93.3873103,2.1142578125
,93.4319578,2.0849609375
,93.4323271,2.0556640625
,93.4533836,2.0263671875
,93.465005,1.9970703125
,93.5003051,1.97265625
,93.5051891,1.943359375
,93.5438307,1.9189453125
,93.5444154,1.89453125
,93.580345,1.8701171875
,93.6014607,1.8505859375
,93.6019863,1.8359375
,93.6510983,1.826171875
,93.6514918,1.81640625
,93.6720129,1.806640625
,93.6864609,1.796875
,93.7216317,1.787109375
,93.7265257,1.77734375
,93.7603654,1.767578125
,93.780651,1.7724609375
,93.7811756,1.8017578125
,93.8219832,1.884765625
,93.844421,1.9873046875
,93.84493,2.1044921875
,93.8848277,2.197265625
,93.8851889,2.2802734375
,93.9059976,2.3388671875
,93.9469197,2.392578125
,93.9472917,2.4267578125
,93.962771,2.4609375
,94.0103669,2.48046875
,94.0109516,2.4853515625
,94.040283,2.4755859375
,94.0481799,2.451171875
,94.0674656,2.412109375
,94.1183338,2.3681640625
,94.1186933,2.3291015625
,94.1280953,2.2998046875
,94.1486334,2.2705078125
,94.1660299,2.24609375
,94.2104092,2.2265625
,94.2107763,2.20703125
,94.2269358,2.1875
,94.2451317,2.16796875
,94.2811734,2.138671875
,94.3041849,2.1142578125
,94.3068438,2.0849609375
,94.3523695,2.0556640625
,94.3529695,2.03125
,94.3736139,2.0166015625
,94.3858127,1.9921875
,94.4225798,1.97265625
,94.4275094,1.953125
,94.4641465,1.93359375
,94.4686606,1.9189453125
,94.5056988,1.9091796875
,94.5061644,1.89453125
,94.5445273,1.884765625
,94.5451172,1.875
,94.5804889,1.865234375
,94.601088,1.8505859375
,94.6073206,1.8408203125
,94.6429427,1.8505859375
,94.64871,1.89453125
,94.6989398,1.982421875
,94.6994052,2.0703125
,94.7065586,2.1630859375
,94.7256381,2.236328125
,94.7619684,2.2998046875
,94.7667209,2.3486328125
,94.8018628,2.3876953125
,94.8080971,2.412109375
,94.8425813,2.4267578125
,94.8630946,2.4365234375
,94.8682308,2.4365234375
,94.8864787,2.412109375
,94.935114,2.3876953125
,94.9356968,2.3486328125
,94.9653886,2.314453125
,94.9659378,2.2802734375
,95.0019721,2.255859375
,95.0267869,2.236328125
,95.0272304,2.2119140625
,95.0631892,2.1875
,95.0842402,2.1630859375
,95.0873219,2.138671875
,95.1072222,2.1142578125
,95.1283434,2.08984375
,95.1665293,2.060546875
,95.1668986,2.0361328125
,95.2004689,2.0068359375
,95.220257,1.982421875
,95.2265122,1.9580078125
,95.2627672,1.9384765625
,95.2672452,1.9189453125
,95.2882586,1.8994140625
,95.3073703,1.8896484375
,95.3536744,1.875
,95.3546262,1.8603515625
,95.3698232,1.845703125
,95.4038427,1.8310546875
,95.4066718,1.8115234375
,95.4281541,1.8017578125
,95.4636724,1.8115234375
,95.4659278,1.85546875
,95.5027283,1.93359375
,95.5080588,2.03125
,95.5448011,2.109375
,95.549908,2.1875
,95.5844977,2.2509765625
,95.5899248,2.2900390625
,95.6345248,2.3291015625
,95.6351113,2.353515625
,95.6552061,2.373046875
,95.6700573,2.3828125
,95.6880949,2.3828125
,95.7281455,2.3681640625
,95.7285187,2.3388671875
,95.7653379,2.2998046875
,95.7699774,2.2607421875
,95.7868662,2.2265625
,95.8220647,2.2021484375
,95.8272106,2.1826171875
,95.8642503,2.1630859375
,95.8702497,2.1435546875
,95.9161241,2.1240234375
,95.9165913,2.099609375
,95.9296615,2.0751953125
,95.9638953,2.05078125
,95.9851015,2.021484375
,95.9857345,1.9970703125
,96.0239515,1.97265625
,96.0435325,1.953125
,96.0503614,1.9287109375
,96.0863136,1.904296875
,96.0890157,1.884765625
,96.1233174,1.8701171875
,96.1435322,1.85546875
,96.1464674,1.845703125
,96.183874,1.8359375
,96.1878464,1.8310546875
,96.2208499,1.8212890625
,96.2429141,1.806640625
,96.2502541,1.796875
,96.2716389,1.7919921875
,96.3176027,1.826171875
,96.3179311,1.8896484375
,96.33238,1.9873046875
,96.3492619,2.080078125
,96.3836916,2.16796875
,96.3899403,2.2314453125
,96.4272727,2.2900390625
,96.4277861,2.3291015625
,96.4618046,2.36328125
,96.4826875,2.3876953125
,96.4925522,2.40234375
,96.507827,2.4072265625
,96.5524876,2.4072265625
,96.5530375,2.3876953125
,96.5737224,2.3583984375
,96.5878226,2.32421875
,96.6313543,2.2900390625
,96.6317175,2.255859375
,96.652293,2.2314453125
,96.6712711,2.20703125
,96.6885585,2.1875
,96.7094206,2.16796875
,96.7429365,2.1484375
,96.7644114,2.1240234375
,96.7698743,2.099609375
,96.7890519,2.0751953125
,96.8319129,2.0458984375
,96.8323361,2.021484375
,96.8521977,1.9921875
,96.8688543,1.9677734375
,96.905022,1.943359375
,96.9080387,1.9091796875
,96.955231,1.89453125
,96.9555914,1.8798828125
,96.9764791,1.8701171875
,96.9892308,1.85546875
,97.0267861,1.845703125
,97.0483786,1.8359375
,97.0515241,1.826171875
,97.0667766,1.8115234375
,97.1128042,1.796875
,97.1132235,1.7919921875
,97.143441,1.81640625
,97.1500832,1.875
,97.1891682,1.9677734375
,97.1897625,2.0703125
,97.2253124,2.1484375
,97.2466519,2.2216796875
,97.2472801,2.275390625
,97.2829954,2.32421875
,97.3034872,2.3583984375
,97.311585,2.3876953125
,97.3478109,2.4072265625
,97.3532031,2.421875
,97.3893248,2.421875
,97.3930462,2.40234375
,97.4093376,2.3779296875
,97.4560061,2.34375
,97.4565891,2.3095703125
,97.4697395,2.275390625
,97.505699,2.2509765625
,97.5356319,2.2314453125
,97.5360451,2.2119140625
,97.5539592,2.1923828125
,97.5739003,2.1728515625
,97.5907144,2.1484375
,97.6257387,2.12890625
,97.6299329,2.08984375
,97.6652429,2.0703125
,97.6924591,2.0458984375
,97.6930434,2.0263671875
,97.7116038,2.001953125
,97.7513022,1.982421875
,97.7516608,1.962890625
,97.7866407,1.943359375
,97.8074558,1.9287109375
,97.8122032,1.9189453125
,97.8324174,1.9091796875
,97.8510263,1.8994140625
,97.8865858,1.8896484375
,97.9072012,1.8798828125
,97.9124665,1.8701171875
,97.9570431,1.85546875
,97.9574056,1.845703125
,97.9767604,1.85546875
,97.9901146,1.8994140625
,98.0260294,1.97265625
,98.0530686,2.060546875
,98.0536653,2.138671875
,98.0898587,2.2119140625
,98.0945946,2.2705078125
,98.112772,2.3193359375
,98.1479721,2.3583984375
,98.1525228,2.3876953125
,98.1710846,2.412109375
,98.2062779,2.421875
,98.2280969,2.4267578125
,98.232506,2.412109375
,98.2522757,2.3828125
,98.2867764,2.3486328125
,98.3079731,2.3095703125
,98.3102298,2.2802734375
,98.3463361,2.255859375
,98.3488653,2.2216796875
,98.3867363,2.20703125
,98.3921525,2.1875
,98.4132278,2.16796875
,98.4477582,2.1435546875
,98.4684139,2.1240234375
,98.4737545,2.1044921875
,98.5093814,2.0849609375
,98.5147824,2.060546875
,98.5310496,2.041015625
,98.5673029,2.021484375
,98.571613,2.0068359375
,98.6068721,1.9873046875
,98.6269071,1.97265625
,98.6323754,1.9580078125
,98.6771739,1.943359375
,98.6775363,1.93359375
,98.6918157,1.9189453125
,98.7408138,1.9091796875
,98.7412827,1.8994140625
,98.7516096,1.884765625
,98.7873624,1.8798828125
,98.7929608,1.89453125
,98.8285793,1.943359375
,98.8340056,2.0166015625
,98.8812971,2.099609375
,98.8818762,2.16796875
,98.892236,2.236328125
,98.9261268,2.28515625
,98.9466641,2.32421875
,98.9535979,2.353515625
,98.9895918,2.3779296875
,99.021118,2.3876953125
,99.0215936,2.392578125
,99.029754,2.3828125
,99.0677611,2.3583984375
,99.0870636,2.314453125
,99.0920453,2.28515625
,99.1294369,2.2509765625
,99.1327905,2.2265625
,99.1689164,2.2021484375
,99.1746328,2.1826171875
,99.2240187,2.158203125
,99.2243853,2.1435546875
,99.2350472,2.1240234375
,99.2514603,2.1044921875
,99.2889663,2.0849609375
,99.2936091,2.060546875
,99.3357092,2.0361328125
,99.3362873,2.0166015625
,99.3553536,1.9970703125
,99.3980738,1.9775390625
