Time,PPG_Signal
0.4016974,1.1865234375
0.4019997,1.1962890625
0.4174857,1.2060546875
0.4608322,1.1962890625
0.461185,1.1962890625
0.4793635,1.1962890625
0.5123839,1.2158203125
0.518939,1.240234375
0.5642821,1.2890625
0.5645968,1.3330078125
0.5856916,1.38671875
0.5965841,1.42578125
0.6169167,1.455078125
0.6533863,1.4697265625
0.6574278,1.4794921875
0.6996241,1.474609375
0.6999017,1.4599609375
0.7213303,1.4404296875
0.7391585,1.4111328125
0.7599695,1.357421875
0.7781249,1.318359375
0.8246769,1.3232421875
0.8249261,1.318359375
0.8382753,1.3134765625
0.8733376,1.3037109375
0.8795595,1.2939453125
0.8986897,1.2744140625
0.9346542,1.2646484375
0.9549618,1.25
0.9552068,1.240234375
0.9887329,1.2255859375
1.0101539,1.2158203125
1.0168963,1.201171875
1.0522641,1.1962890625
1.0711315,1.19140625
1.0799791,1.181640625
1.1265817,1.181640625
1.1309198,1.181640625
1.1385389,1.181640625
1.1746824,1.1767578125
1.1771492,1.1767578125
1.2221616,1.171875
1.2225001,1.171875
1.2508444,1.181640625
1.2594669,1.2060546875
1.2770398,1.2548828125
1.3139916,1.3232421875
1.3159581,1.3818359375
1.3498531,1.4306640625
1.3690804,1.474609375
1.377435,1.494140625
1.4116633,1.5087890625
1.4388332,1.5087890625
1.4390834,1.50390625
1.4573422,1.4794921875
1.5000945,1.4599609375
1.5006328,1.435546875
1.5180798,1.4111328125
1.5538662,1.38671875
1.5788394,1.3720703125
1.5790915,1.34765625
1.613887,1.337890625
1.6410601,1.318359375
1.6413502,1.298828125
1.6570923,1.279296875
1.6932312,1.26953125
1.698457,1.259765625
1.7276354,1.2451171875
1.739828,1.23046875
1.7895958,1.2109375
1.7900209,1.1962890625
1.8015511,1.181640625
1.8229902,1.1767578125
1.8382412,1.1767578125
1.8733127,1.181640625
1.8774959,1.181640625
1.9120974,1.1767578125
1.9327669,1.171875
1.9400055,1.171875
1.9768924,1.162109375
1.9811915,1.162109375
2.0227213,1.181640625
2.023382,1.2158203125
2.0370011,1.26953125
2.0726156,1.318359375
2.0980714,1.3720703125
2.100099,1.4111328125
2.1333964,1.4453125
2.1609911,1.4599609375
2.1612472,1.474609375
2.1771442,1.4697265625
2.2142984,1.4697265625
2.2202079,1.4501953125
2.2558629,1.4306640625
2.2600765,1.4013671875
2.2962204,1.3720703125
2.2988176,1.34765625
2.343041,1.337890625
2.3434567,1.3232421875
2.3593649,1.3037109375
2.3825344,1.2939453125
2.3993903,1.2451171875
2.4192946,1.240234375
2.4488015,1.2353515625
2.4614578,1.2255859375
2.5078103,1.2109375
2.5080923,1.201171875
2.5228793,1.181640625
2.5419616,1.1669921875
2.558483,1.15234375
2.5962225,1.1474609375
2.6166644,1.142578125
2.6198864,1.142578125
2.6560981,1.15234375
2.6614066,1.1474609375
2.6962342,1.1474609375
2.7230745,1.1376953125
2.7234756,1.1328125
2.7381994,1.1279296875
2.772028,1.1376953125
2.7935837,1.162109375
2.7987293,1.201171875
2.8461767,1.2451171875
2.8465809,1.3037109375
2.8674033,1.3427734375
2.8805419,1.3818359375
2.9149501,1.4013671875
2.9198718,1.4208984375
2.9399305,1.4306640625
2.987581,1.435546875
2.9879101,1.4208984375
3.0003348,1.4013671875
3.0358308,1.3818359375
3.0433279,1.357421875
3.0628476,1.337890625
3.0781555,1.3134765625
3.1413094,1.30859375
3.1416514,1.2939453125
3.1460119,1.2841796875
3.1596498,1.26953125
3.2044609,1.2548828125
3.2048597,1.2353515625
3.2246507,1.23046875
3.2571015,1.2109375
3.2621512,1.1962890625
3.2965313,1.181640625
3.3276435,1.1669921875
3.3279857,1.1572265625
3.3401304,1.1572265625
3.3757334,1.1572265625
3.4053465,1.15234375
3.4057547,1.15234375
3.4385931,1.142578125
3.4425027,1.1376953125
3.4594802,1.1328125
3.4982282,1.1328125
3.5004731,1.1328125
3.5415865,1.1328125
3.5589086,1.1376953125
3.5609417,1.162109375
3.6065521,1.1962890625
3.6068863,1.25
3.6350987,1.298828125
3.6395811,1.337890625
3.6816391,1.376953125
3.6820323,1.4013671875
3.7022919,1.4111328125
3.7338732,1.416015625
3.7603985,1.416015625
3.7606462,1.4013671875
3.796607,1.3818359375
3.8232381,1.3623046875
3.8234915,1.34765625
3.8404809,1.3330078125
3.8805009,1.328125
3.9147823,1.318359375
3.9151337,1.30859375
3.9232781,1.298828125
3.9604265,1.2841796875
3.9606706,1.26953125
3.9830273,1.25
4.0091319,1.2451171875
4.0187834,1.2255859375
4.0556032,1.220703125
4.0770613,1.2060546875
4.0813801,1.1962890625
4.1246372,1.181640625
4.1249248,1.1767578125
4.1455004,1.1669921875
4.1810698,1.1572265625
4.1814144,1.1474609375
4.2192175,1.1474609375
4.2195777,1.1376953125
4.2641986,1.142578125
4.2644832,1.1376953125
4.2843866,1.1328125
4.3197646,1.1279296875
4.3220509,1.1279296875
4.3513264,1.1474609375
4.3588213,1.181640625
4.3948706,1.2353515625
4.4149645,1.2841796875
4.4235484,1.328125
4.4424069,1.357421875
4.4781255,1.376953125
4.4831362,1.3818359375
4.5247703,1.38671875
4.5251303,1.3818359375
4.5534173,1.3671875
4.5596133,1.3623046875
4.5961361,1.3427734375
4.6305632,1.328125
4.6308205,1.3134765625
4.642835,1.30859375
4.6902675,1.2939453125
4.6906356,1.2890625
4.7005342,1.2744140625
4.7656805,1.2744140625
4.7659911,1.2646484375
4.7709011,1.259765625
4.7821193,1.25
4.8299101,1.2353515625
4.8302303,1.2255859375
4.8651048,1.2158203125
4.8697983,1.201171875
4.8840716,1.171875
4.9282392,1.171875
4.9285995,1.1669921875
4.9484802,1.1669921875
4.9632076,1.1669921875
4.9972363,1.1669921875
5.0174476,1.162109375
5.0232939,1.162109375
5.0552942,1.1572265625
5.0835989,1.15234375
5.0841324,1.162109375
5.1024464,1.1865234375
5.1479785,1.23046875
5.1482327,1.2890625
5.1631367,1.3330078125
5.2095247,1.3720703125
5.2101569,1.40625
5.2261204,1.416015625
5.2479445,1.42578125
5.2719863,1.4208984375
5.282215,1.4208984375
5.3178494,1.40625
5.3218703,1.3916015625
5.3546489,1.3720703125
5.3746935,1.3525390625
5.384378,1.3427734375
5.4197381,1.3427734375
5.4435972,1.328125
5.4439441,1.328125
5.4624343,1.3232421875
5.4979181,1.328125
5.5184456,1.3232421875
5.5235285,1.3232421875
5.5669953,1.3134765625
5.5672581,1.298828125
5.5955857,1.2890625
5.599707,1.26953125
5.6347354,1.259765625
5.6573496,1.25
5.6613667,1.2451171875
5.7006894,1.2353515625
5.7167675,1.23046875
5.7234932,1.220703125
5.7626125,1.2109375
5.7923272,1.201171875
5.7927433,1.201171875
5.8029579,1.1865234375
5.8399948,1.1865234375
5.8444106,1.19140625
5.8661211,1.201171875
5.8834382,1.2255859375
5.9304395,1.26953125
5.9307645,1.328125
5.9596762,1.3720703125
5.9646348,1.4111328125
6.0014846,1.435546875
6.0063606,1.455078125
6.0242844,1.4599609375
6.069698,1.46484375
6.0701236,1.455078125
6.0850876,1.4404296875
6.105844,1.4208984375
6.1407161,1.4013671875
6.1413308,1.38671875
6.1792428,1.38671875
6.1832938,1.3818359375
6.219305,1.3720703125
6.2234444,1.3623046875
6.2567215,1.34765625
6.2762045,1.337890625
6.2858817,1.3232421875
6.3199165,1.3134765625
6.3395019,1.2939453125
6.3414681,1.2841796875
6.3742587,1.26953125
6.3941584,1.259765625
6.4046965,1.2451171875
6.4413319,1.2451171875
6.4733514,1.2353515625
6.4735979,1.23046875
6.486603,1.2255859375
6.5077177,1.2109375
6.5267051,1.1767578125
6.5449528,1.171875
6.5805817,1.1767578125
6.582766,1.1767578125
6.6252771,1.1767578125
6.6255861,1.171875
6.6558495,1.1767578125
6.6771617,1.19140625
6.6863672,1.2353515625
6.7031171,1.2744140625
6.7253891,1.328125
6.7699915,1.376953125
6.7704031,1.416015625
6.8153184,1.4404296875
6.8156604,1.46484375
6.8268886,1.474609375
6.8613366,1.4697265625
6.8659468,1.455078125
6.8981688,1.435546875
6.9030919,1.4208984375
6.9381693,1.40625
6.9699529,1.3916015625
6.9703614,1.376953125
6.9858584,1.3671875
7.0354555,1.3525390625
7.0357534,1.337890625
7.0532402,1.3232421875
7.0641502,1.3134765625
7.1110381,1.298828125
7.1116182,1.2890625
7.1239481,1.279296875
7.1579307,1.2548828125
7.1883216,1.240234375
7.1887643,1.220703125
7.2078604,1.2060546875
7.2230578,1.1767578125
7.2573594,1.1669921875
7.2789701,1.15234375
7.2865868,1.1474609375
7.3282844,1.1376953125
7.328554,1.1376953125
7.3620445,1.1279296875
7.3663361,1.1279296875
7.4017661,1.1181640625
7.421428,1.1181640625
7.4255168,1.1181640625
7.4667533,1.15234375
7.4670142,1.181640625
7.5006961,1.220703125
7.5068101,1.2744140625
7.5467067,1.3232421875
7.5471067,1.3671875
7.5820828,1.396484375
7.6020094,1.4208984375
7.6041235,1.4306640625
7.6416633,1.4404296875
7.645612,1.435546875
7.6807016,1.42578125
7.7011027,1.40625
7.7061878,1.396484375
7.7425726,1.376953125
7.7464928,1.3623046875
7.7798324,1.34765625
7.7997846,1.3330078125
7.8043651,1.3232421875
7.8378273,1.3134765625
7.8595084,1.30859375
7.8660072,1.2939453125
7.8993869,1.2841796875
7.9194519,1.26953125
7.9275853,1.2548828125
7.9615902,1.240234375
7.9660143,1.2353515625
8.0008827,1.2255859375
8.0060532,1.220703125
8.0387842,1.2109375
8.0589702,1.201171875
8.0674555,1.1962890625
8.1006668,1.19140625
8.1203051,1.19140625
8.1268387,1.19140625
8.1609585,1.1572265625
8.179646,1.15234375
8.1854977,1.15234375
8.2219005,1.162109375
8.2546187,1.19140625
8.2552071,1.23046875
8.2665843,1.2841796875
8.3008446,1.337890625
8.3218259,1.38671875
8.3242931,1.416015625
8.3595032,1.4453125
8.3806439,1.4599609375
8.3853165,1.4697265625
8.4215982,1.4697265625
8.4259285,1.4501953125
8.4655101,1.4306640625
8.4659403,1.4111328125
8.5035338,1.396484375
8.5039481,1.3818359375
8.5498408,1.3671875
8.5501652,1.357421875
8.5698116,1.34765625
8.5861211,1.3330078125
8.6210564,1.328125
8.641854,1.30859375
8.6491563,1.2939453125
8.6657058,1.279296875
8.7153759,1.26953125
8.7156265,1.259765625
8.7254469,1.25
8.7587627,1.240234375
8.7791471,1.2255859375
8.7882116,1.2109375
8.8269712,1.1962890625
8.8478703,1.19140625
8.8482409,1.181640625
8.8666949,1.181640625
8.9095497,1.181640625
8.9142385,1.1767578125
8.9285685,1.171875
8.9482639,1.1669921875
8.9835233,1.1572265625
8.9875631,1.171875
9.0202126,1.19140625
9.0445264,1.240234375
9.0520709,1.3037109375
9.0677685,1.357421875
9.1117136,1.416015625
9.1120221,1.4599609375
9.1271675,1.4990234375
9.1489067,1.5185546875
9.1779359,1.5283203125
9.1912083,1.5283203125
9.2382618,1.5185546875
9.2386763,1.494140625
9.246857,1.4794921875
9.2804496,1.455078125
9.3149702,1.435546875
9.3152145,1.416015625
9.3303847,1.4013671875
9.3776504,1.376953125
9.3782142,1.3623046875
9.3892119,1.34765625
9.4071843,1.328125
9.4552911,1.3134765625
9.4555379,1.298828125
9.4683661,1.279296875
9.503362,1.26953125
9.5072477,1.259765625
9.5445741,1.25
9.5514868,1.240234375
9.5661111,1.2255859375
9.6080509,1.2158203125
9.6082949,1.2109375
9.6283223,1.2109375
9.6613885,1.1962890625
9.6824447,1.19140625
9.689449,1.1865234375
9.7228209,1.1767578125
9.7470132,1.171875
9.7516489,1.162109375
9.7704625,1.142578125
9.7878307,1.1376953125
9.8167175,1.201171875
9.8296275,1.2646484375
9.8665658,1.3330078125
9.8668858,1.3916015625
9.9015389,1.4453125
9.9266022,1.474609375
9.9292124,1.50390625
9.9471188,1.5087890625
9.9689341,1.5185546875
10.0041276,1.50390625
10.0088565,1.494140625
10.0281957,1.474609375
10.0642863,1.4501953125
10.0932925,1.42578125
10.0939072,1.40625
10.1115249,1.38671875
10.1361074,1.3671875
10.1492389,1.3525390625
10.1977925,1.337890625
10.1981559,1.318359375
10.2079641,1.3037109375
10.243708,1.2890625
10.2651761,1.26953125
10.2702746,1.25
10.2862246,1.2353515625
10.3220741,1.220703125
10.3408301,1.2109375
10.3474005,1.1962890625
10.3840685,1.1865234375
10.4146014,1.171875
10.4149415,1.1669921875
10.4310652,1.15234375
10.4754537,1.142578125
10.4758553,1.1279296875
10.4874395,1.1328125
10.5233284,1.1279296875
10.5289516,1.1376953125
10.5635491,1.142578125
10.5842345,1.1572265625
10.5898332,1.19140625
10.6305394,1.2451171875
10.6307877,1.298828125
10.6601172,1.357421875
10.6720115,1.4013671875
10.6890049,1.42578125
10.7367399,1.4501953125
10.736999,1.4599609375
10.7481683,1.46484375
10.7818666,1.4501953125
10.8037675,1.435546875
10.8106132,1.4111328125
10.8570918,1.3916015625
10.8744624,1.3720703125
10.874879,1.357421875
10.8884439,1.34765625
10.9235264,1.337890625
10.9437171,1.3232421875
10.9510485,1.3134765625
10.9858844,1.3037109375
10.9905354,1.2841796875
11.024079,1.26953125
11.0464124,1.2548828125
11.0468249,1.25
11.0814596,1.240234375
11.1014767,1.23046875
11.110703,1.2158203125
11.1452866,1.201171875
11.1498723,1.1865234375
11.1839467,1.181640625
11.2043506,1.1669921875
11.2084896,1.1669921875
11.24321,1.1572265625
11.2627832,1.15234375
11.2706455,1.142578125
11.3047809,1.1474609375
11.3119938,1.1572265625
11.3676441,1.181640625
11.3678995,1.23046875
11.3720694,1.2841796875
11.3926869,1.318359375
11.4102762,1.337890625
11.4295634,1.396484375
11.4642122,1.435546875
11.4860436,1.46484375
11.4902745,1.474609375
11.5111738,1.474609375
11.5481914,1.46484375
11.5528556,1.4599609375
11.5779974,1.4404296875
11.5911755,1.42578125
11.6371833,1.4111328125
11.6375861,1.3916015625
11.6513426,1.376953125
11.699751,1.3623046875
11.7003192,1.34765625
11.7195449,1.328125
11.7322783,1.3134765625
11.751138,1.2939453125
11.7693062,1.279296875
11.805279,1.2646484375
11.809358,1.2548828125
11.8457693,1.240234375
11.8655558,1.2255859375
11.8702321,1.2060546875
11.9072793,1.1962890625
11.9398545,1.181640625
11.9402268,1.181640625
11.9505061,1.181640625
11.9840678,1.171875
12.0049216,1.1669921875
12.010902,1.1572265625
12.0477921,1.15234375
12.069537,1.142578125
12.0739542,1.1474609375
12.0910151,1.162109375
12.1081002,1.2060546875
12.140916,1.259765625
12.1631454,1.328125
12.1722536,1.3818359375
12.1927962,1.435546875
12.2343334,1.4697265625
12.2345886,1.494140625
12.268908,1.513671875
12.296358,1.5185546875
12.2967402,1.513671875
12.3085494,1.4990234375
12.3420534,1.484375
12.3617438,1.4501953125
12.3716579,1.42578125
12.4060582,1.396484375
12.4271368,1.376953125
12.4320146,1.3525390625
12.4813255,1.337890625
12.4815704,1.318359375
12.4984172,1.3037109375
12.5092869,1.2841796875
12.5447529,1.26953125
12.5647964,1.2451171875
12.57143,1.240234375
12.6090041,1.23046875
12.6393684,1.2158203125
12.6396132,1.201171875
12.6497578,1.1865234375
12.6843012,1.1767578125
12.7214893,1.1669921875
12.7218369,1.162109375
12.7323941,1.15234375
12.7687212,1.1474609375
12.787071,1.1376953125
12.7944186,1.1279296875
12.8115086,1.1181640625
12.8315358,1.1181640625
12.8681069,1.11328125
12.8700036,1.123046875
12.9038103,1.1474609375
12.9274285,1.181640625
12.9340164,1.240234375
12.9732997,1.298828125
12.9735439,1.3525390625
12.9939929,1.3916015625
13.0163219,1.4306640625
13.0312318,1.416015625
13.0659316,1.435546875
13.0858646,1.4453125
13.0917749,1.4453125
13.1304268,1.4306640625
13.161015,1.416015625
13.1613314,1.3916015625
13.1764839,1.3671875
13.2002066,1.337890625
13.2122928,1.3232421875
13.24903,1.3037109375
13.2532379,1.2890625
13.2729034,1.2744140625
13.3101501,1.259765625
13.3143442,1.2451171875
13.3523357,1.2255859375
13.3526604,1.2109375
13.3972807,1.1962890625
13.4024157,1.1865234375
13.411436,1.171875
13.4492489,1.162109375
13.4541021,1.142578125
13.4899902,1.1328125
13.491816,1.1181640625
13.537408,1.11328125
13.5377495,1.103515625
13.5589814,1.0986328125
13.5717953,1.0986328125
13.6167756,1.1083984375
13.6171078,1.1181640625
13.6345271,1.1181640625
13.6708953,1.1181640625
13.675179,1.123046875
13.7103532,1.142578125
13.7107329,1.171875
13.7513685,1.23046875
13.7516112,1.2841796875
13.7817725,1.337890625
13.7942679,1.376953125
13.8424545,1.40625
13.8428504,1.416015625
13.8527434,1.4306640625
13.8859645,1.42578125
13.9054573,1.4111328125
13.9156244,1.3916015625
13.9322518,1.3671875
13.9814023,1.34765625
13.9816964,1.328125
13.9934852,1.318359375
14.0292136,1.3037109375
14.0584103,1.2890625
14.0588207,1.2744140625
14.0927023,1.259765625
14.0931117,1.240234375
14.1367098,1.2353515625
14.1370868,1.2255859375
14.1568871,1.2158203125
14.1737096,1.2109375
14.2032431,1.1962890625
14.2145782,1.1865234375
14.2352315,1.171875
14.2800096,1.162109375
14.2803432,1.1474609375
14.3001849,1.1474609375
14.3143584,1.142578125
14.3588487,1.142578125
14.3591913,1.1376953125
14.3759604,1.1376953125
14.3970694,1.1328125
14.4166733,1.1279296875
14.4316715,1.1279296875
14.482323,1.15234375
14.4825701,1.181640625
14.5078258,1.2451171875
14.516099,1.298828125
14.5506914,1.3427734375
14.5551366,1.376953125
14.5908973,1.4013671875
14.5967806,1.416015625
14.6127806,1.416015625
14.6497728,1.4208984375
14.6544878,1.4111328125
14.6736006,1.396484375
14.6950348,1.3720703125
14.7164561,1.34765625
14.7346813,1.328125
14.7840863,1.3134765625
14.7844227,1.298828125
14.8045066,1.2841796875
14.8164592,1.2744140625
14.8491512,1.2548828125
14.8540815,1.2451171875
14.8911629,1.2353515625
14.8937467,1.23046875
14.9303328,1.2158203125
14.9526284,1.2060546875
14.9560309,1.19140625
15.0024924,1.181640625
15.0028255,1.1669921875
15.014875,1.1669921875
15.0495473,1.1572265625
15.0540801,1.1474609375
15.0929787,1.1474609375
15.0933997,1.1376953125
15.1298345,1.1328125
15.1505337,1.1328125
15.1572659,1.1328125
15.1726734,1.123046875
15.2101366,1.1328125
15.2171339,1.162109375
15.2358851,1.2060546875
15.2845987,1.259765625
15.2849981,1.318359375
15.2964688,1.3623046875
15.3239304,1.4013671875
15.3326783,1.42578125
15.3700103,1.4453125
15.3741881,1.455078125
15.4091793,1.4599609375
15.4130377,1.4501953125
15.4493388,1.4306640625
15.4750567,1.4111328125
15.4754694,1.3818359375
15.5222021,1.357421875
15.5293316,1.3330078125
15.5368058,1.318359375
15.5704038,1.2939453125
15.574597,1.2841796875
15.6214562,1.26953125
15.6300368,1.259765625
15.6363651,1.2451171875
15.6703824,1.2353515625
15.6907523,1.2255859375
15.6975094,1.2158203125
15.7136794,1.201171875
15.7492436,1.1962890625
15.7747396,1.181640625
15.775058,1.181640625
15.8256751,1.1767578125
15.8417987,1.1669921875
15.8422101,1.1572265625
15.862925,1.1474609375
15.8775802,1.142578125
15.8942993,1.1328125
15.929997,1.1328125
15.9344094,1.1376953125
15.9690955,1.1376953125
15.9904896,1.1376953125
15.9984008,1.1572265625
16.0311363,1.1865234375
16.0387891,1.240234375
16.0549909,1.2890625
16.0749099,1.34765625
16.1106413,1.4013671875
16.1157592,1.42578125
16.1372581,1.4501953125
16.157926,1.4599609375
16.1973661,1.4697265625
16.1977651,1.455078125
16.2301736,1.4404296875
16.2502954,1.416015625
16.2531924,1.4013671875
16.2881188,1.376953125
16.321956,1.3671875
16.3223577,1.3525390625
16.3348316,1.3427734375
16.3724751,1.3232421875
16.3769213,1.3134765625
16.4205534,1.298828125
16.4208447,1.2939453125
16.4411661,1.2744140625
16.4543329,1.2548828125
16.4882457,1.2451171875
16.510653,1.2353515625
16.518212,1.23046875
16.5532101,1.2158203125
16.5584229,1.2060546875
16.5958549,1.19140625
16.596122,1.181640625
16.6146648,1.1669921875
16.6568795,1.162109375
16.6572837,1.1572265625
16.6780066,1.162109375
16.6971854,1.1572265625
16.718646,1.15234375
16.7476864,1.1474609375
16.7586951,1.142578125
16.7826035,1.1474609375
16.794585,1.1669921875
16.8342693,1.2060546875
16.8384748,1.25
16.8584778,1.3037109375
16.8867165,1.34765625
16.8971463,1.38671875
16.9322091,1.40625
16.9383047,1.4208984375
16.9722736,1.4208984375
16.9764287,1.42578125
16.9974713,1.4111328125
17.03219,1.396484375
17.0366418,1.3720703125
17.0837252,1.357421875
17.0999975,1.337890625
17.1002424,1.3134765625
17.148543,1.3037109375
17.1488877,1.2841796875
17.1594181,1.240234375
17.1773657,1.2353515625
17.2118751,1.2353515625
17.2160804,1.2255859375
17.2503551,1.220703125
17.2714378,1.2060546875
17.2773796,1.1962890625
17.3110637,1.181640625
17.3323693,1.171875
17.3364763,1.162109375
17.3857133,1.1572265625
17.385956,1.15234375
17.3976964,1.142578125
17.4387922,1.142578125
17.4391223,1.1328125
17.4741106,1.1279296875
17.4789135,1.123046875
17.5119739,1.1181640625
17.5338454,1.11328125
17.5341898,1.11328125
17.5705774,1.11328125
17.5934873,1.1279296875
17.5977431,1.1474609375
17.6357845,1.1865234375
17.6405852,1.2353515625
17.6595506,1.2890625
17.6754906,1.328125
17.7024834,1.376953125
17.7161072,1.4111328125
17.7526344,1.42578125
17.7783587,1.4306640625
17.7786873,1.4208984375
17.8228955,1.40625
17.823283,1.38671875
17.8380192,1.3671875
17.8728164,1.34765625
17.8771187,1.3330078125
17.9173054,1.3232421875
17.9175899,1.30859375
17.9591668,1.298828125
17.9594903,1.2939453125
17.994931,1.279296875
17.9991905,1.26953125
18.0350957,1.259765625
18.0619021,1.240234375
18.062151,1.23046875
18.0776892,1.2109375
18.1295975,1.2109375
18.1298461,1.1962890625
18.1382882,1.1962890625
18.1763527,1.1865234375
18.2060398,1.181640625
18.2062882,1.171875
18.2212,1.171875
18.2340436,1.162109375
18.2823816,1.162109375
18.2830342,1.1572265625
18.3048155,1.1572265625
18.319921,1.15234375
18.3595328,1.1572265625
18.3598017,1.171875
18.3941447,1.201171875
18.4231163,1.2548828125
18.4234916,1.30859375
18.4369263,1.357421875
18.482961,1.396484375
18.4832915,1.42578125
18.5030595,1.4404296875
18.5194526,1.4501953125
18.5533837,1.4453125
18.5728006,1.4306640625
18.5747177,1.4111328125
18.6106894,1.396484375
18.6402503,1.376953125
18.6405721,1.357421875
18.6775943,1.3525390625
18.6779959,1.3330078125
18.7182792,1.318359375
18.718694,1.3037109375
18.755683,1.298828125
18.7621333,1.2841796875
18.7976434,1.2451171875
18.7979578,1.240234375
18.8332193,1.2353515625
18.8376842,1.23046875
18.8720832,1.23046875
18.8946403,1.2158203125
18.9016367,1.2060546875
18.9226178,1.201171875
18.967466,1.19140625
18.9677501,1.181640625
18.9782023,1.181640625
19.0106088,1.181640625
19.0310619,1.171875
19.0387781,1.1669921875
19.075451,1.162109375
19.0794186,1.1572265625
19.113245,1.1474609375
19.13789,1.1474609375
19.1381367,1.1572265625
19.1852365,1.1962890625
19.1855653,1.25
19.1999402,1.3134765625
19.2476851,1.3671875
19.2479278,1.416015625
19.2623196,1.4453125
19.3019699,1.474609375
19.3026708,1.494140625
19.3192992,1.494140625
19.3552251,1.4892578125
19.3638363,1.4697265625
19.3801362,1.455078125
19.4249801,1.42578125
19.4253983,1.40625
19.4409231,1.38671875
19.4846559,1.3623046875
19.4849092,1.3427734375
19.4981016,1.337890625
19.534702,1.3232421875
19.5622864,1.3134765625
19.5626501,1.298828125
19.579898,1.279296875
19.6235987,1.259765625
19.6238698,1.2451171875
19.6446354,1.23046875
19.6618099,1.2158203125
19.6953447,1.201171875
19.7179183,1.1865234375
19.7182848,1.181640625
19.7562172,1.1767578125
19.7611662,1.181640625
19.7958941,1.1767578125
19.8239686,1.171875
19.8242159,1.162109375
19.8703504,1.15234375
19.870751,1.1474609375
19.8790569,1.1474609375
19.9148259,1.1474609375
19.9487382,1.15234375
19.9489851,1.1767578125
19.9593521,1.2109375
19.9927757,1.2646484375
20.0134701,1.318359375
20.0213255,1.376953125
20.0535079,1.416015625
20.0576076,1.455078125
20.0925929,1.474609375
20.1122314,1.4892578125
20.120193,1.4892578125
20.1527289,1.4794921875
20.1765384,1.455078125
20.1842665,1.435546875
20.1993761,1.4111328125
20.2431573,1.3916015625
20.2435085,1.3671875
20.2610616,1.3623046875
20.2966177,1.34765625
20.3010555,1.328125
20.3490775,1.3134765625
20.3497435,1.2939453125
20.3696537,1.279296875
20.3827302,1.259765625
20.4154711,1.220703125
20.4194235,1.181640625
20.4515518,1.1767578125
20.4747896,1.1767578125
20.4813455,1.1767578125
20.5226949,1.171875
20.5229591,1.1669921875
20.5685781,1.1572265625
20.5688398,1.1474609375
20.5843036,1.142578125
20.6010226,1.1328125
20.6503333,1.1328125
20.6506283,1.1279296875
20.6620332,1.1328125
20.6822589,1.123046875
20.7174931,1.123046875
20.739524,1.123046875
20.7437383,1.15234375
20.7603583,1.19140625
20.7973558,1.259765625
20.7994073,1.3134765625
20.8320832,1.3671875
20.8539447,1.4013671875
20.863004,1.42578125
20.8978478,1.435546875
20.9021027,1.4453125
20.9476531,1.435546875
20.9479762,1.416015625
20.9680181,1.4013671875
20.9805726,1.3818359375
21.0025125,1.3671875
21.0228265,1.34765625
21.0581327,1.337890625
21.0623347,1.3232421875
21.0960404,1.3134765625
21.1180306,1.298828125
21.1183434,1.2890625
21.1539118,1.2744140625
21.1807913,1.26953125
21.1810559,1.2548828125
21.2220443,1.2451171875
21.2222885,1.240234375
21.2603217,1.220703125
21.291046,1.2109375
21.2913898,1.1962890625
21.3047452,1.19140625
21.3218236,1.181640625
21.3610096,1.1767578125
21.3615246,1.171875
21.4071065,1.171875
21.4073648,1.162109375
21.4219927,1.1669921875
21.4704601,1.1572265625
21.4707205,1.162109375
21.4884119,1.1669921875
21.5010475,1.201171875
21.5355586,1.2451171875
21.5555872,1.3134765625
21.5614627,1.3720703125
21.5957549,1.4111328125
21.6171246,1.4453125
21.6233981,1.46484375
21.6594906,1.474609375
21.6597767,1.4697265625
21.6951791,1.46484375
21.7279519,1.4453125
21.7285174,1.42578125
21.74269,1.4013671875
21.7665798,1.3818359375
21.7850079,1.3671875
21.805649,1.357421875
21.8199323,1.3427734375
21.8666833,1.337890625
21.8669352,1.337890625
21.8847627,1.3232421875
21.9019132,1.3134765625
21.9366558,1.2939453125
21.9627423,1.279296875
21.9630709,1.2646484375
22.0028439,1.25
22.0181507,1.2353515625
22.0250977,1.1962890625
22.0411154,1.1669921875
22.0863849,1.1767578125
22.086627,1.1767578125
22.1071821,1.1767578125
22.1235502,1.1767578125
22.1617648,1.181640625
22.1621736,1.171875
22.1975319,1.171875
22.2192333,1.162109375
22.2194816,1.15234375
22.2549427,1.171875
22.2805156,1.2060546875
22.282171,1.2646484375
22.3260011,1.328125
22.3263088,1.396484375
22.3476354,1.4501953125
22.3657619,1.4892578125
22.3810365,1.5185546875
22.4179364,1.533203125
22.4442431,1.5380859375
22.4445663,1.5380859375
22.4893893,1.5234375
22.4898212,1.4990234375
22.5044307,1.474609375
22.5508419,1.4453125
22.5512384,1.416015625
22.5711687,1.3916015625
22.5826006,1.376953125
22.6176829,1.3623046875
22.6443747,1.34765625
22.6446252,1.328125
22.6781447,1.3134765625
22.6975528,1.2890625
22.705128,1.2744140625
22.7199213,1.2548828125
22.7548425,1.2451171875
22.7775163,1.23046875
22.7844726,1.220703125
22.8266642,1.2060546875
22.826908,1.201171875
22.8816737,1.19140625
22.8819388,1.181640625
22.886001,1.1767578125
22.9234704,1.1669921875
22.9278737,1.162109375
22.9422937,1.1474609375
22.9910109,1.1474609375
22.9914169,1.1474609375
23.0117706,1.15234375
23.0241389,1.171875
23.0558976,1.2109375
23.0843154,1.26953125
23.0860459,1.337890625
23.1030443,1.3916015625
23.1236785,1.4453125
23.1600473,1.4892578125
23.1640068,1.513671875
23.196752,1.5283203125
23.2174761,1.5283203125
23.2261779,1.5185546875
23.2629117,1.4990234375
23.2682367,1.474609375
23.2855785,1.4404296875
23.3042036,1.416015625
23.3414344,1.3916015625
23.3417647,1.3818359375
23.3852406,1.357421875
23.3910115,1.34765625
23.4039232,1.328125
23.4257867,1.30859375
23.4450435,1.2890625
23.4635404,1.2841796875
23.4935775,1.26953125
23.5039708,1.25
23.5384223,1.2353515625
23.5592869,1.220703125
23.5644054,1.2060546875
23.6120969,1.19140625
23.6124323,1.181640625
23.6230044,1.1669921875
23.6604048,1.162109375
23.6651248,1.123046875
23.6841014,1.1279296875
23.7200657,1.1279296875
23.7246759,1.1328125
23.7592332,1.123046875
23.7844227,1.123046875
23.7847623,1.1279296875
23.8301905,1.142578125
23.830435,1.181640625
23.8515304,1.2451171875
23.864364,1.3232421875
23.9072636,1.3818359375
23.9075103,1.435546875
23.9251373,1.474609375
23.9689532,1.4990234375
23.969203,1.5087890625
23.9878317,1.5087890625
24.0127638,1.494140625
24.0246006,1.474609375
24.0621626,1.4501953125
24.0624254,1.42578125
24.1109985,1.4013671875
24.111305,1.3818359375
24.1429656,1.3623046875
24.1470883,1.337890625
24.1791672,1.3232421875
24.2070965,1.3037109375
24.2074352,1.2890625
24.2256902,1.2744140625
24.2620881,1.2646484375
24.2664297,1.2451171875
24.3145491,1.23046875
24.3149536,1.2109375
24.326703,1.1962890625
24.3446618,1.181640625
24.3911565,1.1767578125
24.391803,1.1669921875
24.4052697,1.162109375
24.4531754,1.162109375
24.4535771,1.1474609375
24.4675155,1.1474609375
24.4872659,1.1376953125
24.5210849,1.1328125
24.5431687,1.123046875
24.5474648,1.123046875
24.5658499,1.123046875
24.6002709,1.1572265625
24.6071384,1.1962890625
24.6529713,1.2646484375
24.6533046,1.318359375
24.6670012,1.3720703125
24.7049215,1.40625
24.7068885,1.4306640625
24.7413604,1.4453125
24.7457269,1.455078125
24.7932097,1.4501953125
24.7934607,1.435546875
24.8052267,1.416015625
24.8400771,1.3916015625
24.8695794,1.3720703125
24.8699501,1.3525390625
24.8882084,1.3427734375
24.9053444,1.328125
24.9258731,1.3232421875
24.96214,1.30859375
24.967604,1.298828125
24.9889069,1.279296875
25.007367,1.2646484375
25.04183,1.25
25.0624285,1.2353515625
25.0670544,1.220703125
25.1019611,1.201171875
25.1072761,1.19140625
25.1273372,1.181640625
25.1470354,1.1767578125
25.182866,1.171875
25.2074913,1.1669921875
25.2077372,1.1572265625
25.2443549,1.15234375
25.2446513,1.142578125
25.2806186,1.142578125
25.2856635,1.103515625
25.3265985,1.1181640625
25.3268501,1.1328125
25.3473304,1.1767578125
25.3847352,1.23046875
25.3893186,1.3037109375
25.4078746,1.3720703125
25.4300236,1.4208984375
25.4686373,1.4599609375
25.469049,1.4794921875
25.4864457,1.4990234375
25.5188063,1.4990234375
25.5399645,1.494140625
25.5481458,1.474609375
25.5938687,1.4501953125
25.5941626,1.42578125
25.609558,1.4013671875
25.6266786,1.376953125
25.6701881,1.3623046875
25.670432,1.34765625
25.7042297,1.337890625
25.707154,1.3232421875
25.7587465,1.3037109375
25.7589927,1.2890625
25.7762642,1.26953125
25.7876613,1.25
25.8043293,1.2255859375
25.8376223,1.2158203125
25.8572466,1.201171875
25.8661377,1.19140625
25.9002034,1.181640625
25.9219998,1.181640625
25.9282481,1.171875
25.9637144,1.171875
25.9640583,1.162109375
25.9860504,1.162109375
26.0211246,1.1474609375
26.0410551,1.1474609375
26.0491067,1.142578125
26.0879792,1.1376953125
26.0882279,1.1376953125
26.1103679,1.1474609375
26.1458693,1.1865234375
26.1506068,1.240234375
26.1716891,1.30859375
26.1864364,1.3720703125
26.2219231,1.4306640625
26.2434071,1.4794921875
26.2479557,1.5087890625
26.2690417,1.5283203125
26.3045656,1.5380859375
26.3097058,1.533203125
26.3524643,1.513671875
26.3528006,1.494140625
26.3677336,1.4599609375
26.3863315,1.4306640625
26.4219048,1.40625
26.4422288,1.3916015625
26.4496578,1.3671875
26.4833785,1.34765625
26.4901011,1.328125
26.5379342,1.30859375
26.5382717,1.2890625
26.5661508,1.2744140625
26.5664498,1.2548828125
26.5996836,1.2451171875
26.6213229,1.2255859375
26.629867,1.2158203125
26.6513423,1.1962890625
26.6702403,1.19140625
26.7067624,1.1767578125
26.711614,1.162109375
26.7288856,1.15234375
26.7707514,1.1474609375
26.7710832,1.142578125
26.7876032,1.1376953125
26.8220983,1.1328125
26.8436989,1.123046875
26.8501264,1.1181640625
26.879314,1.1083984375
26.8897565,1.11328125
26.9243843,1.0986328125
26.9263218,1.1572265625
26.9604298,1.2255859375
26.9791221,1.298828125
26.9901267,1.3720703125
27.0279155,1.4208984375
27.028325,1.4599609375
27.0635021,1.4794921875
27.0845633,1.4990234375
27.0867559,1.4990234375
27.121735,1.494140625
27.1556372,1.4794921875
27.1560358,1.455078125
27.1700471,1.42578125
27.216275,1.40625
27.2166105,1.376953125
27.2317833,1.357421875
27.2490541,1.3330078125
27.2841836,1.318359375
27.2881541,1.3037109375
27.3247768,1.2939453125
27.3572987,1.279296875
27.3576278,1.259765625
27.3712115,1.240234375
27.3948878,1.220703125
27.4124464,1.2060546875
27.4284294,1.1865234375
27.4484417,1.181640625
27.4960418,1.1669921875
27.5033843,1.162109375
27.5077273,1.1474609375
27.5455857,1.142578125
27.5750823,1.1279296875
27.5754014,1.123046875
27.5862647,1.11328125
27.6218338,1.1083984375
27.6437484,1.11328125
27.6511941,1.1083984375
27.6936066,1.1083984375
27.6939473,1.11328125
27.7089866,1.1376953125
27.7434719,1.1767578125
27.7700584,1.2353515625
27.7703114,1.2939453125
27.8043811,1.357421875
27.8322203,1.396484375
27.8325552,1.435546875
27.8476965,1.455078125
27.882092,1.4697265625
27.9097828,1.46484375
27.9104235,1.4501953125
27.9311415,1.42578125
27.9730048,1.416015625
27.9733261,1.396484375
28.0033472,1.3720703125
28.0096768,1.357421875
28.0300504,1.34765625
28.0661658,1.337890625
28.0934139,1.3232421875
28.0936679,1.30859375
28.1275826,1.2939453125
28.1566693,1.279296875
28.1570747,1.259765625
28.1686023,1.25
28.2175348,1.2353515625
28.2179485,1.220703125
28.2302483,1.2109375
28.2533355,1.1962890625
28.2728204,1.19140625
28.2931732,1.1767578125
28.3207153,1.1669921875
28.3291812,1.1572265625
28.3649756,1.15234375
28.3930752,1.142578125
28.3934015,1.142578125
28.4114851,1.1328125
28.4474467,1.1328125
28.4538687,1.1328125
28.4871823,1.1669921875
28.4876504,1.2060546875
28.5340338,1.2744140625
28.5343631,1.337890625
28.5550098,1.4013671875
28.5700747,1.4404296875
28.6074539,1.4697265625
28.6290106,1.4892578125
28.6292575,1.494140625
28.6656803,1.4892578125
28.6904011,1.4697265625
28.6934637,1.4453125
28.7095349,1.4208984375
28.7457974,1.396484375
28.7501166,1.376953125
28.7855305,1.3623046875
28.8061763,1.34765625
28.8105347,1.328125
28.8447248,1.3134765625
28.86453,1.2939453125
28.8687713,1.279296875
28.9030218,1.2646484375
28.924417,1.2548828125
28.9316913,1.2353515625
28.9517885,1.2158203125
28.9995607,1.201171875
28.999807,1.1962890625
29.0131594,1.181640625
29.0608997,1.1767578125
29.0612174,1.1572265625
29.0803519,1.1572265625
29.0899249,1.1474609375
29.1377398,1.1474609375
29.1381428,1.1376953125
29.1584722,1.1376953125
29.1730592,1.1279296875
29.2098855,1.123046875
29.2101824,1.11328125
29.2472123,1.1328125
29.2560667,1.1669921875
29.272581,1.220703125
29.2911738,1.2890625
29.3130683,1.3525390625
29.3486523,1.4111328125
29.350786,1.455078125
29.383445,1.4892578125
29.4049694,1.5087890625
29.4130369,1.494140625
29.4317969,1.494140625
29.4731938,1.4892578125
29.4739959,1.474609375
29.4923922,1.455078125
29.5285367,1.42578125
29.532685,1.4013671875
29.5539922,1.38671875
29.5909482,1.3623046875
29.5949503,1.34765625
29.6108733,1.328125
29.6312608,1.3134765625
29.6700187,1.2939453125
29.670394,1.2841796875
29.7156278,1.26953125
29.7159862,1.2548828125
29.7355995,1.2353515625
29.7712214,1.220703125
29.771628,1.201171875
29.8053662,1.1962890625
29.810077,1.1865234375
29.8455046,1.1767578125
29.867562,1.162109375
29.8746562,1.15234375
29.8932255,1.1474609375
29.9344339,1.1376953125
29.9346934,1.1328125
29.9635095,1.123046875
29.9705039,1.123046875
30.0104983,1.123046875
30.0108313,1.1376953125
30.0381805,1.1572265625
30.0543934,1.2060546875
30.0914215,1.259765625
30.0940485,1.328125
30.1095878,1.38671875
30.1446166,1.4453125
30.1663784,1.484375
30.1729501,1.5185546875
30.2231895,1.5380859375
30.2235689,1.5380859375
30.2340757,1.5283203125
30.2857943,1.5087890625
30.2862727,1.4892578125
30.2931888,1.455078125
30.3419338,1.4306640625
30.349578,1.4013671875
30.3499685,1.3818359375
30.3891603,1.3623046875
30.4092692,1.34765625
30.4132426,1.328125
30.4472856,1.30859375
30.4675271,1.2890625
30.4754337,1.26953125
30.4919128,1.25
30.5286233,1.240234375
30.5305062,1.23046875
30.5525997,1.2109375
30.5880226,1.1962890625
30.5929484,1.181640625
30.626413,1.171875
30.6477013,1.1572265625
30.6547005,1.1474609375
30.6726395,1.1376953125
30.6928372,1.1328125
30.7283415,1.1279296875
30.732921,1.1279296875
30.7700708,1.123046875
30.7720966,1.1181640625
30.8073864,1.11328125
30.8281836,1.11328125
30.8359156,1.1376953125
30.8518862,1.171875
30.8890896,1.240234375
30.8937442,1.3037109375
30.9133555,1.3720703125
30.9511286,1.416015625
30.9549771,1.455078125
30.9955953,1.4697265625
30.9959951,1.484375
31.0160341,1.4794921875
31.0590266,1.4453125
31.0594472,1.4306640625
31.0713491,1.416015625
31.1194945,1.396484375
31.1198918,1.3818359375
31.1392382,1.357421875
31.1533897,1.34765625
31.1892119,1.337890625
31.2215098,1.318359375
31.2218379,1.3037109375
31.2329579,1.2841796875
31.2670938,1.2744140625
31.2885162,1.259765625
31.2944745,1.2451171875
31.3357963,1.23046875
31.3361617,1.2109375
31.3716271,1.1962890625
31.3760917,1.181640625
31.391606,1.1669921875
31.429632,1.162109375
31.4315803,1.1572265625
31.464407,1.1474609375
31.4858171,1.15234375
31.4956824,1.142578125
31.5156181,1.142578125
31.5350429,1.1279296875
31.5917202,1.1328125
31.5921263,1.123046875
31.5924702,1.1376953125
31.6606871,1.1669921875
31.6610631,1.220703125
31.6613647,1.279296875
31.6948502,1.3427734375
31.6951021,1.38671875
31.7282504,1.42578125
31.7507005,1.4453125
31.7510388,1.46484375
31.7897033,1.4599609375
31.7922365,1.4599609375
31.8279604,1.4453125
31.8475225,1.416015625
31.8535052,1.3916015625
31.8874516,1.3671875
31.9156013,1.34765625
31.9159622,1.328125
31.9601123,1.318359375
31.9604855,1.298828125
31.9896905,1.2939453125
31.9948472,1.279296875
32.0292503,1.2646484375
32.0352219,1.2451171875
32.0688432,1.2353515625
32.0888584,1.220703125
32.0962267,1.2109375
32.1289596,1.201171875
32.157493,1.181640625
32.1578201,1.1767578125
32.1750766,1.1669921875
32.2190681,1.162109375
32.21938,1.15234375
32.2349225,1.15234375
32.2718007,1.142578125
32.2964587,1.1376953125
32.2967182,1.1279296875
32.3313656,1.1328125
32.3356685,1.1279296875
32.3549104,1.1328125
32.3799066,1.1572265625
32.3955551,1.2060546875
32.4398846,1.259765625
32.4403266,1.3330078125
32.4573095,1.396484375
32.4826272,1.435546875
32.4937212,1.4794921875
32.5330473,1.4990234375
32.5349855,1.5087890625
32.5788638,1.5087890625
32.5960415,1.4990234375
32.5964494,1.4794921875
32.6310532,1.4501953125
32.6516544,1.42578125
32.657544,1.3720703125
32.6735617,1.357421875
32.7079616,1.34765625
32.7290493,1.3330078125
32.7354939,1.3232421875
32.7810097,1.3134765625
32.8030707,1.2939453125
32.803328,1.279296875
32.8207873,1.259765625
32.837719,1.2451171875
32.8543406,1.23046875
32.8911061,1.2158203125
32.9204495,1.2060546875
32.9207367,1.19140625
32.9377011,1.1767578125
32.9857845,1.171875
32.9861967,1.1572265625
32.9980969,1.15234375
33.0155369,1.1376953125
33.035852,1.1376953125
33.069948,1.1328125
33.0742899,1.1376953125
33.1100848,1.142578125
33.1292698,1.1328125
33.137958,1.1279296875
33.1732686,1.1376953125
33.1784844,1.171875
33.1948488,1.2255859375
33.2315085,1.298828125
33.2367957,1.3623046875
33.2755678,1.42578125
33.2758684,1.46484375
33.2979154,1.494140625
33.3434926,1.5087890625
33.3438292,1.5185546875
33.3537947,1.5087890625
33.3882453,1.494140625
33.40883,1.474609375
33.4155379,1.4453125
33.4361903,1.416015625
33.4844778,1.396484375
33.4847207,1.376953125
33.4972228,1.3525390625
33.5178292,1.3330078125
33.5525648,1.30859375
33.5737797,1.2890625
33.5742792,1.26953125
33.6089422,1.259765625
33.6383041,1.2451171875
33.6385823,1.23046875
33.6837333,1.2158203125
33.6839922,1.201171875
33.7061237,1.181640625
33.7199886,1.1767578125
33.7413691,1.1572265625
33.7555576,1.142578125
33.8029294,1.1376953125
33.807053,1.1328125
33.8166807,1.1279296875
33.8536155,1.1181640625
33.8578931,1.1181640625
33.9053715,1.11328125
33.9223197,1.1083984375
33.9225789,1.103515625
33.9357934,1.103515625
33.9703708,1.123046875
33.9911827,1.1669921875
33.9989647,1.220703125
34.0184408,1.2939453125
34.037814,1.3623046875
34.0779789,1.40625
34.0783138,1.4453125
34.0977469,1.4697265625
34.131136,1.4990234375
34.1521273,1.50390625
34.1563028,1.50390625
34.1908592,1.4794921875
34.2166972,1.455078125
34.2170922,1.42578125
34.2538826,1.40625
34.2737195,1.376953125
34.2819308,1.3330078125
34.2974062,1.2890625
34.3409321,1.2890625
34.3412245,1.2841796875
34.3585767,1.2841796875
34.393189,1.2744140625
34.3971634,1.259765625
34.4310161,1.240234375
34.4612265,1.220703125
34.4614693,1.2060546875
34.4766428,1.19140625
34.5115363,1.181640625
34.5185084,1.171875
34.5377901,1.162109375
34.560887,1.1474609375
34.5783336,1.142578125
34.6160771,1.1328125
34.6496507,1.1279296875
34.6499094,1.123046875
34.6578576,1.123046875
34.6936198,1.1279296875
34.6977821,1.123046875
34.7343783,1.123046875
34.7595416,1.1328125
34.7598891,1.1669921875
34.7813588,1.2158203125
34.8374873,1.2841796875
34.8377457,1.337890625
34.8422263,1.3916015625
34.8584492,1.42578125
34.877546,1.455078125
34.9174935,1.46484375
34.9178945,1.4697265625
34.9421791,1.455078125
34.9598517,1.435546875
34.977233,1.4013671875
34.9960586,1.3916015625
35.0418496,1.3720703125
35.058996,1.357421875
35.0595321,1.3427734375
35.1050406,1.3232421875
35.1053885,1.30859375
35.1199041,1.2939453125
35.1565419,1.2890625
35.1583308,1.2744140625
35.1920817,1.2548828125
35.2122334,1.240234375
35.2174073,1.2255859375
35.257285,1.2109375
35.2576838,1.2060546875
35.2785783,1.19140625
35.3172553,1.181640625
35.3222474,1.171875
35.3412695,1.1572265625
35.3800532,1.1474609375
35.3806028,1.1376953125
35.3972569,1.1376953125
35.4448686,1.1328125
35.4503285,1.1328125
35.4577792,1.1279296875
35.4941345,1.1279296875
35.5144442,1.1376953125
35.5196148,1.181640625
35.5365764,1.23046875
35.5713363,1.3037109375
35.5931877,1.3623046875
35.6001158,1.416015625
35.6471201,1.4453125
35.6473695,1.4794921875
35.6587634,1.494140625
35.6945755,1.4892578125
35.7243943,1.474609375
35.7246624,1.455078125
35.7387884,1.4306640625
35.7736727,1.40625
35.7784073,1.3916015625
35.8148933,1.3671875
35.8191876,1.3525390625
35.8642396,1.3330078125
35.8645572,1.3134765625
35.8867805,1.2939453125
35.903158,1.25
35.9184492,1.2158203125
35.9548282,1.2158203125
35.9592631,1.2158203125
36.0018461,1.2060546875
36.0021316,1.1962890625
36.047507,1.1865234375
36.0478125,1.1767578125
36.0625374,1.162109375
36.1081221,1.15234375
36.1083664,1.1376953125
36.1186379,1.1328125
36.1554394,1.1328125
36.1599835,1.1376953125
36.200701,1.1328125
36.2009468,1.1328125
36.2578392,1.123046875
36.2581103,1.123046875
36.2713172,1.1279296875
36.2784781,1.162109375
36.313801,1.220703125
36.3177831,1.2841796875
36.3527285,1.357421875
36.3733956,1.416015625
36.3795643,1.46484375
36.4152199,1.494140625
36.4420437,1.5185546875
36.4423945,1.5283203125
36.4585184,1.533203125
36.5030937,1.5234375
36.503382,1.50390625
36.5245323,1.474609375
36.5432571,1.4501953125
36.5626894,1.4208984375
36.5984686,1.3916015625
36.6013281,1.3720703125
36.6180173,1.34765625
36.6659678,1.3330078125
36.6832365,1.318359375
36.6835862,1.3134765625
36.7001453,1.2890625
36.7366008,1.2744140625
36.7420719,1.25
36.7761024,1.2353515625
36.7824415,1.2158203125
36.81798,1.201171875
36.818323,1.181640625
36.8526512,1.171875
36.874766,1.162109375
36.8820533,1.15234375
36.9170084,1.1376953125
36.9213413,1.1376953125
36.9560671,1.1279296875
36.9782829,1.123046875
36.9828601,1.1181640625
36.9997649,1.1083984375
37.0354637,1.1083984375
37.0401881,1.11328125
37.0787315,1.1474609375
37.0832807,1.19140625
37.1279848,1.259765625
37.1282415,1.328125
37.1431301,1.38671875
37.160052,1.435546875
37.2050678,1.484375
37.2053126,1.513671875
37.220759,1.533203125
37.2660642,1.54296875
37.2663152,1.5283203125
37.2852555,1.50390625
37.3017918,1.474609375
37.3232082,1.4453125
37.3402897,1.416015625
37.3824219,1.3916015625
37.3826717,1.3671875
37.4222816,1.34765625
37.4225337,1.328125
37.4703305,1.3134765625
37.4706682,1.2939453125
37.4900265,1.2744140625
37.5042835,1.2548828125
37.5242877,1.2109375
37.5399068,1.1669921875
37.5598614,1.171875
37.6100305,1.171875
37.6102731,1.1669921875
37.6311939,1.162109375
37.6417032,1.15234375
37.6772611,1.142578125
37.6972409,1.1328125
37.7035705,1.1279296875
37.7227356,1.123046875
37.7424911,1.1181640625
37.7610683,1.1181640625
37.7831911,1.11328125
37.8017748,1.103515625
37.8418271,1.103515625
37.8421621,1.11328125
37.886484,1.1572265625
37.8867914,1.2158203125
37.9073334,1.2841796875
37.9207892,1.3525390625
37.9654587,1.4111328125
37.9659409,1.4599609375
37.9821812,1.484375
38.0303487,1.4990234375
38.030732,1.4990234375
38.0481426,1.4892578125
38.0609529,1.46484375
38.1105145,1.4453125
38.1109144,1.4208984375
38.1223116,1.396484375
38.1421257,1.3720703125
38.1845958,1.3525390625
38.184995,1.3330078125
38.203731,1.3330078125
38.2393287,1.3232421875
38.2397572,1.3037109375
38.275496,1.2939453125
38.3029747,1.2744140625
38.3079372,1.259765625
38.3212923,1.2451171875
38.3575286,1.23046875
38.3874515,1.2158203125
38.3878165,1.201171875
38.4081452,1.181640625
38.4262433,1.171875
38.442009,1.1572265625
38.4863731,1.1572265625
38.48662,1.1474609375
38.50316,1.1474609375
38.5394864,1.142578125
38.5472579,1.1328125
38.5651814,1.1279296875
38.6082804,1.123046875
38.6085234,1.1376953125
38.6189084,1.171875
38.6555054,1.23046875
38.6793181,1.2939453125
38.6845728,1.3623046875
38.7026441,1.40625
38.7371785,1.4501953125
38.758648,1.46484375
38.7655174,1.4794921875
38.7807906,1.474609375
38.8010903,1.4599609375
38.8358259,1.435546875
38.8575614,1.416015625
38.8640935,1.3916015625
38.8831842,1.3671875
38.9184451,1.34765625
38.9383736,1.328125
38.9430447,1.3134765625
38.9777999,1.2939453125
38.9833639,1.2841796875
39.0017056,1.26953125
39.0356739,1.2548828125
39.0584385,1.240234375
39.0664624,1.2255859375
39.0840764,1.2060546875
39.1057597,1.19140625
39.1222521,1.1767578125
39.1723135,1.1669921875
39.1727234,1.1328125
39.1825164,1.09375
39.2172482,1.103515625
39.2381882,1.1083984375
39.242382,1.123046875
39.2769856,1.123046875
39.2974939,1.123046875
39.3048672,1.1181640625
39.3388904,1.1181640625
39.3601538,1.1181640625
39.3604075,1.15234375
39.4194732,1.201171875
39.4197869,1.26953125
39.4267925,1.3330078125
39.4444084,1.396484375
39.4655864,1.435546875
39.514986,1.4794921875
39.5153949,1.50390625
39.5221557,1.5087890625
39.5593258,1.5087890625
39.5891703,1.4990234375
39.5894886,1.474609375
39.6039545,1.4453125
39.6287973,1.4208984375
39.6445801,1.396484375
39.6800267,1.3720703125
39.7007574,1.34765625
39.7025283,1.3330078125
39.7358071,1.3134765625
39.7562164,1.3037109375
39.7624425,1.2890625
39.795134,1.26953125
39.8163356,1.2548828125
39.82566,1.23046875
39.876855,1.2158203125
39.8772593,1.1962890625
39.8846074,1.1865234375
39.9255077,1.1767578125
39.9301207,1.171875
39.9455271,1.1572265625
39.9824858,1.15234375
39.9827748,1.142578125
40.0232153,1.1376953125
40.0273719,1.1279296875
40.0650739,1.123046875
40.0658394,1.11328125
40.0838809,1.11328125
40.1313794,1.11328125
40.1368638,1.1328125
40.1472379,1.171875
40.1659363,1.220703125
40.2102114,1.2890625
40.210814,1.3525390625
40.2260355,1.4111328125
40.2429019,1.4599609375
40.2798224,1.50390625
40.3041045,1.5283203125
40.3043384,1.54296875
40.337546,1.5380859375
40.3581339,1.5234375
40.3670349,1.494140625
40.4131358,1.4697265625
40.4133841,1.4404296875
40.4226702,1.416015625
40.4575529,1.396484375
40.4793877,1.3720703125
40.4848797,1.3525390625
40.5210778,1.328125
40.5251778,1.30859375
40.5614445,1.2890625
40.5682033,1.2646484375
40.5835302,1.2451171875
40.6298475,1.23046875
40.6302411,1.2158203125
40.6581068,1.2060546875
40.6661816,1.19140625
40.7055907,1.1767578125
40.7059137,1.1669921875
40.7546074,1.15234375
40.7548503,1.1376953125
40.7631144,1.1376953125
40.7996661,1.1376953125
40.8200244,1.0986328125
40.8252053,1.103515625
40.8615571,1.103515625
40.8658403,1.103515625
40.9007019,1.103515625
40.9252867,1.1181640625
40.9255311,1.1474609375
40.9734552,1.201171875
40.9740855,1.259765625
40.989686,1.328125
41.0063037,1.376953125
41.044063,1.42578125
41.0443169,1.455078125
41.081333,1.474609375
41.1018121,1.484375
41.1070378,1.474609375
41.1438867,1.4599609375
41.1441521,1.435546875
41.1775587,1.4111328125
41.1862042,1.38671875
41.2258578,1.3671875
41.2262793,1.337890625
41.2736215,1.3232421875
41.273891,1.3037109375
41.2945778,1.2890625
41.3028463,1.26953125
41.3355524,1.2548828125
41.357623,1.2353515625
41.3657466,1.220703125
41.4138817,1.201171875
41.4142154,1.1865234375
41.4359789,1.171875
41.4466583,1.1572265625
41.4805851,1.142578125
41.5007992,1.1279296875
41.5049743,1.123046875
41.5403241,1.1181640625
41.5443271,1.11328125
41.5841101,1.1083984375
41.6068153,1.103515625
41.6070728,1.09375
41.6294946,1.0888671875
41.6490216,1.0791015625
41.6686416,1.083984375
41.6906587,1.0791015625
41.7057092,1.103515625
41.7480857,1.15234375
41.7484867,1.201171875
41.7914052,1.259765625
41.791916,1.3037109375
41.8089292,1.34765625
41.8522096,1.376953125
41.8524877,1.396484375
41.8646473,1.4013671875
41.9001821,1.4013671875
41.9302812,1.3818359375
41.9306719,1.3720703125
41.9480965,1.34765625
41.9905707,1.3330078125
41.9908374,1.3134765625
42.00882,1.2939453125
42.0263701,1.279296875
42.0807955,1.2744140625
42.0812565,1.2646484375
42.0861953,1.25
42.1227028,1.240234375
42.1435161,1.23046875
42.1477553,1.2158203125
42.1829064,1.201171875
42.2041513,1.19140625
42.2046356,1.1767578125
42.2280715,1.1669921875
42.2462738,1.1572265625
42.2963314,1.1474609375
42.2966188,1.1474609375
42.3056819,1.15234375
42.340781,1.1474609375
42.3745847,1.1474609375
42.3748781,1.15234375
42.3858926,1.142578125
42.4346004,1.142578125
42.4349758,1.1083984375
42.4473892,1.1328125
42.4680884,1.1669921875
42.5044604,1.220703125
42.510296,1.2744140625
42.5603416,1.3330078125
42.5607775,1.3720703125
42.5712497,1.4111328125
42.5873457,1.4306640625
42.6067415,1.4501953125
42.628356,1.4501953125
42.647921,1.4404296875
42.6837562,1.4208984375
42.6878656,1.40625
42.7370393,1.38671875
42.7374786,1.3623046875
42.7585014,1.3427734375
42.7683043,1.3232421875
42.8021879,1.3134765625
42.8065287,1.298828125
42.8406692,1.2890625
42.8612037,1.2744140625
42.8673849,1.2646484375
42.8996834,1.25
42.9198044,1.2353515625
42.9247988,1.2158203125
42.9587032,1.2109375
42.9806677,1.1962890625
42.9879503,1.19140625
43.0314625,1.181640625
43.031707,1.171875
43.0662126,1.162109375
43.0703861,1.15234375
43.1056188,1.15234375
43.106228,1.142578125
43.1419849,1.142578125
43.1498042,1.1376953125
43.1671809,1.1376953125
43.2083728,1.1328125
43.2087655,1.1474609375
43.2288238,1.1767578125
43.2672552,1.2353515625
43.2831612,1.2890625
43.2907715,1.3525390625
43.3091463,1.3916015625
43.3418792,1.4404296875
43.349286,1.474609375
43.3862831,1.484375
43.3882804,1.494140625
43.4222348,1.484375
43.4466813,1.46484375
43.4495535,1.4404296875
43.4937598,1.4208984375
43.4940163,1.3916015625
43.5137308,1.3720703125
43.5274448,1.3525390625
43.5781856,1.337890625
43.5785182,1.318359375
43.5921116,1.30859375
43.6101078,1.2939453125
43.6446969,1.279296875
43.6715094,1.2646484375
43.6717711,1.2451171875
43.6866621,1.23046875
43.7212078,1.2158203125
43.742901,1.2109375
43.7493414,1.201171875
43.7860078,1.19140625
43.7902735,1.1767578125
43.8255347,1.1669921875
43.8260874,1.15234375
43.8725232,1.15234375
43.8729495,1.1474609375
43.903223,1.1474609375
43.9099971,1.1376953125
43.9575617,1.1376953125
43.9578597,1.1279296875
43.9716011,1.1328125
44.0074937,1.1474609375
44.0078409,1.1767578125
44.049963,1.2353515625
44.050367,1.2646484375
44.0695056,1.337890625
44.1123669,1.396484375
44.1127682,1.4453125
44.1314154,1.4794921875
44.1586142,1.4990234375
44.1728142,1.50390625
44.2211486,1.4990234375
44.2214774,1.484375
44.2297302,1.4697265625
44.2676116,1.4404296875
44.2679338,1.416015625
44.3063581,1.4013671875
44.3241985,1.3720703125
44.3314574,1.3525390625
44.370776,1.3330078125
44.3710756,1.328125
44.3885014,1.30859375
44.4312059,1.2939453125
44.4315255,1.279296875
44.4778526,1.2646484375
44.4819886,1.25
44.4915098,1.2353515625
44.540326,1.2158203125
44.5409011,1.201171875
44.5471105,1.181640625
44.5859934,1.1767578125
44.5881611,1.162109375
44.6229112,1.1572265625
44.6475484,1.1474609375
44.6493911,1.1376953125
44.6843375,1.1328125
44.7058922,1.123046875
44.7123736,1.1181640625
44.7275189,1.11328125
44.7704146,1.11328125
44.7707456,1.123046875
44.7912132,1.1474609375
44.832469,1.19140625
44.8327992,1.2451171875
44.8513965,1.30859375
44.8733431,1.3671875
44.8935966,1.4111328125
44.9327444,1.4501953125
44.9332558,1.474609375
44.9485167,1.4794921875
44.981061,1.484375
45.0018828,1.474609375
45.010633,1.4599609375
45.0317777,1.435546875
45.0735886,1.40625
45.0738499,1.3818359375
45.1086547,1.357421875
45.1089062,1.3330078125
45.1434504,1.328125
45.1647645,1.30859375
45.1700027,1.298828125
45.2119528,1.2744140625
45.2123557,1.259765625
45.2318706,1.240234375
45.2675776,1.2255859375
45.2913799,1.2109375
45.2917786,1.19140625
45.3086955,1.1767578125
45.3422537,1.1669921875
45.3636539,1.1572265625
45.3707226,1.1474609375
45.4040522,1.142578125
45.4246998,1.1376953125
45.4309429,1.1328125
45.4648536,1.123046875
45.4687666,1.123046875
45.5032866,1.123046875
45.5254206,1.123046875
45.5317868,1.1181640625
45.5679398,1.1181640625
45.5728163,1.1328125
45.6081292,1.15234375
45.6122584,1.201171875
45.6295866,1.2548828125
45.6549698,1.318359375
45.6701244,1.337890625
45.7101874,1.3916015625
45.7105932,1.4208984375
45.7466843,1.4404296875
45.7714131,1.4453125
45.771689,1.4453125
45.803546,1.42578125
45.8260188,1.4013671875
45.8303982,1.376953125
45.8513864,1.3525390625
45.8936512,1.337890625
45.8940143,1.328125
45.9169841,1.318359375
45.9338993,1.3037109375
45.9541214,1.2890625
45.9894464,1.2744140625
45.9948908,1.259765625
46.0098033,1.2451171875
46.0547042,1.2353515625
46.0552855,1.220703125
46.0850108,1.2158203125
46.0925933,1.201171875
46.1136071,1.1865234375
46.1491058,1.1767578125
46.1530858,1.1669921875
46.1707918,1.1572265625
46.2181079,1.1572265625
46.2226319,1.1572265625
46.2327191,1.15234375
46.2524366,1.1474609375
46.2719986,1.142578125
46.3071869,1.1376953125
46.3134093,1.1328125
46.3499571,1.1376953125
46.3503577,1.162109375
46.3852459,1.2109375
46.3907921,1.2744140625
46.4255835,1.3427734375
46.4463965,1.396484375
46.4510255,1.435546875
46.4836855,1.4599609375
46.505183,1.474609375
46.5279426,1.4697265625
46.5353728,1.435546875
46.5784519,1.4208984375
46.5786966,1.4013671875
46.5911766,1.38671875
46.629968,1.3671875
46.6305501,1.3525390625
46.6671379,1.3330078125
46.6911596,1.3232421875
46.6914791,1.30859375
46.728958,1.298828125
46.7525918,1.279296875
46.7528373,1.26953125
46.7873572,1.2548828125
46.792423,1.25
46.8288312,1.23046875
46.8335938,1.2158203125
46.8726354,1.2060546875
46.8752354,1.1865234375
46.9203317,1.1767578125
46.9206503,1.162109375
46.9312985,1.162109375
46.982114,1.1474609375
46.9823586,1.1474609375
47.0113381,1.142578125
47.0304307,1.142578125
47.0354725,1.1328125
47.0547714,1.1279296875
47.071839,1.11328125
47.1090839,1.1279296875
47.1108653,1.1572265625
47.1460294,1.2109375
47.1645614,1.2646484375
47.1732624,1.3330078125
47.2162399,1.38671875
47.2166041,1.42578125
47.2468135,1.455078125
47.2508267,1.4697265625
47.2909546,1.4794921875
47.3221349,1.4794921875
47.3224105,1.4697265625
47.3462499,1.4501953125
47.3551453,1.4208984375
47.3927174,1.396484375
47.3930795,1.3671875
47.4411826,1.34765625
47.4414369,1.3330078125
47.462105,1.3134765625
47.473095,1.298828125
47.5173547,1.2939453125
47.5178992,1.2744140625
47.5334746,1.259765625
47.5832145,1.240234375
47.5838527,1.23046875
47.5937175,1.2109375
47.6299587,1.201171875
47.6537374,1.1865234375
47.6543867,1.1767578125
47.6734529,1.1669921875
47.6936081,1.1572265625
47.7299809,1.142578125
47.7328014,1.142578125
47.757279,1.1328125
47.7749086,1.123046875
47.7912293,1.11328125
47.8309907,1.1181640625
47.8312337,1.1181640625
47.8596196,1.1181640625
47.8745699,1.1328125
47.8933124,1.162109375
47.9401822,1.2158203125
47.9405972,1.2744140625
47.9608373,1.3427734375
47.9721162,1.3916015625
48.0128565,1.4404296875
48.0131011,1.4697265625
48.0328294,1.494140625
48.0676767,1.4990234375
48.0883717,1.494140625
48.0954034,1.474609375
48.1307962,1.4501953125
48.1355962,1.42578125
48.1646199,1.396484375
48.1912628,1.3671875
48.1917504,1.3427734375
48.2324691,1.328125
48.2328127,1.3134765625
48.2800905,1.3037109375
48.2804136,1.2841796875
48.2948882,1.26953125
48.3305854,1.25
48.3500939,1.2353515625
48.3519909,1.2158203125
48.3852619,1.2060546875
48.4077699,1.19140625
48.4146587,1.181640625
48.4664708,1.171875
48.4667247,1.171875
48.4755436,1.1669921875
48.5194495,1.1572265625
48.5197723,1.1474609375
48.5351232,1.142578125
48.5706154,1.1376953125
48.5753959,1.1376953125
48.5952367,1.1376953125
48.6426792,1.1328125
48.6434074,1.1328125
48.6562763,1.1376953125
48.6756368,1.171875
48.6929725,1.220703125
48.7133662,1.2841796875
48.750615,1.3427734375
48.7557579,1.396484375
48.7790553,1.4453125
48.7943991,1.46484375
48.838309,1.4794921875
48.8386931,1.474609375
48.8734913,1.46484375
48.8738913,1.4404296875
48.9066903,1.4208984375
48.9274489,1.396484375
48.9330266,1.376953125
48.9694447,1.357421875
48.993513,1.3427734375
48.9937844,1.3232421875
49.0303959,1.3037109375
49.0551448,1.2890625
49.0554971,1.2744140625
49.0742681,1.2548828125
49.1162301,1.25
49.11666,1.2353515625
49.1516127,1.2158203125
49.156883,1.201171875
49.1737259,1.1865234375
49.2181491,1.1767578125
49.2185562,1.1572265625
49.2522748,1.1474609375
49.2526359,1.1376953125
49.2845785,1.1328125
49.2969912,1.1279296875
49.3420325,1.1181640625
49.3423574,1.1083984375
49.3573574,1.1083984375
49.3848722,1.0986328125
49.3981834,1.09375
49.4427684,1.09375
49.4431076,1.0986328125
49.4550777,1.1328125
49.4749908,1.1865234375
49.5192213,1.259765625
49.5195716,1.3134765625
49.5500772,1.3720703125
49.5574788,1.40625
49.5773259,1.4306640625
49.5940752,1.4404296875
49.6361698,1.4501953125
49.6364133,1.4404296875
49.6565412,1.42578125
49.6763855,1.4013671875
49.7106804,1.3818359375
49.7157735,1.3525390625
49.7526469,1.337890625
49.7554112,1.3232421875
49.779124,1.3037109375
49.8138589,1.2646484375
49.8141217,1.2548828125
49.8525911,1.25
49.883157,1.2451171875
49.8835071,1.240234375
49.8964432,1.2255859375
49.9333831,1.2158203125
49.9389023,1.201171875
49.9745756,1.1865234375
49.9748785,1.1767578125
49.9977792,1.171875
50.0158661,1.1669921875
50.0581428,1.1572265625
50.058547,1.1572265625
50.0772734,1.1474609375
50.1196961,1.1474609375
50.120014,1.1376953125
50.1487757,1.1376953125
50.1550276,1.1279296875
50.1913387,1.1376953125
50.1962133,1.15234375
50.2319657,1.1962890625
50.2361898,1.25
50.2882483,1.3134765625
50.2885342,1.357421875
50.298329,1.396484375
50.3145685,1.4208984375
50.3364149,1.4404296875
50.3562828,1.4453125
50.4012066,1.4453125
50.4014621,1.4306640625
50.4168843,1.40625
50.4537615,1.3818359375
50.4730128,1.357421875
50.4770047,1.337890625
50.5109181,1.318359375
50.5149428,1.3134765625
50.5583327,1.30859375
50.5586888,1.3037109375
50.5887631,1.2939453125
50.5981732,1.279296875
50.6340533,1.2646484375
50.6367995,1.2548828125
50.6733128,1.2353515625
50.6972689,1.220703125
50.6976884,1.2109375
50.7167256,1.19140625
50.7695468,1.1865234375
50.7697964,1.1767578125
50.7770312,1.1767578125
50.815358,1.162109375
50.8456669,1.1572265625
50.8459308,1.15234375
50.8604009,1.15234375
50.875699,1.142578125
50.9118354,1.142578125
50.9166309,1.1376953125
50.9651245,1.15234375
50.9654558,1.181640625
50.9867089,1.2353515625
50.9991665,1.2890625
51.0421851,1.3623046875
51.0424566,1.416015625
51.0542034,1.4453125
51.0891275,1.4794921875
51.1207992,1.494140625
51.1211954,1.4990234375
51.1385922,1.4892578125
51.1811834,1.4794921875
51.1816226,1.455078125
51.2297142,1.42578125
51.2301313,1.4013671875
51.235001,1.3818359375
51.269098,1.3671875
51.2908044,1.3525390625
51.2980176,1.3330078125
51.340775,1.318359375
51.34117,1.30859375
51.3860628,1.2890625
51.3863869,1.26953125
51.4006179,1.25
51.4481839,1.2109375
51.4486119,1.1962890625
51.4574669,1.1962890625
51.4926349,1.1865234375
51.4984777,1.1865234375
51.5321805,1.171875
51.5515655,1.171875
51.5611756,1.162109375
51.6087958,1.1572265625
51.6090956,1.15234375
51.6177014,1.1474609375
51.6590659,1.142578125
51.6640187,1.1474609375
51.6796222,1.1474609375
51.6972422,1.15234375
51.7360471,1.181640625
51.7384911,1.23046875
51.7652118,1.298828125
51.7764387,1.3525390625
51.8240583,1.4208984375
51.8244362,1.46484375
51.8460861,1.4990234375
51.8590203,1.513671875
51.8985869,1.5234375
51.9183024,1.513671875
51.920917,1.4990234375
51.935079,1.474609375
51.9702283,1.4501953125
51.9906349,1.4306640625
51.9976778,1.40625
52.0320929,1.3818359375
52.0553917,1.3623046875
52.0597923,1.34765625
52.0812411,1.3232421875
52.1207977,1.30859375
52.1211726,1.2890625
52.1388805,1.2744140625
52.1706571,1.259765625
52.1774527,1.25
52.2142094,1.23046875
52.2411841,1.220703125
52.2417518,1.2060546875
52.2587968,1.1962890625
52.2957985,1.1767578125
52.3275153,1.171875
52.3277607,1.162109375
52.3389717,1.1474609375
52.3585405,1.142578125
52.3951151,1.1376953125
52.3999817,1.1376953125
52.4346173,1.1328125
52.467854,1.1279296875
52.4681772,1.123046875
52.481723,1.1328125
52.4988771,1.1669921875
52.537221,1.2255859375
52.5375444,1.2939453125
52.5832743,1.3720703125
52.5835673,1.42578125
52.603995,1.4697265625
52.6236163,1.50390625
52.641822,1.513671875
52.6624506,1.5185546875
52.6920417,1.50390625
52.6971984,1.494140625
52.7347663,1.46484375
52.7681739,1.4404296875
52.7685262,1.4111328125
52.7807273,1.38671875
52.8167806,1.3623046875
52.8209478,1.3427734375
52.8536904,1.3232421875
52.8575485,1.30859375
52.8917127,1.2890625
52.9123672,1.279296875
52.9195361,1.2548828125
52.9721058,1.2451171875
52.9724473,1.23046875
52.9808648,1.2109375
53.0170596,1.1962890625
53.0224223,1.181640625
53.0571776,1.1328125
53.0784612,1.1279296875
53.0788182,1.1279296875
53.1139455,1.1279296875
53.1346594,1.1279296875
53.1421073,1.1279296875
53.1628657,1.123046875
53.1825699,1.1181640625
53.2213086,1.1181640625
53.2216687,1.11328125
53.2405572,1.1181640625
53.2821571,1.142578125
53.2824122,1.181640625
53.3163539,1.2451171875
53.3439283,1.3037109375
53.3444189,1.3720703125
53.361003,1.4111328125
53.3953575,1.4501953125
53.4194671,1.4697265625
53.4198544,1.484375
53.4668867,1.4794921875
53.4672815,1.4697265625
53.4864381,1.4453125
53.5010204,1.42578125
53.53334,1.396484375
53.555299,1.3720703125
53.5558411,1.34765625
53.5907722,1.34765625
53.6121493,1.337890625
53.6211113,1.3232421875
53.6398703,1.30859375
53.6606897,1.2939453125
53.6960838,1.279296875
53.7266461,1.259765625
53.7269147,1.2451171875
53.7401017,1.2255859375
53.7763877,1.2158203125
53.7768806,1.201171875
53.8177621,1.19140625
53.8379378,1.181640625
53.8424387,1.171875
53.8805153,1.162109375
53.8808637,1.1572265625
53.9199529,1.15234375
53.9538373,1.142578125
53.9544241,1.142578125
53.9597339,1.1328125
53.9962911,1.1376953125
54.0195988,1.1376953125
54.0198462,1.1669921875
54.0561024,1.2109375
54.0814082,1.2744140625
54.0816523,1.337890625
54.1174519,1.396484375
54.1370029,1.4306640625
54.1390581,1.46484375
54.1767223,1.474609375
54.18123,1.4794921875
54.220781,1.4697265625
54.2210956,1.4501953125
54.2407459,1.42578125
54.2761723,1.396484375
54.296323,1.3671875
54.3010378,1.34765625
54.3447417,1.3330078125
54.3450661,1.318359375
54.3601591,1.30859375
54.4055793,1.298828125
54.4059543,1.2890625
54.4272415,1.2744140625
54.4436357,1.259765625
54.4605799,1.240234375
54.4802866,1.23046875
54.5219726,1.2158203125
54.522271,1.2060546875
54.5616424,1.1962890625
54.5666637,1.181640625
54.5835918,1.1669921875
54.6294443,1.1572265625
54.629924,1.1572265625
54.6447505,1.15234375
54.6647285,1.123046875
54.6821498,1.09375
54.7175707,1.1083984375
54.7227816,1.11328125
54.7561043,1.1279296875
54.7766864,1.1474609375
54.7832076,1.19140625
54.8153703,1.25
54.8374507,1.328125
54.8427151,1.3818359375
54.8801082,1.4453125
54.8804536,1.4892578125
54.9251384,1.513671875
54.9254723,1.533203125
54.9448705,1.533203125
54.9644301,1.5234375
55.0001741,1.4990234375
55.0029933,1.474609375
55.020612,1.4453125
55.0669144,1.42578125
55.0673402,1.40625
55.0966983,1.38671875
55.1013646,1.3671875
55.1352298,1.357421875
55.1600328,1.337890625
55.1641962,1.3232421875
55.2006318,1.30859375
55.2207014,1.2841796875
55.2209758,1.26953125
55.2587759,1.2548828125
55.2882457,1.2451171875
55.288738,1.2255859375
55.3035854,1.2109375
55.3394364,1.1962890625
55.3426241,1.1865234375
55.3768531,1.1669921875
55.3818954,1.1669921875
55.4168149,1.1572265625
55.4215502,1.15234375
55.4624772,1.1376953125
55.4805819,1.1328125
55.4808284,1.1181640625
55.527081,1.123046875
55.5273248,1.1376953125
55.5566398,1.1669921875
55.5652551,1.2255859375
55.5823844,1.2890625
55.6189372,1.357421875
55.6210783,1.416015625
55.6709336,1.46484375
55.6886244,1.494140625
55.6889101,1.513671875
55.7104947,1.513671875
55.7253854,1.50390625
55.7417775,1.4892578125
55.7858422,1.46484375
55.7861566,1.435546875
55.8036259,1.40625
55.8248694,1.3818359375
55.8608701,1.357421875
55.8800812,1.337890625
55.8842695,1.318359375
55.9222499,1.3037109375
55.9225504,1.279296875
55.9726465,1.26953125
55.9730498,1.25
55.9834235,1.2353515625
56.0197094,1.2158203125
56.0238678,1.2060546875
56.0574314,1.1865234375
56.0796545,1.171875
56.0800682,1.1572265625
56.1204934,1.15234375
56.1209583,1.142578125
56.1559086,1.1376953125
56.17746,1.1376953125
56.1846602,1.1279296875
56.2365076,1.123046875
56.2368328,1.11328125
56.2431453,1.1083984375
56.2780056,1.0986328125
56.2876883,1.0693359375
56.304248,1.0595703125
56.3431015,1.11328125
56.3433438,1.181640625
56.3760874,1.259765625
56.3955439,1.328125
56.4053769,1.396484375
56.4254004,1.435546875
56.4630686,1.4697265625
56.4937897,1.494140625
56.4942047,1.494140625
56.5040428,1.494140625
56.5250764,1.474609375
56.5624315,1.4501953125
56.5628658,1.4208984375
56.6102847,1.396484375
56.6106899,1.3671875
56.629581,1.34765625
56.6429139,1.328125
56.680284,1.3232421875
56.713068,1.30859375
56.7134132,1.298828125
56.7237418,1.2841796875
56.7615796,1.2646484375
56.7667748,1.2451171875
56.8002788,1.2353515625
56.8058659,1.220703125
56.8215782,1.201171875
56.8537614,1.19140625
56.8827226,1.181640625
56.8831527,1.1767578125
56.9166725,1.1669921875
56.9376434,1.1572265625
56.9447618,1.15234375
56.9862552,1.1474609375
56.9866698,1.1376953125
57.0202059,1.1328125
57.0247281,1.1279296875
57.0441589,1.1328125
57.0851668,1.1181640625
57.0854785,1.123046875
57.1163408,1.1474609375
57.1241503,1.181640625
57.1595248,1.240234375
57.1877393,1.298828125
57.192366,1.3623046875
57.2045672,1.40625
57.2240332,1.4404296875
57.2604977,1.46484375
57.2651569,1.474609375
57.3010315,1.4697265625
57.3270265,1.46484375
57.3272666,1.435546875
57.3593328,1.40625
57.3816051,1.376953125
57.3818527,1.3623046875
57.4156007,1.337890625
57.4366569,1.328125
57.446063,1.318359375
57.4659695,1.298828125
57.5034456,1.2841796875
57.5075876,1.26953125
57.5440405,1.25
57.5442987,1.2353515625
57.5779883,1.23046875
57.5982172,1.2158203125
57.6053584,1.2060546875
57.640691,1.19140625
57.6665654,1.181640625
57.6668105,1.1669921875
57.7040766,1.162109375
57.704477,1.15234375
57.7238455,1.1474609375
57.7744543,1.1474609375
57.7751699,1.142578125
57.7849774,1.142578125
57.8215015,1.1328125
57.8425108,1.1279296875
57.8478853,1.11328125
57.8861737,1.11328125
57.886445,1.11328125
57.9200278,1.11328125
57.9256982,1.1376953125
57.9453024,1.220703125
57.9653277,1.2890625
58.0028491,1.3525390625
58.0080868,1.396484375
58.0312701,1.42578125
58.0474177,1.4404296875
58.0826126,1.4404296875
58.087712,1.4306640625
58.1349315,1.40625
58.1398001,1.38671875
58.1471083,1.3720703125
58.184328,1.3525390625
58.1846847,1.3330078125
58.2299405,1.318359375
58.230279,1.30859375
58.2498715,1.2939453125
58.2649092,1.2841796875
58.3006034,1.2744140625
58.3050818,1.259765625
58.3385348,1.25
58.3579591,1.2353515625
58.366289,1.220703125
58.4024107,1.2158203125
58.4310275,1.1962890625
58.4314377,1.1865234375
58.4455406,1.171875
58.4807125,1.1669921875
58.485488,1.162109375
58.5211407,1.1572265625
58.5423567,1.1474609375
58.5463442,1.1474609375
58.592241,1.1376953125
58.5926443,1.1376953125
58.6137648,1.1328125
58.6406458,1.1376953125
58.6449123,1.1474609375
58.6911625,1.181640625
58.6916834,1.23046875
58.711972,1.30859375
58.7273531,1.3720703125
58.7722497,1.4208984375
58.7726095,1.455078125
58.8064515,1.474609375
58.8070714,1.4794921875
58.8239112,1.474609375
58.8582298,1.46484375
58.8781186,1.4453125
58.887668,1.42578125
58.9219987,1.4013671875
58.9459942,1.376953125
58.9462896,1.357421875
58.9827684,1.3427734375
59.0125133,1.3232421875
59.0129407,1.3134765625
59.025676,1.30859375
59.0624865,1.2939453125
59.0672721,1.2841796875
59.1022178,1.2646484375
59.1217915,1.25
59.1277969,1.23046875
59.1636911,1.2158203125
59.1819598,1.1962890625
59.1840882,1.1865234375
59.2293555,1.181640625
59.2296888,1.1767578125
59.2514942,1.1669921875
59.2682356,1.162109375
59.3051134,1.15234375
59.3106024,1.1474609375
59.3270153,1.1376953125
59.3479692,1.142578125
59.3663631,1.142578125
59.4023733,1.142578125
59.4243834,1.1669921875
59.4297563,1.2109375
59.4487982,1.279296875
59.4705507,1.337890625
59.489471,1.4013671875
59.5105716,1.4453125
59.5300236,1.455078125
59.5464742,1.455078125
59.5682666,1.4892578125
59.5879266,1.50390625
59.6387043,1.5087890625
59.6390344,1.4892578125
59.6501432,1.46484375
59.6690939,1.4453125
59.6908357,1.416015625
59.7279948,1.38671875
59.7284566,1.3671875
59.7767422,1.357421875
59.7770753,1.3427734375
59.8077714,1.3330078125
59.808259,1.3134765625
59.8280044,1.3037109375
59.8619367,1.2841796875
59.8841192,1.26953125
59.8845352,1.2451171875
59.9182804,1.2353515625
59.9524781,1.220703125
59.9528181,1.2109375
59.9689023,1.1962890625
60.0154328,1.1865234375
60.015833,1.181640625
60.0292035,1.1669921875
60.0738768,1.162109375
60.0741692,1.15234375
60.0950036,1.15234375
60.1077122,1.1474609375
60.1498909,1.142578125
60.1502139,1.1376953125
60.183288,1.1474609375
60.2027648,1.171875
60.2096317,1.23046875
60.225398,1.2939453125
60.2597336,1.3671875
60.2884221,1.4208984375
60.2887399,1.4697265625
60.3361973,1.5087890625
60.3364831,1.5234375
60.3493358,1.533203125
60.398904,1.5234375
60.3992258,1.513671875
60.4106185,1.484375
60.4598386,1.4599609375
60.4601562,1.4306640625
60.4678065,1.4111328125
60.4975837,1.38671875
60.5249381,1.3671875
60.5290357,1.34765625
60.5628563,1.328125
60.5825383,1.30859375
60.5905558,1.2939453125
60.6081519,1.26953125
60.645168,1.259765625
60.6502719,1.25
60.6918882,1.23046875
60.6971441,1.220703125
60.7100852,1.2060546875
60.7318081,1.19140625
60.7520713,1.1767578125
60.7870871,1.171875
60.7874945,1.1572265625
60.82088,1.15234375
60.8418832,1.1474609375
60.8480982,1.142578125
60.882536,1.1376953125
60.9179742,1.1328125
60.9182259,1.123046875
60.9311532,1.1181640625
60.9798527,1.123046875
60.9801563,1.1328125
60.9879161,1.181640625
61.0246846,1.2451171875
61.0288616,1.318359375
61.0723327,1.3720703125
61.0726695,1.42578125
61.0907565,1.4599609375
61.1372393,1.4892578125
61.1375222,1.4990234375
61.1699259,1.474609375
61.1702899,1.4404296875
61.2074111,1.4453125
61.2077171,1.42578125
61.2503037,1.4111328125
61.2505534,1.38671875
61.2808581,1.376953125
61.2910807,1.357421875
61.32589,1.3427734375
61.3456204,1.328125
61.3477075,1.30859375
61.3860953,1.298828125
61.3882036,1.2841796875
61.4221403,1.26953125
61.4439116,1.25
61.451549,1.2353515625
61.4950942,1.2158203125
61.4954952,1.1962890625
61.5068578,1.181640625
61.5454259,1.171875
61.5487983,1.162109375
61.5836798,1.1572265625
61.6047158,1.15234375
61.6091813,1.142578125
61.6506617,1.1376953125
61.6510513,1.1328125
61.6721558,1.1328125
61.6892126,1.123046875
61.7091863,1.1181640625
61.7614327,1.123046875
61.7616758,1.142578125
61.7699946,1.181640625
61.8066992,1.2451171875
61.8108623,1.3037109375
61.8550415,1.357421875
61.8557021,1.396484375
61.88534,1.42578125
61.889451,1.4453125
61.9105284,1.455078125
61.9463084,1.4501953125
61.9515616,1.435546875
61.992718,1.416015625
61.9929777,1.38671875
62.0137439,1.3623046875
62.0595544,1.3427734375
62.0598565,1.328125
62.0707281,1.3134765625
62.1219853,1.298828125
62.1223098,1.2890625
62.1305046,1.279296875
62.1515655,1.26953125
62.1716634,1.259765625
62.2064016,1.2451171875
62.2289862,1.23046875
62.2332673,1.220703125
62.2507424,1.2060546875
62.286758,1.201171875
62.2911981,1.19140625
62.3400302,1.181640625
62.3403592,1.171875
62.3518256,1.162109375
62.4013763,1.15234375
62.4018096,1.142578125
62.4085489,1.1328125
62.4442283,1.1328125
62.4796053,1.1279296875
62.4799664,1.1279296875
62.4913034,1.123046875
62.5278741,1.1279296875
62.5330023,1.1474609375
62.5755849,1.1962890625
62.5759554,1.2646484375
62.5893065,1.3232421875
62.6238661,1.3818359375
62.6457631,1.42578125
62.6504754,1.4599609375
62.6859013,1.474609375
62.7145851,1.4892578125
62.7149851,1.484375
62.7588995,1.46484375
62.7593019,1.4404296875
62.7745718,1.416015625
62.7897881,1.3623046875
62.824052,1.3671875
62.8445422,1.3623046875
62.8509567,1.357421875
62.8844231,1.3525390625
62.9143105,1.337890625
62.9147024,1.318359375
62.9473824,1.3037109375
62.9699805,1.2890625
62.97023,1.2646484375
63.0041879,1.25
63.026364,1.2353515625
63.0326533,1.2255859375
63.0533032,1.2109375
63.1084893,1.201171875
63.1088765,1.1865234375
63.1159354,1.1767578125
63.1293612,1.162109375
63.1720736,1.15234375
63.1724107,1.142578125
63.1921701,1.142578125
63.2237277,1.1328125
63.2450332,1.1279296875
63.2512285,1.123046875
63.2882522,1.11328125
63.3086845,1.103515625
63.3090906,1.1083984375
63.3580224,1.142578125
63.3582713,1.1962890625
63.3791475,1.26953125
63.3934746,1.3330078125
63.4173767,1.3916015625
63.4332638,1.4306640625
63.46905,1.46484375
63.4692988,1.484375
63.5207738,1.4892578125
63.5364133,1.4990234375
63.5366623,1.484375
63.5523576,1.46484375
63.5989062,1.4306640625
63.5991649,1.40625
63.6215289,1.3720703125
63.6351644,1.3525390625
63.6770803,1.3232421875
63.6775415,1.3037109375
63.6910228,1.279296875
63.740229,1.26953125
63.7405686,1.25
63.7623014,1.240234375
63.772521,1.2255859375
63.817521,1.2109375
63.8178587,1.19140625
63.8374804,1.1865234375
63.8706969,1.171875
63.8711379,1.1572265625
63.9066121,1.1474609375
63.9282026,1.1376953125
63.9337103,1.1279296875
63.9553802,1.1181640625
63.9741032,1.11328125
63.9945607,1.103515625
64.0371515,1.0986328125
64.037765,1.09375
64.0508446,1.0888671875
64.0990085,1.0888671875
64.0993036,1.09375
64.1147285,1.0888671875
64.1591078,1.09375
64.1594603,1.1181640625
64.1732458,1.15234375
64.2076403,1.2158203125
64.2372442,1.2744140625
64.2376766,1.337890625
64.2529293,1.3818359375
64.2746012,1.4208984375
64.2954975,1.4404296875
64.313445,1.455078125
64.3500459,1.4501953125
64.3542009,1.4453125
64.3883245,1.42578125
64.3969646,1.4013671875
64.4123377,1.34765625
64.4524636,1.3330078125
64.4527326,1.3134765625
64.4727234,1.30859375
64.5085676,1.298828125
64.530031,1.279296875
64.5340404,1.2646484375
64.5677201,1.25
64.5893601,1.2353515625
64.5947427,1.2158203125
64.6130533,1.2060546875
64.63462,1.1962890625
64.652974,1.181640625
64.6900364,1.1669921875
64.6941519,1.1572265625
64.7274565,1.142578125
64.7491745,1.1328125
64.7545327,1.1181640625
64.7726368,1.11328125
64.8100274,1.11328125
64.8405029,1.1083984375
64.840999,1.103515625
64.854167,1.0986328125
64.8869299,1.103515625
64.9072327,1.0986328125
64.9156802,1.09375
64.9328538,1.0888671875
64.9805308,1.0888671875
64.9808619,1.0986328125
65.0002921,1.1376953125
65.0139859,1.1767578125
65.0553391,1.2451171875
65.055671,1.298828125
65.0753961,1.34765625
65.1087332,1.376953125
65.1107079,1.4111328125
65.144095,1.4306640625
65.1638537,1.4306640625
65.1740101,1.4208984375
65.210309,1.4013671875
65.2450729,1.376953125
65.2454547,1.3525390625
65.2558706,1.337890625
65.3066853,1.3134765625
65.3070458,1.298828125
65.3150461,1.279296875
65.3339605,1.26953125
65.3843645,1.259765625
65.3846247,1.2548828125
65.3973115,1.240234375
65.4160401,1.23046875
65.4519689,1.2158203125
65.4561319,1.1962890625
65.4887607,1.181640625
65.5106253,1.162109375
65.5160967,1.15234375
65.5347993,1.1376953125
65.5557706,1.123046875
65.5901323,1.1083984375
65.5941457,1.0986328125
65.6272491,1.0888671875
65.6487937,1.083984375
65.6543023,1.07421875
65.6730987,1.07421875
65.709915,1.07421875
65.7296501,1.07421875
65.733517,1.064453125
65.7670214,1.07421875
65.7898683,1.0791015625
65.7974958,1.0986328125
65.8185434,1.1474609375
65.8343787,1.201171875
65.8558099,1.259765625
65.8763149,1.30859375
65.8945179,1.34765625
65.9429604,1.3671875
65.9437189,1.376953125
65.9571219,1.376953125
65.9782976,1.3671875
65.9935967,1.3427734375
66.0357214,1.328125
66.0359914,1.279296875
66.0678975,1.26953125
66.0896619,1.2744140625
66.0935648,1.2646484375
66.1277372,1.259765625
66.1602687,1.2548828125
66.1606442,1.25
66.1791866,1.240234375
66.197566,1.23046875
66.2146905,1.2158203125
66.2533247,1.2109375
66.2537129,1.1962890625
66.2775672,1.19140625
66.2956529,1.1767578125
66.330512,1.1669921875
66.3519474,1.1572265625
66.3581301,1.1474609375
66.3731312,1.1328125
66.4076526,1.1376953125
66.4281969,1.1376953125
66.4344191,1.1328125
66.4674317,1.1328125
66.4873417,1.1279296875
66.4954032,1.123046875
66.5282542,1.11328125
66.548395,1.1181640625
66.5525197,1.1279296875
66.5860743,1.162109375
66.6089465,1.2109375
66.6150811,1.26953125
66.6496187,1.318359375
66.6719984,1.3720703125
66.6760487,1.4013671875
66.7099717,1.4208984375
66.7373134,1.435546875
66.7377346,1.4306640625
66.7532729,1.42578125
66.7867647,1.40625
66.8093577,1.3916015625
66.8157843,1.3720703125
66.8628365,1.3525390625
66.8631817,1.3330078125
66.8787131,1.318359375
66.8992861,1.3037109375
66.92033,1.298828125
66.9365282,1.2890625
66.957775,1.2841796875
66.9758288,1.26953125
67.016014,1.259765625
67.0460952,1.2451171875
67.0463615,1.240234375
67.0586583,1.2255859375
67.109788,1.2109375
67.1102427,1.1962890625
67.1152163,1.1865234375
67.1367887,1.1767578125
67.1584008,1.171875
67.177266,1.171875
67.214461,1.1669921875
67.2166571,1.162109375
67.2490646,1.15234375
67.2714556,1.1474609375
67.2768083,1.142578125
67.2972795,1.1376953125
67.3163093,1.1328125
67.3566101,1.142578125
67.3568676,1.171875
67.3899552,1.2109375
67.4114778,1.26953125
67.4180582,1.3232421875
67.4541781,1.376953125
67.4545838,1.4111328125
67.4956593,1.4453125
67.495994,1.4599609375
67.5158538,1.474609375
67.5499429,1.46484375
67.5720973,1.4599609375
67.5779631,1.435546875
67.6120895,1.4111328125
67.6342856,1.38671875
67.6385721,1.3720703125
67.6724505,1.318359375
67.6767748,1.3232421875
67.7144722,1.3232421875
67.7164761,1.3134765625
67.7590362,1.3037109375
67.7595357,1.2939453125
67.8046638,1.279296875
67.8051101,1.259765625
67.8206584,1.25
67.8356613,1.2353515625
67.8830452,1.2255859375
67.8833818,1.2158203125
67.9028833,1.2060546875
67.9174875,1.19140625
67.9504246,1.19140625
67.9704077,1.181640625
67.9789664,1.1767578125
68.0139282,1.171875
68.0361096,1.162109375
68.0364444,1.162109375
68.083972,1.1572265625
68.0843302,1.1572265625
68.0981012,1.1474609375
68.1325364,1.142578125
68.1621801,1.15234375
68.1624802,1.181640625
68.1747309,1.2255859375
68.2068604,1.2939453125
68.2287401,1.34765625
68.2396732,1.4013671875
68.2594736,1.435546875
68.2788964,1.4697265625
68.3144335,1.4892578125
68.3185518,1.4990234375
68.3533671,1.494140625
68.3735703,1.474609375
68.3756711,1.455078125
68.4082224,1.4306640625
68.4289711,1.4111328125
68.4374135,1.38671875
68.4852912,1.376953125
68.4857172,1.3525390625
68.499367,1.337890625
68.5469415,1.3232421875
68.5473792,1.30859375
68.5561529,1.2939453125
68.5914132,1.2841796875
68.6115587,1.26953125
68.6178566,1.2548828125
68.6534409,1.2451171875
68.6739976,1.23046875
68.6779083,1.2158203125
68.7115069,1.201171875
68.7316286,1.19140625
68.7358751,1.1767578125
68.7698544,1.171875
68.7936062,1.162109375
68.7975853,1.162109375
68.8320811,1.15234375
68.8531537,1.15234375
68.8593542,1.1376953125
68.8932187,1.1376953125
68.9183897,1.1279296875
68.9187681,1.1328125
68.9652603,1.1474609375
68.965606,1.201171875
68.9787586,1.2548828125
69.0161887,1.30859375
69.0207106,1.3671875
69.0552303,1.40625
69.0594032,1.435546875
69.0938717,1.455078125
69.0983348,1.4697265625
69.1484886,1.474609375
69.1488454,1.46484375
69.1602183,1.4453125
69.2119932,1.4208984375
69.2123072,1.396484375
69.2205535,1.376953125
69.2375343,1.357421875
69.2728048,1.34765625
69.2811038,1.30859375
69.3136466,1.26953125
69.3178815,1.2744140625
69.3519422,1.26953125
69.3738951,1.26953125
69.3805194,1.2548828125
69.4020179,1.2548828125
69.4209856,1.2353515625
69.442566,1.2255859375
69.4579117,1.2109375
69.5058641,1.2109375
69.5061983,1.201171875
69.5356778,1.1962890625
69.5397801,1.1865234375
69.5730036,1.1767578125
69.5946392,1.1669921875
69.6027119,1.1669921875
69.6220224,1.162109375
69.6387357,1.15234375
69.6764043,1.15234375
69.6766696,1.1474609375
69.718602,1.1572265625
69.7188304,1.171875
69.7538744,1.2109375
69.7735492,1.2548828125
69.781571,1.30859375
69.8156832,1.3525390625
69.8159508,1.3916015625
69.8527134,1.416015625
69.8723355,1.435546875
69.8783909,1.435546875
69.9238597,1.4306640625
69.9241309,1.4208984375
69.9439627,1.4013671875
69.977684,1.3818359375
69.9779682,1.3671875
70.0184543,1.357421875
70.0191225,1.34765625
70.0397583,1.337890625
70.0728865,1.328125
70.093898,1.318359375
70.0998481,1.3037109375
70.1338612,1.2939453125
70.1598434,1.279296875
70.160186,1.2646484375
70.179124,1.25
70.2198105,1.240234375
70.2201372,1.220703125
70.2535332,1.220703125
70.2732261,1.2109375
70.2813828,1.1962890625
70.3305044,1.19140625
70.3308326,1.1767578125
70.3607498,1.171875
70.3610644,1.162109375
70.3963682,1.162109375
70.4018128,1.1572265625
70.4206414,1.15234375
70.4411645,1.1474609375
70.4761871,1.1572265625
70.4802641,1.1767578125
70.5145304,1.2255859375
70.5482882,1.2744140625
70.5486978,1.3330078125
70.5584559,1.38671875
70.5947735,1.4208984375
70.6261913,1.4501953125
70.6265985,1.4599609375
70.6421988,1.4697265625
70.6912518,1.4599609375
70.6915853,1.4453125
70.7211433,1.4208984375
70.7213525,1.4013671875
70.7685996,1.38671875
70.7689328,1.3720703125
70.7992205,1.3623046875
70.7995531,1.34765625
70.8456066,1.3330078125
70.8458426,1.3232421875
70.8580012,1.3037109375
70.8919526,1.2939453125
70.9241589,1.2841796875
70.9245149,1.2353515625
70.9567184,1.2255859375
70.9607072,1.220703125
70.9940121,1.2158203125
71.016654,1.2109375
71.0240861,1.2060546875
71.045345,1.201171875
71.0641163,1.19140625
71.0802898,1.181640625
71.101351,1.1767578125
71.1409667,1.1767578125
71.1412656,1.1767578125
71.1734486,1.1669921875
71.1945394,1.162109375
71.2029328,1.162109375
71.2374544,1.1572265625
71.2665076,1.1669921875
71.2668229,1.1962890625
71.2815575,1.259765625
71.3278173,1.318359375
71.3280415,1.3818359375
71.3418749,1.42578125
71.3761154,1.474609375
71.4054222,1.494140625
71.4057372,1.513671875
71.418299,1.5185546875
71.452322,1.5185546875
71.4829253,1.50390625
71.4833241,1.484375
71.516469,1.455078125
71.5386012,1.435546875
71.5440541,1.416015625
71.5648528,1.3916015625
71.6083969,1.3720703125
71.608752,1.357421875
71.6220019,1.3427734375
71.6404471,1.328125
71.6848529,1.3134765625
71.6851733,1.2939453125
71.7042243,1.2744140625
71.7246996,1.2548828125
71.7441241,1.2353515625
71.7926439,1.2158203125
71.7928664,1.2060546875
71.8006404,1.19140625
71.8521401,1.1767578125
71.8523572,1.171875
71.860509,1.1572265625
71.8946085,1.15234375
71.915015,1.1376953125
71.9241079,1.1376953125
71.9618758,1.1279296875
71.9643883,1.123046875
71.9987991,1.11328125
71.9990951,1.11328125
72.0417298,1.11328125
72.0705748,1.1376953125
72.0710786,1.171875
72.0850647,1.2353515625
72.1221244,1.2890625
72.1224972,1.3525390625
72.1644717,1.396484375
72.1647092,1.4453125
72.1982879,1.4794921875
72.2025159,1.4990234375
72.2391098,1.5087890625
72.2410824,1.50390625
72.2741007,1.4892578125
72.2945353,1.46484375
72.3030414,1.4404296875
72.3356138,1.4111328125
72.3416587,1.3916015625
72.3756612,1.3720703125
72.3969487,1.357421875
72.4041619,1.337890625
72.4246246,1.328125
72.4717484,1.30859375
72.4720948,1.2890625
72.4839939,1.2744140625
72.5177214,1.2548828125
72.5271142,1.2353515625
72.5422115,1.19140625
72.578651,1.19140625
72.5992224,1.1865234375
72.6057568,1.1865234375
72.6237804,1.1767578125
72.6611298,1.1669921875
72.6653914,1.15234375
72.7080792,1.1474609375
72.7082798,1.1328125
72.7247318,1.1328125
72.7424335,1.1279296875
72.7792005,1.1279296875
72.8009646,1.1181640625
72.8032547,1.1181640625
72.8469183,1.1181640625
72.8472464,1.1181640625
72.8671932,1.1279296875
72.8828267,1.162109375
72.9234536,1.2158203125
72.9238063,1.26953125
72.956761,1.3330078125
72.97675,1.376953125
72.984075,1.4208984375
73.0311831,1.4453125
73.0313998,1.46484375
73.0515347,1.4697265625
73.0605408,1.4794921875
73.0974595,1.4697265625
73.1176935,1.455078125
73.1218868,1.435546875
73.1555716,1.40625
73.1765966,1.3818359375
73.1856433,1.3623046875
73.2048206,1.34765625
73.2244629,1.328125
73.2589191,1.3134765625
73.263164,1.298828125
73.2842558,1.2890625
73.3203068,1.26953125
73.3246238,1.2548828125
73.3595999,1.2353515625
73.3640356,1.220703125
73.3984027,1.2060546875
73.4241317,1.19140625
73.4244199,1.171875
73.4446684,1.1669921875
73.4794792,1.1572265625
73.4850311,1.15234375
73.5186593,1.1474609375
73.539912,1.1376953125
73.5444299,1.1328125
73.582989,1.123046875
73.5871258,1.1279296875
73.6034244,1.123046875
73.6410449,1.123046875
73.6435041,1.11328125
73.6781629,1.1083984375
73.6992168,1.103515625
73.7057738,1.11328125
73.7400656,1.1279296875
73.7602221,1.171875
73.767797,1.23046875
73.7853935,1.2841796875
73.8053146,1.337890625
73.8398072,1.3818359375
73.8442065,1.4208984375
73.878609,1.435546875
73.9039318,1.4501953125
73.904185,1.4453125
73.9393494,1.435546875
73.9613493,1.4111328125
73.9617826,1.396484375
73.9991256,1.3720703125
74.003824,1.357421875
74.0388849,1.337890625
74.0609361,1.328125
74.0673758,1.30859375
74.1037104,1.30859375
74.1087395,1.2939453125
74.1245166,1.2744140625
74.170596,1.2646484375
74.1709468,1.220703125
74.1835859,1.2158203125
74.2283613,1.2060546875
74.2407763,1.201171875
74.24712,1.19140625
74.2844109,1.181640625
74.2863649,1.1669921875
74.319624,1.1572265625
74.3409458,1.142578125
74.3456408,1.142578125
74.3916527,1.1376953125
74.3920758,1.1376953125
74.4054456,1.1376953125
74.4539394,1.1279296875
74.4543416,1.1279296875
74.4764847,1.1181640625
74.487647,1.1181640625
74.5052167,1.1083984375
74.5478131,1.11328125
74.5481105,1.1279296875
74.5664564,1.1669921875
74.6108907,1.2109375
74.6111918,1.26953125
74.626588,1.318359375
74.6614494,1.357421875
74.6816854,1.376953125
74.6848661,1.396484375
74.7191709,1.4013671875
74.7243167,1.40625
74.758298,1.396484375
74.7813547,1.3720703125
74.7894161,1.3525390625
74.8087611,1.337890625
74.8275763,1.318359375
74.845375,1.3037109375
74.8799934,1.2939453125
74.8843547,1.2890625
74.9220998,1.279296875
74.9245681,1.26953125
74.9608017,1.259765625
74.9826397,1.2451171875
74.9873715,1.2353515625
75.0075318,1.2158203125
75.0444402,1.1767578125
75.0499183,1.1767578125
75.0664356,1.171875
75.0853966,1.1669921875
75.1177745,1.162109375
75.1384743,1.171875
75.1453052,1.171875
75.1683885,1.171875
75.1881182,1.162109375
75.236714,1.1572265625
75.2369616,1.1474609375
75.244712,1.1474609375
75.2773579,1.142578125
75.2986439,1.1474609375
75.3063928,1.142578125
75.3423614,1.142578125
75.3655041,1.15234375
75.3658089,1.19140625
75.4016068,1.2451171875
75.4275359,1.2939453125
75.4277788,1.3525390625
75.4661715,1.3916015625
75.4708531,1.42578125
75.4875495,1.4453125
75.5227439,1.4599609375
75.5265025,1.455078125
75.5627387,1.4453125
75.5908558,1.42578125
75.5912635,1.40625
75.6065038,1.38671875
75.6283564,1.3720703125
75.6468765,1.357421875
75.680716,1.3427734375
75.7007353,1.3330078125
75.7067759,1.318359375
75.7422777,1.30859375
75.77062,1.2890625
75.7753679,1.2841796875
75.7867909,1.2744140625
75.8340079,1.2646484375
75.8345638,1.2451171875
75.8483644,1.2353515625
75.8929499,1.220703125
75.8933843,1.2109375
75.9078373,1.19140625
75.9413701,1.1865234375
75.9629935,1.171875
75.968413,1.162109375
75.9887201,1.15234375
76.0319752,1.1572265625
76.0322858,1.15234375
76.0474594,1.142578125
76.0821779,1.142578125
76.1089496,1.1328125
76.1091983,1.1279296875
76.1256741,1.123046875
76.1691947,1.1376953125
76.1694368,1.1572265625
76.1884134,1.1962890625
76.2242803,1.2451171875
76.2284846,1.30859375
76.2772842,1.3623046875
76.2775366,1.4111328125
76.2860119,1.4453125
76.3232155,1.474609375
76.3275159,1.494140625
76.3698836,1.4990234375
76.3702705,1.494140625
76.4157672,1.484375
76.4161643,1.46484375
76.428539,1.435546875
76.4614272,1.40625
76.4832974,1.3818359375
76.4885163,1.3671875
76.5267687,1.34765625
76.5318974,1.337890625
76.5483775,1.3232421875
76.582117,1.3134765625
76.6035111,1.298828125
76.61097,1.2841796875
76.6308219,1.2646484375
76.665867,1.23046875
76.6710902,1.220703125
76.6882109,1.2109375
76.7074272,1.2060546875
76.7454764,1.1962890625
76.7765505,1.19140625
76.7767991,1.181640625
76.7892128,1.1767578125
76.8107185,1.1669921875
76.8548245,1.162109375
76.8551478,1.15234375
76.8692377,1.1474609375
76.9013386,1.142578125
76.9062043,1.142578125
76.944151,1.1376953125
76.9761735,1.1328125
76.9764182,1.1328125
76.9904023,1.142578125
77.0271326,1.181640625
77.0275438,1.220703125
77.0633959,1.2890625
77.0681462,1.34765625
77.1044198,1.4013671875
77.1094217,1.435546875
77.1417562,1.4599609375
77.1629312,1.4697265625
77.1708768,1.484375
77.1865586,1.474609375
77.2207965,1.4697265625
77.2446832,1.4453125
77.2502909,1.42578125
77.2682469,1.4013671875
77.304047,1.3818359375
77.3261122,1.3623046875
77.330702,1.34765625
77.3712426,1.3330078125
77.371511,1.318359375
77.3929808,1.3037109375
77.4163253,1.2646484375
77.4287498,1.2646484375
77.4643393,1.2548828125
77.4686797,1.2451171875
77.5150296,1.2353515625
77.5383216,1.220703125
77.5387476,1.2060546875
77.5514808,1.1962890625
77.5660187,1.1767578125
77.5998822,1.171875
77.6300792,1.1669921875
77.630478,1.1572265625
77.6654652,1.1572265625
77.6695063,1.15234375
77.7045104,1.15234375
77.7265858,1.1474609375
77.7308122,1.142578125
77.7470808,1.1328125
77.7818793,1.1328125
77.8042372,1.1328125
77.8085847,1.162109375
77.8485546,1.1962890625
77.8804294,1.2548828125
77.8806739,1.30859375
77.8914193,1.3623046875
77.9070119,1.396484375
77.9422712,1.4404296875
77.9631682,1.46484375
77.9678808,1.474609375
78.0028234,1.474609375
78.0236206,1.4599609375
78.0304095,1.4404296875
78.0656555,1.416015625
78.0869778,1.396484375
78.0872965,1.3720703125
78.1364626,1.3623046875
78.1371869,1.34765625
78.1581648,1.3330078125
78.1708948,1.3232421875
78.2133667,1.318359375
78.2139452,1.3037109375
78.2321334,1.2939453125
78.2511791,1.2841796875
78.2717022,1.2646484375
78.3221377,1.25
78.3269047,1.2353515625
78.3290269,1.2255859375
78.3641345,1.2158203125
78.3861804,1.2060546875
78.3917345,1.1962890625
78.4389167,1.1865234375
78.4391728,1.181640625
78.4512001,1.1767578125
78.4865882,1.1669921875
78.4869933,1.1669921875
78.5213656,1.1572265625
78.5430859,1.1572265625
78.5500207,1.15234375
78.5730412,1.162109375
78.5912768,1.19140625
78.6303048,1.2353515625
78.6345789,1.2939453125
78.6494325,1.34765625
78.6695759,1.396484375
78.7075656,1.4306640625
78.7301469,1.4599609375
78.7303982,1.4697265625
78.7660982,1.474609375
78.7703059,1.4599609375
78.8154095,1.4404296875
78.8157426,1.416015625
78.8382058,1.396484375
78.8491616,1.376953125
78.8840561,1.3623046875
78.9041431,1.34765625
78.9101636,1.3330078125
78.9441153,1.318359375
78.9729234,1.3037109375
78.9733091,1.2939453125
78.9894387,1.2744140625
79.0101876,1.2646484375
79.0462823,1.2548828125
79.0514588,1.2451171875
79.0966288,1.2353515625
79.0969674,1.220703125
79.1128073,1.2109375
79.1570181,1.1962890625
79.1579063,1.181640625
79.189149,1.171875
79.1894725,1.162109375
79.2230432,1.171875
79.2505228,1.1767578125
79.2508501,1.1767578125
79.2962213,1.171875
79.2965532,1.1669921875
79.3165327,1.162109375
79.3333585,1.1669921875
79.3700153,1.1962890625
79.3704706,1.240234375
79.4068734,1.30859375
79.4094095,1.3720703125
79.449935,1.4306640625
79.4502939,1.474609375
79.4867611,1.513671875
79.5144354,1.533203125
79.5146821,1.5380859375
79.5498267,1.5380859375
79.5502244,1.5185546875
79.5830161,1.494140625
79.6039129,1.46484375
79.6098885,1.435546875
79.6427622,1.40625
79.6628823,1.38671875
79.6721069,1.3623046875
79.7164579,1.34765625
79.7168014,1.328125
79.7302263,1.3232421875
79.7685311,1.30859375
79.7689482,1.298828125
79.7921204,1.2841796875
79.8259448,1.2744140625
79.8462881,1.2548828125
79.8558228,1.2451171875
79.8735589,1.2255859375
79.9197207,1.2109375
79.9201162,1.1962890625
79.9419755,1.181640625
79.9520558,1.171875
79.9991565,1.1669921875
79.9994031,1.162109375
80.0128631,1.1572265625
80.0524693,1.15234375
80.0527384,1.142578125
80.0896601,1.1376953125
80.120477,1.1279296875
80.1207855,1.1376953125
80.130193,1.162109375
80.1669982,1.2109375
80.1716425,1.2890625
80.2056266,1.34765625
80.2261744,1.416015625
80.2322068,1.4599609375
80.266911,1.5087890625
80.2922023,1.5283203125
80.2968647,1.552734375
80.3121091,1.552734375
80.3333901,1.5478515625
80.3706682,1.5234375
80.3724975,1.4990234375
80.4173358,1.46484375
80.4176559,1.4306640625
80.4369576,1.40625
80.4509662,1.38671875
80.4996387,1.3671875
80.5000671,1.357421875
80.5128793,1.337890625
80.5639663,1.3232421875
80.5642672,1.3037109375
80.5730322,1.2841796875
80.6093306,1.2646484375
80.6391962,1.2451171875
80.6394462,1.23046875
80.6514152,1.220703125
80.6868546,1.2109375
80.6914195,1.1962890625
80.7259007,1.1865234375
80.7473738,1.1669921875
80.7545761,1.162109375
80.7942318,1.15234375
80.7945468,1.1474609375
80.8152621,1.142578125
80.8308077,1.1376953125
80.8710546,1.1328125
80.8899036,1.1279296875
80.8946079,1.1279296875
80.9147047,1.1279296875
80.9545219,1.1572265625
80.9549173,1.2060546875
80.9888046,1.2744140625
81.0095659,1.337890625
81.0116907,1.40625
81.0464845,1.4501953125
81.0780214,1.4892578125
81.0783369,1.5087890625
81.0954754,1.5234375
81.1316232,1.513671875
81.1366922,1.4990234375
81.1693579,1.474609375
81.1759784,1.4404296875
81.1926226,1.4111328125
81.2130976,1.38671875
81.2354407,1.3671875
81.2538842,1.3525390625
81.275603,1.3427734375
81.3122726,1.3232421875
81.3170526,1.30859375
81.3325915,1.2939453125
81.3528117,1.2841796875
81.4025972,1.26953125
81.4029499,1.2548828125
81.4137412,1.2353515625
81.4340829,1.220703125
81.4811418,1.2109375
81.4832924,1.19140625
81.4946827,1.1767578125
81.5296895,1.162109375
81.5504566,1.15234375
81.5524395,1.1376953125
81.593045,1.1328125
81.5932878,1.1328125
81.6294771,1.1279296875
81.6510323,1.1181640625
81.6562833,1.1181640625
81.6758725,1.1083984375
81.6953149,1.103515625
81.7133951,1.103515625
81.7332827,1.1328125
81.7828826,1.1767578125
81.7879954,1.25
81.7928363,1.3232421875
81.8274941,1.376953125
81.8478674,1.42578125
81.857794,1.455078125
81.8763664,1.4794921875
81.8943199,1.4794921875
81.9291929,1.4794921875
81.9332613,1.46484375
81.966661,1.4404296875
81.9876782,1.416015625
81.9943516,1.3916015625
82.0291441,1.3671875
82.0488941,1.34765625
82.0506358,1.3232421875
82.0844565,1.30859375
82.1056963,1.3037109375
82.1138169,1.2890625
82.1489356,1.2744140625
82.1848469,1.2548828125
82.1855876,1.2451171875
82.1955097,1.23046875
82.2321417,1.2158203125
82.2324045,1.201171875
82.2771965,1.1962890625
82.2775169,1.1865234375
82.2970409,1.181640625
82.3144094,1.171875
82.3346247,1.1669921875
82.3868599,1.1572265625
82.3871232,1.15234375
82.397941,1.142578125
82.4489438,1.1376953125
82.4492038,1.1328125
82.45313,1.123046875
82.4952059,1.123046875
82.495448,1.1279296875
82.5145769,1.1572265625
82.5507767,1.2060546875
82.5718698,1.26953125
82.5771234,1.3330078125
82.6092462,1.3818359375
82.6307014,1.416015625
82.6351441,1.4453125
82.6545466,1.455078125
82.6956082,1.4599609375
82.6958586,1.4453125
82.7150352,1.42578125
82.7505533,1.4013671875
82.7696836,1.3720703125
82.7765105,1.3525390625
82.7943104,1.328125
82.8308891,1.318359375
82.8334947,1.3037109375
82.8672322,1.2939453125
82.887733,1.279296875
82.8967156,1.2646484375
82.9321611,1.25
82.9376204,1.2353515625
82.9537459,1.220703125
82.9911975,1.2109375
82.9939365,1.1962890625
83.0323018,1.19140625
83.0372194,1.1767578125
83.0722363,1.171875
83.0766956,1.162109375
83.1114172,1.15234375
83.1326142,1.1474609375
83.1393602,1.1376953125
83.175255,1.1279296875
83.1756016,1.1181640625
83.2085982,1.1181640625
83.2321278,1.11328125
83.2341603,1.1083984375
83.2683787,1.1083984375
83.2937062,1.1328125
83.2954461,1.1767578125
83.3411164,1.25
83.3416561,1.318359375
83.3621138,1.38671875
83.37711,1.4501953125
83.4183649,1.4794921875
83.41879,1.50390625
83.4530932,1.50390625
83.4571974,1.50390625
83.4945993,1.484375
83.5157233,1.4599609375
83.5161268,1.42578125
83.5506708,1.4013671875
83.5552343,1.3818359375
83.6050068,1.3671875
83.6054122,1.34765625
83.6251098,1.3330078125
83.6358027,1.318359375
83.6700168,1.298828125
83.6981529,1.279296875
83.6983995,1.26953125
83.7335048,1.259765625
83.7339686,1.2451171875
83.7757505,1.23046875
83.7760176,1.2158203125
83.8214832,1.201171875
83.8217888,1.1865234375
83.8374433,1.1767578125
83.8717038,1.162109375
83.8760822,1.1572265625
83.9109266,1.1474609375
83.9157907,1.142578125
83.9516459,1.1376953125
83.9570178,1.1376953125
84.0041254,1.1279296875
84.0204862,1.123046875
84.02091,1.123046875
84.0554641,1.11328125
84.0597345,1.1279296875
84.0753564,1.1572265625
84.1143792,1.23046875
84.1342328,1.298828125
84.1361885,1.3720703125
84.1710865,1.42578125
84.1925584,1.474609375
84.1990463,1.4990234375
84.2464964,1.5185546875
84.2472011,1.5185546875
84.2772873,1.513671875
84.2775774,1.4990234375
84.3149833,1.474609375
84.3323375,1.4404296875
84.3376821,1.416015625
84.3596545,1.396484375
84.3786368,1.3671875
84.4000405,1.34765625
84.416302,1.3232421875
84.4621358,1.30859375
84.462398,1.2939453125
84.4766124,1.279296875
84.5111823,1.259765625
84.5316434,1.240234375
84.5383888,1.2255859375
84.5739119,1.2109375
84.5758268,1.19140625
84.6120279,1.1865234375
84.6174289,1.1767578125
84.6583531,1.171875
84.6587401,1.1669921875
84.7097382,1.1572265625
84.7100431,1.1474609375
84.7183324,1.1376953125
84.7585017,1.1328125
84.7631603,1.1181640625
84.7808627,1.1181640625
84.7972804,1.1083984375
84.8335766,1.103515625
84.8378659,1.0986328125
84.8826006,1.11328125
84.883009,1.1376953125
84.8992602,1.1962890625
84.9363725,1.259765625
84.9530055,1.3330078125
84.9552694,1.3818359375
84.9887084,1.4404296875
85.0102723,1.474609375
85.0185602,1.494140625
85.0520647,1.50390625
85.0735681,1.4990234375
85.0789917,1.484375
85.1155018,1.455078125
85.1414495,1.4306640625
85.141885,1.4013671875
85.1564828,1.3818359375
85.1907801,1.357421875
85.211295,1.337890625
85.2189846,1.3232421875
85.2404071,1.30859375
85.2596718,1.2890625
85.2971813,1.26953125
85.2990568,1.2548828125
85.3324049,1.2353515625
85.3363992,1.220703125
85.3700893,1.2109375
85.3903256,1.2060546875
85.3984804,1.1865234375
85.4326308,1.1767578125
85.4575012,1.162109375
85.459193,1.15234375
85.4764107,1.1376953125
85.5114958,1.1376953125
85.532123,1.1279296875
85.5382661,1.1279296875
85.5800174,1.1181640625
85.5803189,1.11328125
85.6177133,1.103515625
85.6180554,1.103515625
85.6469015,1.0986328125
85.6607068,1.0986328125
85.6960857,1.1181640625
85.6963927,1.162109375
85.7297013,1.2255859375
85.7511843,1.2890625
85.76105,1.357421875
85.8008322,1.4013671875
85.8010777,1.4404296875
85.8509419,1.46484375
85.8553061,1.4794921875
85.8556814,1.474609375
85.8983225,1.46484375
85.898574,1.4453125
85.9187642,1.4208984375
85.9626702,1.4013671875
85.9630555,1.3720703125
85.9924271,1.3525390625
86.0008722,1.328125
86.0352871,1.3134765625
86.0555303,1.2890625
86.0600062,1.279296875
86.1017523,1.26953125
86.1019997,1.259765625
86.136835,1.240234375
86.1413423,1.23046875
86.1799465,1.2109375
86.1802556,1.1962890625
86.1973624,1.181640625
86.2424261,1.171875
86.2428198,1.1572265625
86.2624772,1.15234375
86.2775089,1.1474609375
86.3124564,1.1328125
86.3345625,1.123046875
86.3404259,1.1181640625
86.3757741,1.11328125
86.3960171,1.1083984375
86.4022859,1.11328125
86.4196671,1.11328125
86.4394509,1.1181640625
86.461546,1.142578125
86.4800284,1.1865234375
86.5222636,1.2451171875
86.5225043,1.30859375
86.5576936,1.357421875
86.5837361,1.4013671875
86.5839943,1.4306640625
86.5971108,1.4404296875
86.6316472,1.4453125
86.6624676,1.4404296875
86.6627376,1.4306640625
86.6802091,1.40625
86.7225586,1.38671875
86.7229016,1.357421875
86.7423785,1.3427734375
86.7746842,1.3232421875
86.7797738,1.3134765625
86.8159278,1.298828125
86.8178699,1.2890625
86.8628854,1.2744140625
86.8802103,1.2646484375
86.8805332,1.2451171875
86.9274376,1.2353515625
86.9276791,1.2255859375
86.9482137,1.2060546875
86.9575739,1.1962890625
86.9952207,1.1865234375
86.9994626,1.1767578125
87.0362779,1.162109375
87.0403752,1.15234375
87.0855293,1.142578125
87.0858529,1.1376953125
87.1167116,1.1279296875
87.1170466,1.1279296875
87.1523798,1.123046875
87.1724355,1.123046875
87.1815929,1.11328125
87.2179189,1.123046875
87.2223393,1.1474609375
87.27174,1.1865234375
87.2726713,1.2548828125
87.284386,1.3134765625
87.3038169,1.3720703125
87.320416,1.4111328125
87.3584376,1.4501953125
87.3587285,1.4697265625
87.4023396,1.4794921875
87.4026451,1.4794921875
87.4367119,1.474609375
87.4589436,1.455078125
87.4633999,1.435546875
87.4787306,1.4111328125
87.5151644,1.3916015625
87.5193173,1.3720703125
87.5532389,1.3623046875
87.5804724,1.3427734375
87.5847863,1.328125
87.6033029,1.3134765625
87.6379765,1.2939453125
87.6419712,1.279296875
87.6756888,1.259765625
87.6799995,1.25
87.7157452,1.2353515625
87.7199275,1.220703125
87.7544871,1.2060546875
87.7736184,1.19140625
87.7828893,1.181640625
87.8330311,1.171875
87.8333402,1.1572265625
87.8392179,1.15234375
87.8793374,1.1572265625
87.9092852,1.1474609375
87.9095282,1.142578125
87.923424,1.1328125
87.9712029,1.1376953125
87.9714537,1.1328125
87.9834207,1.15234375
88.0345655,1.1767578125
88.0348859,1.2451171875
88.0414029,1.3037109375
88.0842871,1.3720703125
88.0897038,1.42578125
88.1012253,1.4697265625
88.1367555,1.4990234375
88.1633062,1.5185546875
88.1637342,1.5185546875
88.209022,1.5234375
88.2092871,1.50390625
88.2195865,1.474609375
88.2528909,1.4501953125
88.2731898,1.42578125
88.2821999,1.40625
88.3183291,1.3818359375
88.3233389,1.3623046875
88.3612531,1.34765625
88.3616066,1.3330078125
88.3965587,1.3134765625
88.4007122,1.298828125
88.4355682,1.2841796875
88.4420079,1.2744140625
88.4785171,1.2548828125
88.4823422,1.240234375
88.5169907,1.23046875
88.537434,1.2109375
88.5506341,1.1962890625
88.5606371,1.1767578125
88.597314,1.1669921875
88.6017589,1.1572265625
88.6361813,1.15234375
88.6578446,1.142578125
88.663012,1.1376953125
88.6833229,1.1279296875
88.7193767,1.123046875
88.7197854,1.11328125
88.7406405,1.1181640625
88.7768391,1.1328125
88.7829711,1.181640625
88.8035535,1.2353515625
88.8291063,1.3037109375
88.8410273,1.3623046875
88.8884282,1.40625
88.8886717,1.4453125
88.9250248,1.4697265625
88.9295124,1.484375
88.9411738,1.484375
88.9787219,1.4794921875
89.0051542,1.46484375
89.005415,1.4404296875
89.0387859,1.416015625
89.0671103,1.3916015625
89.0674125,1.3671875
89.0857574,1.3427734375
89.1011882,1.3232421875
89.1360719,1.30859375
89.1562728,1.298828125
89.161816,1.2841796875
89.2117891,1.26953125
89.212037,1.2548828125
89.2425943,1.240234375
89.2429195,1.220703125
89.2833512,1.2060546875
89.2839313,1.1865234375
89.3050463,1.181640625
89.3345745,1.1669921875
89.34532,1.1572265625
89.3637128,1.142578125
89.412014,1.1328125
89.4122835,1.123046875
89.4250686,1.1181640625
89.4415926,1.1083984375
89.4771219,1.11328125
89.5046172,1.1181640625
89.5050187,1.11328125
89.5237554,1.1181640625
89.5440801,1.1328125
89.580504,1.171875
89.5825192,1.220703125
89.6155695,1.279296875
89.6361788,1.3232421875
89.6460986,1.3671875
89.6625962,1.396484375
89.6961298,1.42578125
89.7186432,1.435546875
89.7230047,1.4501953125
89.7451997,1.4404296875
89.7812105,1.42578125
89.786728,1.40625
89.8218182,1.376953125
89.8243364,1.357421875
89.8578668,1.337890625
89.8620048,1.328125
89.8968873,1.3134765625
89.9186444,1.298828125
89.9252803,1.2890625
89.9440241,1.2744140625
89.9832865,1.259765625
90.0131778,1.25
90.0136416,1.23046875
90.020371,1.220703125
90.0582201,1.2109375
90.0779539,1.2060546875
90.0826548,1.19140625
90.117599,1.1865234375
90.1471088,1.1767578125
90.1512574,1.1669921875
90.1671233,1.162109375
90.1833435,1.1474609375
90.2266294,1.1474609375
90.2269791,1.142578125
90.2435198,1.142578125
90.2776291,1.1376953125
90.2979557,1.1328125
90.3033159,1.1474609375
90.3397539,1.1767578125
90.3643102,1.220703125
90.3645647,1.2744140625
90.4041862,1.3134765625
90.4044646,1.357421875
90.4408005,1.3916015625
90.4459904,1.40625
90.4668624,1.416015625
90.5136917,1.4111328125
90.5139404,1.40625
90.5271395,1.38671875
90.5767634,1.3671875
90.577019,1.34765625
90.585419,1.3330078125
90.6212844,1.3232421875
90.6233694,1.3134765625
90.6594816,1.3037109375
90.6815962,1.2939453125
90.685752,1.279296875
90.7289582,1.2646484375
90.729257,1.2451171875
90.7432925,1.240234375
90.7864581,1.23046875
90.7868594,1.220703125
90.818158,1.2109375
90.8257782,1.201171875
90.8535905,1.19140625
90.8672019,1.1767578125
90.9164846,1.1669921875
90.9170486,1.1572265625
90.9223561,1.15234375
90.9584678,1.1474609375
90.9909879,1.1474609375
90.9914276,1.1376953125
91.007891,1.1376953125
91.0565607,1.1328125
91.0611591,1.1376953125
91.0679677,1.1572265625
91.0842361,1.1865234375
91.1193307,1.2451171875
91.1247448,1.2890625
91.1663846,1.337890625
91.1666294,1.3671875
91.2003861,1.396484375
91.2207555,1.40625
91.2267351,1.4111328125
91.2473306,1.4013671875
91.280407,1.3671875
91.3017239,1.3525390625
91.3087181,1.3427734375
91.3266576,1.328125
91.3627728,1.318359375
91.3671767,1.3037109375
91.4012412,1.2939453125
91.405913,1.2841796875
91.4424097,1.26953125
91.4750154,1.2548828125
91.4754258,1.240234375
91.4857202,1.23046875
91.5234194,1.220703125
91.5239636,1.2158203125
91.5589781,1.2060546875
91.5780672,1.1962890625
91.5866255,1.181640625
91.6206452,1.171875
91.6403621,1.1572265625
91.6455345,1.15234375
91.6948558,1.1474609375
91.6951043,1.142578125
91.7069849,1.142578125
91.7415195,1.1328125
91.7455864,1.1279296875
91.7785071,1.1279296875
91.7994679,1.123046875
91.8045773,1.123046875
91.8424274,1.1474609375
91.8470998,1.1865234375
91.8834897,1.240234375
91.8837353,1.2890625
91.9216861,1.3330078125
91.9518947,1.3623046875
91.9521824,1.3916015625
91.9633884,1.4111328125
91.9968926,1.42578125
92.0169865,1.42578125
92.0244652,1.42578125
92.0593732,1.416015625
92.08286,1.396484375
92.088128,1.3720703125
92.1088767,1.3525390625
92.1532353,1.3330078125
92.1536843,1.3134765625
92.1703538,1.298828125
92.1862579,1.279296875
92.2313316,1.2646484375
92.231652,1.25
92.246287,1.240234375
92.2805906,1.2255859375
92.3042306,1.2158203125
92.3088894,1.201171875
92.3511259,1.19140625
92.3513832,1.181640625
92.3667183,1.1669921875
92.4140155,1.1572265625
92.4143872,1.1474609375
92.4279044,1.142578125
92.4747431,1.1376953125
92.4751545,1.1279296875
92.4871001,1.123046875
92.5233418,1.1181640625
92.5532778,1.1083984375
92.5536389,1.11328125
92.568419,1.11328125
92.6023769,1.1181640625
92.6066766,1.1279296875
92.6414802,1.1572265625
92.6642367,1.1962890625
92.6696474,1.25
92.688296,1.298828125
92.7061531,1.3330078125
92.7405129,1.3720703125
92.7444563,1.396484375
92.7793029,1.416015625
92.8007855,1.4208984375
92.8076518,1.42578125
92.8512847,1.4111328125
92.8516223,1.396484375
92.870328,1.3720703125
92.8903054,1.3232421875
92.9054262,1.30859375
92.942154,1.298828125
92.9836583,1.2890625
92.983985,1.279296875
92.9878398,1.2744140625
93.0370319,1.259765625
93.0373603,1.2451171875
93.0502288,1.2353515625
93.0972728,1.2255859375
93.0976942,1.2109375
93.1074491,1.201171875
93.1433568,1.19140625
93.1472828,1.181640625
93.1814275,1.171875
93.2012347,1.162109375
93.2099823,1.15234375
93.2544604,1.1474609375
93.2549241,1.142578125
93.2668809,1.1376953125
93.31453,1.1376953125
93.315009,1.142578125
93.327304,1.142578125
93.362403,1.1328125
93.3915069,1.1279296875
93.3918009,1.123046875
93.4264617,1.1328125
93.4268101,1.1474609375
93.4630763,1.1962890625
93.4675856,1.240234375
93.5019032,1.2939453125
93.5229552,1.3330078125
93.5281371,1.3720703125
93.5642482,1.396484375
93.5840683,1.416015625
93.5859529,1.4208984375
93.6273026,1.42578125
93.6581966,1.4208984375
93.6585238,1.3720703125
93.6674843,1.3623046875
93.6935545,1.34765625
93.7082655,1.337890625
93.7457145,1.318359375
93.7497818,1.30859375
93.7924959,1.2939453125
93.7969701,1.2841796875
93.8089272,1.2646484375
93.8566265,1.259765625
93.8569582,1.2451171875
93.8702226,1.240234375
93.8900764,1.2255859375
93.9095258,1.2158203125
93.9492021,1.1962890625
93.9494459,1.19140625
93.971823,1.1767578125
93.9872969,1.1669921875
94.0265584,1.1572265625
94.0469641,1.15234375
94.0495937,1.1474609375
94.0958059,1.142578125
94.100381,1.142578125
94.112142,1.1328125
94.1587211,1.1279296875
94.1589702,1.1181640625
94.1669482,1.1181640625
94.20491,1.1181640625
94.2264311,1.123046875
94.2346057,1.142578125
94.2505276,1.1767578125
94.2991116,1.23046875
94.2993553,1.2744140625
94.3107969,1.318359375
94.3268496,1.3427734375
94.3619771,1.3720703125
94.3679028,1.38671875
94.4009127,1.396484375
94.4215492,1.38671875
94.4288195,1.376953125
94.4671625,1.357421875
94.472119,1.3427734375
94.491568,1.3232421875
94.5342016,1.2841796875
94.5345725,1.26953125
94.5659797,1.26953125
94.5706313,1.2646484375
94.6122651,1.26953125
94.6125891,1.2646484375
94.6547018,1.25
94.6549427,1.240234375
94.671855,1.2255859375
94.7074381,1.2158203125
94.7382402,1.2060546875
94.7386094,1.201171875
94.7496862,1.19140625
94.7875551,1.1865234375
94.7878097,1.1767578125
94.8322698,1.171875
94.8325307,1.162109375
94.8532918,1.162109375
94.8689109,1.15234375
94.9058166,1.1572265625
94.9106748,1.1572265625
94.9452202,1.1572265625
94.9497329,1.1572265625
94.9838367,1.15234375
95.0030806,1.1572265625
95.0289673,1.181640625
95.0293759,1.2255859375
95.0484784,1.26953125
95.0869063,1.318359375
95.1068532,1.357421875
95.108754,1.38671875
95.1410202,1.40625
95.1624311,1.416015625
95.1712626,1.4111328125
95.2116173,1.40625
95.2119132,1.38671875
95.2299566,1.3720703125
95.26567,1.357421875
95.2668976,1.3427734375
95.3038079,1.3330078125
95.3343996,1.318359375
95.3349769,1.30859375
95.3517552,1.2939453125
95.3865554,1.2841796875
95.3919212,1.2744140625
95.4277269,1.259765625
95.4571944,1.25
95.4574807,1.240234375
95.4698778,1.23046875
95.5040502,1.220703125
95.5355792,1.2109375
95.5358227,1.1962890625
95.5520425,1.19140625
95.5739248,1.181640625
95.6114931,1.171875
95.6119096,1.171875
95.6445968,1.181640625
95.6498739,1.181640625
95.685477,1.1865234375
95.7058903,1.1767578125
95.7121063,1.1767578125
95.7518887,1.171875
95.7521522,1.1767578125
95.7689878,1.19140625
95.8048893,1.2353515625
95.8283537,1.2841796875
95.8286525,1.337890625
95.8722622,1.376953125
95.8726673,1.42578125
95.9020483,1.4501953125
95.9126817,1.46484375
95.9496031,1.4697265625
95.9498481,1.4697265625
95.9977276,1.4599609375
95.9980344,1.4404296875
96.0118477,1.42578125
96.0469338,1.40625
96.0492713,1.3818359375
96.09377,1.3623046875
96.094098,1.34765625
96.1134359,1.328125
96.1475136,1.2939453125
96.1680438,1.2890625
96.1703803,1.2841796875
96.2061348,1.2841796875
96.2100713,1.26953125
96.2436285,1.259765625
96.2649456,1.2451171875
96.2740622,1.2353515625
96.2931569,1.220703125
96.3445327,1.2060546875
96.3450099,1.1865234375
96.3514543,1.181640625
96.388601,1.171875
96.3934274,1.1669921875
96.4285552,1.1572265625
96.4305959,1.15234375
96.4634195,1.1474609375
96.4846291,1.142578125
96.4920434,1.1279296875
96.509969,1.1376953125
96.5491061,1.142578125
96.5495116,1.1572265625
96.585625,1.19140625
96.6161151,1.2353515625
96.6163783,1.2890625
96.6340661,1.337890625
96.6780376,1.3916015625
96.6782815,1.42578125
96.6922728,1.455078125
96.7330132,1.474609375
96.7333403,1.4794921875
96.7688619,1.4794921875
96.7747214,1.4697265625
96.7923171,1.4453125
96.8411949,1.4208984375
96.8414388,1.4013671875
96.8502296,1.376953125
96.8838727,1.3623046875
96.9060761,1.3427734375
96.9123706,1.337890625
96.9545715,1.3232421875
96.9585249,1.30859375
96.9744251,1.2939453125
96.9948865,1.279296875
97.0318121,1.259765625
97.0362186,1.25
97.0607065,1.2353515625
97.0715186,1.2255859375
97.1054973,1.2109375
97.1271242,1.201171875
97.1345051,1.1865234375
97.1541466,1.181640625
97.2015607,1.1767578125
97.2022212,1.162109375
97.2162963,1.1572265625
97.2328385,1.1474609375
97.2705362,1.1474609375
97.2707947,1.142578125
97.3171457,1.1474609375
97.3175427,1.1376953125
97.3361128,1.1376953125
97.3702866,1.1474609375
97.3753718,1.181640625
97.390699,1.2255859375
97.4421982,1.2939453125
97.4424601,1.34765625
97.4520425,1.4013671875
97.474377,1.4404296875
97.5107298,1.46484375
97.5126664,1.474609375
97.5448654,1.474609375
97.5668766,1.4697265625
97.5710795,1.4501953125
97.605955,1.4306640625
97.6106548,1.4111328125
97.647032,1.396484375
97.6685527,1.376953125
97.6730119,1.3720703125
97.7071658,1.3525390625
97.7273114,1.337890625
97.7339263,1.3232421875
97.7667039,1.279296875
97.786647,1.2646484375
97.7915488,1.2646484375
97.8134559,1.259765625
97.8612304,1.25
97.8615603,1.240234375
97.8747696,1.23046875
97.922957,1.2158203125
97.9232981,1.201171875
97.9370836,1.1962890625
97.9518026,1.181640625
97.9880081,1.1767578125
97.9929365,1.171875
98.0306042,1.1669921875
98.0353914,1.1572265625
98.0727318,1.1572265625
98.0731289,1.1474609375
98.1170813,1.142578125
98.11747,1.142578125
98.1493219,1.1328125
98.1516467,1.15234375
98.1877512,1.1865234375
98.2074096,1.2451171875
98.2135021,1.298828125
98.246075,1.3525390625
98.2674797,1.3916015625
98.2771945,1.42578125
98.2927116,1.4453125
98.3370945,1.46484375
98.337509,1.46484375
98.3543464,1.4599609375
98.3731726,1.435546875
98.3940553,1.4111328125
98.4292907,1.3818359375
98.4495364,1.3671875
98.4566492,1.34765625
98.4717681,1.328125
98.5119351,1.318359375
98.5417778,1.30859375
98.5421835,1.2939453125
98.5542099,1.2841796875
98.6048629,1.26953125
98.6052429,1.2548828125
98.6156123,1.240234375
98.6374352,1.2255859375
98.6745341,1.2109375
98.6748556,1.1962890625
98.6945356,1.19140625
98.7301837,1.181640625
98.7348953,1.1767578125
98.7783642,1.171875
98.7827129,1.162109375
98.7968184,1.15234375
98.8298776,1.1474609375
98.8369617,1.142578125
98.8522777,1.1279296875
98.8874363,1.1279296875
98.9068929,1.1279296875
98.9143175,1.1328125
98.9511169,1.142578125
98.955712,1.1865234375
98.9957504,1.23046875
98.996157,1.2841796875
99.0161213,1.328125
99.0505466,1.3671875
99.053134,1.3916015625
99.0935096,1.416015625
99.1118246,1.42578125
99.1138287,1.416015625
99.1468888,1.4013671875
99.1667878,1.376953125
99.1772889,1.3525390625
99.1942786,1.328125
99.2321498,1.3134765625
99.2344516,1.3037109375
99.2701406,1.2939453125
99.2755541,1.2890625
99.3248731,1.2744140625
99.3251897,1.2646484375
99.3367289,1.2548828125
99.3576187,1.2451171875
99.392215,1.201171875
99.3964221,1.201171875
99.430703,1.1865234375
99.4336299,1.1865234375
99.4708132,1.181640625
99.4760435,1.181640625
99.5143308,1.171875
99.5315663,1.162109375
99.5362592,1.15234375
99.5592573,1.15234375
99.5824705,1.142578125
99.5962661,1.142578125
99.6162623,1.1376953125
99.6510729,1.1376953125
99.6553869,1.1328125
99.6796326,1.1376953125
99.6992983,1.1474609375
99.7342157,1.1962890625
99.7388433,1.25
99.7542065,1.30859375
99.8012784,1.357421875
99.8015382,1.396484375
99.8225133,1.42578125
99.836152,1.4453125
99.8798922,1.455078125
99.8801316,1.4501953125
99.8994744,1.4404296875
99.9137622,1.4208984375
99.9492793,1.4013671875
99.9714468,1.3818359375
99.9765638,1.3720703125
100.0189787,1.3525390625
100.0193658,1.3427734375
100.0556741,1.337890625
100.0560662,1.318359375
100.0974995,1.30859375
100.0978277,1.2939453125
100.1152001,1.2890625
100.1497361,1.2744140625
100.153602,1.259765625
100.1869132,1.2451171875
100.2065231,1.23046875
100.2169989,1.2158203125
100.2501155,1.2060546875
100.2700126,1.19140625
100.2780233,1.181640625
100.294349,1.171875
100.3359335,1.1669921875
100.3363318,1.162109375
100.3560484,1.1669921875
100.3867674,1.1669921875
100.4061207,1.1572265625
100.4171901,1.15234375
100.4517576,1.1474609375
100.4741421,1.15234375
100.4743891,1.1767578125
100.5233646,1.23046875
100.5236888,1.2939453125
100.5369639,1.357421875
100.5855224,1.40625
100.5858446,1.455078125
100.6055395,1.4794921875
100.6168911,1.50390625
100.6495616,1.5087890625
100.6555433,1.5087890625
100.691444,1.4990234375
100.6960731,1.4794921875
100.7311157,1.4501953125
100.7564451,1.42578125
100.7567695,1.40625
100.7924393,1.38671875
100.7974453,1.3720703125
100.814989,1.3525390625
100.8371235,1.337890625
100.8744446,1.3232421875
100.8766959,1.3134765625
100.9113639,1.298828125
100.9317226,1.2841796875
100.9383445,1.2646484375
100.9782486,1.25
100.9784952,1.2255859375
101.0005082,1.19140625
101.0372123,1.162109375
101.0375293,1.1572265625
101.0953744,1.162109375
101.0958836,1.162109375
101.0981486,1.1572265625
101.1314524,1.1572265625
101.1640314,1.1572265625
101.1644387,1.15234375
101.1797462,1.1474609375
101.1969099,1.142578125
101.2414153,1.1376953125
101.2418164,1.1376953125
101.2556255,1.162109375
101.289762,1.19140625
101.3193351,1.25
