fs,t,y
53.07076888872471,0.27848130000000015,0.7861328125
,0.31221129999999997,0.791015625
,0.3424456,0.8056640625
,0.34275080000000013,0.8251953125
,0.36084000000000005,0.8447265625
,0.40748620000000013,0.869140625
,0.4079296000000001,0.888671875
,0.4228011999999999,0.908203125
,0.43988650000000007,0.9228515625
,0.4857471000000002,0.9423828125
,0.4860536,0.9521484375
,0.5022682999999999,0.95703125
,0.5204696000000002,0.95703125
,0.5552549,0.9521484375
,0.5765978999999999,0.9423828125
,0.5822118999999999,0.9326171875
,0.6026398999999998,0.9228515625
,0.6204816000000002,0.9130859375
,0.6563412,0.9033203125
,0.6595795,0.8935546875
,0.7026884999999998,0.8837890625
,0.703128,0.87890625
,0.7213167,0.8740234375
,0.7645729000000001,0.869140625
,0.7651864000000002,0.8642578125
,0.7855181,0.859375
,0.7995644999999998,0.849609375
,0.8211206999999998,0.8447265625
,0.8566311,0.8349609375
,0.8613743999999999,0.830078125
,0.9045106999999999,0.8203125
,0.9048072,0.810546875
,0.9226068000000001,0.8056640625
,0.9665879999999998,0.80078125
,0.9668934999999999,0.8056640625
,0.9820438,0.8203125
,1.0002285,0.83984375
,1.0366203999999999,0.8642578125
,1.0417676999999999,0.8837890625
,1.0911027,0.9033203125
,1.0913993999999998,0.9228515625
,1.1026094999999998,0.9423828125
,1.1240644,0.95703125
,1.1430696999999999,0.966796875
,1.1795255999999998,0.9765625
,1.1798126,0.9716796875
,1.2317743,0.966796875
,1.2322083,0.95703125
,1.2425605000000002,0.9521484375
,1.2781305,0.9423828125
,1.2831165000000002,0.9326171875
,1.3021052000000002,0.9228515625
,1.3237587,0.91796875
,1.3402560000000001,0.9130859375
,1.374683,0.908203125
,1.3953934000000001,0.9033203125
,1.4021678999999998,0.8984375
,1.4379349000000001,0.8935546875
,1.4417515,0.888671875
,1.4776596999999998,0.8837890625
,1.4993948000000001,0.87890625
,1.5039311,0.869140625
,1.5200882999999998,0.859375
,1.5599756999999999,0.8544921875
,1.5604288999999998,0.8447265625
,1.6067071999999998,0.83984375
,1.6071526999999999,0.8349609375
,1.6218648,0.83984375
,1.6689204000000002,0.849609375
,1.6692281000000002,0.859375
,1.6895892,0.87890625
,1.7050109,0.888671875
,1.7217707999999998,0.9033203125
,1.7632142000000002,0.9228515625
,1.763763,0.9375
,1.8092158999999999,0.9521484375
,1.8095105999999999,0.9619140625
,1.8239861999999998,0.9619140625
,1.8584482000000002,0.9619140625
,1.8791049000000002,0.95703125
,1.8853687,0.947265625
,1.8997544,0.9423828125
,1.9355968,0.9326171875
,1.9673880000000001,0.927734375
,1.9678736,0.91796875
,1.9841324,0.9130859375
,2.0278631000000003,0.9033203125
,2.028753,0.8935546875
,2.0440752,0.87890625
,2.0618429999999996,0.869140625
,2.0978985000000003,0.8642578125
,2.1019895,0.8544921875
,2.1514375,0.8447265625
,2.1518241,0.8349609375
,2.1638582,0.8251953125
,2.2142903,0.8203125
,2.214759,0.810546875
,2.2253230000000004,0.8056640625
,2.2396659999999997,0.80078125
,2.2908860000000004,0.80078125
,2.2913521,0.8056640625
,2.3024381,0.8203125
,2.3394006999999997,0.830078125
,2.3438,0.849609375
,2.3794912999999998,0.8642578125
,2.3853491,0.87890625
,2.4004367,0.8935546875
,2.4487663,0.908203125
,2.4490647,0.91796875
,2.4629928999999997,0.9228515625
,2.498629,0.927734375
,2.5036657,0.927734375
,2.5245017,0.9228515625
,2.5718129999999997,0.91796875
,2.5722636999999997,0.9130859375
,2.5857224,0.9033203125
,2.6228512999999998,0.8935546875
,2.6233106,0.8837890625
,2.6427452999999996,0.87890625
,2.6931978,0.8642578125
,2.6936412,0.859375
,2.7038529999999996,0.849609375
,2.7420305999999997,0.8349609375
,2.7449136999999997,0.8251953125
,2.7656864,0.8203125
,2.8022408,0.8154296875
,2.8025313,0.8056640625
,2.8384815999999997,0.80078125
,2.8433010000000003,0.7958984375
,2.8811334000000004,0.7861328125
,2.8855076000000004,0.78125
,2.9275070000000003,0.78125
,2.9279522,0.7763671875
,2.9749730999999997,0.78125
,2.9754404,0.791015625
,3.0055115,0.8056640625
,3.0059639000000002,0.8251953125
,3.0238724,0.849609375
,3.0671545,0.869140625
,3.0678872000000004,0.888671875
,3.0852708,0.9033203125
,3.1202629,0.91796875
,3.1261509,0.927734375
,3.1435877000000003,0.9326171875
,3.1783178999999997,0.9375
,3.1833964999999997,0.9326171875
,3.2047033000000003,0.927734375
,3.2420362999999996,0.91796875
,3.2424815000000002,0.9130859375
,3.2860329999999998,0.9033203125
,3.2864888,0.8935546875
,3.3053752000000003,0.8837890625
,3.3500477,0.8740234375
,3.3504221000000003,0.8642578125
,3.3707693,0.8544921875
,3.3850624,0.8447265625
,3.4182312,0.83984375
,3.4251474,0.830078125
,3.4613585999999996,0.8203125
,3.4657538,0.8154296875
,3.4856885999999996,0.810546875
,3.5207324,0.80078125
,3.5417802,0.7958984375
,3.5440302,0.791015625
,3.5625808,0.7861328125
,3.5997237,0.78125
,3.6049768,0.78125
,3.6443353,0.791015625
,3.6446402000000004,0.80078125
,3.6799402,0.8203125
,3.700356,0.8349609375
,3.7036160000000002,0.859375
,3.7544282000000004,0.87890625
,3.7547176999999996,0.8935546875
,3.7664481,0.9130859375
,3.7872215000000002,0.9228515625
,3.8228372000000004,0.9326171875
,3.8235260999999996,0.9375
,3.8626651,0.9375
,3.8632842,0.9326171875
,3.8823296999999997,0.9228515625
,3.9251421000000004,0.91796875
,3.9255844,0.908203125
,3.9600861,0.8984375
,3.9639794000000004,0.888671875
,4.0029632,0.87890625
,4.0236198,0.869140625
,4.0265384,0.859375
,4.0618028,0.8447265625
,4.0844042,0.83984375
,4.0852034,0.830078125
,4.1289,0.8251953125
,4.129359,0.8154296875
,4.1449599,0.810546875
,4.1808835,0.8056640625
,4.1856027,0.80078125
,4.2226153,0.7958984375
,4.2276714,0.791015625
,4.2437881,0.7861328125
,4.2801525,0.78125
,4.28553,0.7861328125
,4.3062986,0.7958984375
,4.3270878,0.810546875
,4.360904,0.830078125
,4.3671997,0.849609375
,4.4023343,0.8642578125
,4.4074868,0.87890625
,4.422481,0.8935546875
,4.4596497,0.908203125
,4.4784704,0.91796875
,4.4833977,0.9228515625
,4.5206013,0.9228515625
,4.5490051,0.91796875
,4.5494548,0.9130859375
,4.5813308,0.9033203125
,4.6028434,0.8984375
,4.6033169,0.888671875
,4.6247902,0.87890625
,4.6622367,0.869140625
,4.6669585,0.859375
,4.7045645,0.849609375
,4.7049297,0.83984375
,4.7409765,0.830078125
,4.7610575,0.8251953125
,4.764957,0.8154296875
,4.7905671,0.810546875
,4.8046793,0.80078125
,4.840532,0.80078125
,4.8459281,0.7958984375
,4.8903574,0.7958984375
,4.8908044,0.791015625
,4.921534,0.7861328125
,4.9284162,0.7861328125
,4.9641494,0.7861328125
,4.9645786,0.791015625
,4.99991,0.810546875
,5.0315603,0.8251953125
,5.0318645,0.8447265625
,5.0482427,0.859375
,5.0829627,0.8740234375
,5.0871472,0.888671875
,5.1089926,0.8984375
,5.1562389,0.908203125
,5.1566835,0.9130859375
,5.1647556,0.91796875
,5.199029,0.9130859375
,5.2304761,0.908203125
,5.2309595,0.9033203125
,5.2479962,0.8984375
,5.2836886,0.888671875
,5.2887539,0.87890625
,5.3058896,0.8740234375
,5.3556436,0.8642578125
,5.3560942,0.859375
,5.3666335,0.849609375
,5.4166216,0.83984375
,5.4170649,0.830078125
,5.427414,0.8251953125
,5.4652148,0.8154296875
,5.4698198,0.810546875
,5.4856424,0.80078125
,5.5053865,0.7958984375
,5.5259969,0.791015625
,5.5733912,0.7861328125
,5.5737203,0.78125
,5.5892743,0.78125
,5.6083453,0.78125
,5.6507473,0.7861328125
,5.6510341,0.80078125
,5.6868197,0.8154296875
,5.6872787,0.8349609375
,5.7066969,0.8544921875
,5.74277,0.8740234375
,5.7476143,0.888671875
,5.7703455,0.908203125
,5.7882833,0.91796875
,5.8244019,0.9326171875
,5.8301764,0.9375
,5.8491364,0.9375
,5.8658667,0.9326171875
,5.9014957,0.927734375
,5.9062897,0.91796875
,5.9471204,0.9130859375
,5.9474336,0.9033203125
,5.9936864,0.8935546875
,5.9941174,0.8837890625
,6.0139648,0.869140625
,6.0305655,0.859375
,6.0471392999999996,0.849609375
,6.0680189,0.83984375
,6.1029763,0.830078125
,6.1116235,0.8203125
,6.1294339,0.8154296875
,6.166164200000001,0.8056640625
,6.1692698,0.80078125
,6.2124003000000005,0.7958984375
,6.2127865,0.7861328125
,6.231056499999999,0.7861328125
,6.2493351,0.78125
,6.268470199999999,0.78125
,6.3047716000000005,0.78125
,6.308847,0.791015625
,6.343860299999999,0.8056640625
,6.365173800000001,0.8203125
,6.3708162,0.8447265625
,6.415848499999999,0.859375
,6.416233500000001,0.8740234375
,6.4266719000000005,0.888671875
,6.461656,0.9033203125
,6.4833046,0.9130859375
,6.4875515,0.9228515625
,6.5391455,0.927734375
,6.5395071,0.9228515625
,6.5485568,0.9130859375
,6.586358499999999,0.9033203125
,6.586777100000001,0.8935546875
,6.6213519000000005,0.888671875
,6.6416179,0.87890625
,6.649096500000001,0.869140625
,6.699593,0.859375
,6.7000916,0.849609375
,6.7098057,0.83984375
,6.7456224,0.830078125
,6.7766716,0.8203125
,6.777237599999999,0.8154296875
,6.7863039999999994,0.810546875
,6.823550300000001,0.8056640625
,6.852922599999999,0.7958984375
,6.853173099999999,0.791015625
,6.8700917,0.7861328125
,6.890601,0.78125
,6.929211199999999,0.7763671875
,6.9295311,0.7763671875
,6.9755439,0.7763671875
,6.9759332999999994,0.78125
,6.988238300000001,0.7958984375
,7.0261285,0.8154296875
,7.026530599999999,0.830078125
,7.062258,0.849609375
,7.0835706,0.8642578125
,7.091130400000001,0.87890625
,7.1088936,0.888671875
,7.133311900000001,0.9033203125
,7.1477,0.9033203125
,7.186803599999999,0.908203125
,7.1890103,0.908203125
,7.210003499999999,0.9033203125
,7.2456719,0.8984375
,7.2504949,0.888671875
,7.287763399999999,0.8837890625
,7.290472599999999,0.8740234375
,7.3244337,0.8642578125
,7.345941,0.8544921875
,7.3462032,0.8447265625
,7.385342100000001,0.8349609375
,7.3894813,0.8251953125
,7.429869999999999,0.8154296875
,7.4302803,0.810546875
,7.4638413,0.80078125
,7.486222700000001,0.791015625
,7.4865557,0.7861328125
,7.536636400000001,0.78125
,7.536892699999999,0.771484375
,7.5479517000000005,0.7666015625
,7.5810919000000005,0.76171875
,7.6019901,0.7568359375
,7.6096793,0.751953125
,7.647684099999999,0.7568359375
,7.6515778999999995,0.7666015625
,7.668436399999999,0.78125
,7.6901364999999995,0.80078125
,7.710155800000001,0.8154296875
,7.7554537,0.8349609375
,7.755822200000001,0.849609375
,7.771482600000001,0.859375
,7.7926967000000005,0.869140625
,7.811249800000001,0.87890625
,7.828731299999999,0.8837890625
,7.8477709,0.8837890625
,7.8847711,0.87890625
,7.8901343,0.8740234375
,7.9415797,0.869140625
,7.9420778,0.859375
,7.952251800000001,0.8544921875
,7.972838299999999,0.8447265625
,7.991801799999999,0.83984375
,8.0344915,0.830078125
,8.0348734,0.8203125
,8.0471212,0.810546875
,8.083133,0.80078125
,8.1044966,0.791015625
,8.1115845,0.7861328125
,8.1294133,0.78125
,8.1668021,0.7763671875
,8.1725402,0.771484375
,8.2096718,0.76171875
,8.2138188,0.7568359375
,8.2301897,0.751953125
,8.2507746,0.751953125
,8.2874937,0.751953125
,8.2917142,0.751953125
,8.3285938,0.76171875
,8.3288862,0.78125
,8.3676133,0.7958984375
,8.393956,0.8154296875
,8.3942499,0.830078125
,8.4098279,0.849609375
,8.4560653,0.8642578125
,8.4563035,0.87890625
,8.4707835,0.888671875
,8.5196383,0.8984375
,8.5199576,0.8984375
,8.5343799,0.8984375
,8.5543624,0.8935546875
,8.5691187,0.8837890625
,8.6066893,0.87890625
,8.6113533,0.8740234375
,8.6310881,0.8642578125
,8.6536252,0.8544921875
,8.6900456,0.849609375
,8.694201,0.83984375
,8.7121996,0.8251953125
,8.7332793,0.8203125
,8.7834381,0.810546875
,8.7837088,0.80078125
,8.7908046,0.7958984375
,8.8301389,0.791015625
,8.8305446,0.7861328125
,8.8701647,0.78125
,8.870573,0.771484375
,8.9082939,0.7666015625
,8.9373969,0.76171875
,8.9378008,0.76171875
,8.9499289,0.76171875
,8.9865981,0.771484375
,9.0156038,0.78125
,9.0160175,0.80078125
,9.031173,0.8203125
,9.0692345,0.83984375
,9.0743699,0.859375
,9.0954705,0.8740234375
,9.1135316,0.8837890625
,9.131405,0.8984375
,9.1653303,0.908203125
,9.1705076,0.91796875
,9.2084321,0.91796875
,9.2295061,0.9130859375
,9.2318765,0.908203125
,9.2677109,0.8984375
,9.2937596,0.8935546875
,9.2941381,0.8837890625
,9.3110344,0.87890625
,9.3552274,0.869140625
,9.3556282,0.859375
,9.372635,0.849609375
,9.4173549,0.83984375
,9.4176183,0.830078125
,9.4337414,0.8203125
,9.4537873,0.8154296875
,9.4756195,0.80078125
,9.4957301,0.7958984375
,9.5115234,0.7861328125
,9.5469109,0.7861328125
,9.5530147,0.78125
,9.5737754,0.7763671875
,9.5935614,0.7763671875
,9.6127581,0.7763671875
,9.6557028,0.7763671875
,9.6560531,0.7861328125
,9.6708826,0.7958984375
,9.6936791,0.8203125
,9.7113547,0.8349609375
,9.748661,0.8544921875
,9.7528471,0.869140625
,9.7905171,0.888671875
,9.7939896,0.8984375
,9.8283385,0.908203125
,9.8493734,0.91796875
,9.8497039,0.9228515625
,9.8852453,0.9228515625
,9.8904299,0.91796875
,9.9259618,0.908203125
,9.9461012,0.9033203125
,9.953396,0.8935546875
,9.9911072,0.888671875
,9.9958407,0.87890625
,10.011848,0.869140625
,10.0541236,0.859375
,10.0546164,0.849609375
,10.073774,0.83984375
,10.0941285,0.8349609375
,10.1339888,0.8251953125
,10.1349256,0.8203125
,10.154061,0.8154296875
,10.1755232,0.8056640625
,10.1912316,0.80078125
,10.2421466,0.7958984375
,10.242483,0.7861328125
,10.2536446,0.7861328125
,10.3045905,0.78125
,10.3049971,0.7763671875
,10.3133715,0.78125
,10.3490231,0.791015625
,10.3546451,0.8056640625
,10.3974887,0.8203125
,10.3978989,0.83984375
,10.4118098,0.859375
,10.4612665,0.8740234375
,10.4615803,0.888671875
,10.4734663,0.8984375
,10.5229897,0.908203125
,10.5233792,0.9130859375
,10.5439515,0.9130859375
,10.556042,0.908203125
,10.5725267,0.9033203125
,10.6078716,0.8984375
,10.6336607,0.888671875
,10.6340533,0.87890625
,10.6544136,0.869140625
,10.6945797,0.859375
,10.6949679,0.849609375
,10.7295581,0.83984375
,10.7498229,0.830078125
,10.7502636,0.8203125
,10.786984,0.8154296875
,10.8078792,0.8056640625
,10.8138482,0.80078125
,10.8335722,0.791015625
,10.8694001,0.7861328125
,10.8897769,0.78125
,10.8954347,0.7763671875
,10.9115334,0.7666015625
,10.9480366,0.7666015625
,10.9528476,0.76171875
,10.9882629,0.7666015625
,10.9937127,0.771484375
,11.0362229,0.7861328125
,11.0365252,0.80078125
,11.0549913,0.8203125
,11.0973965,0.8349609375
,11.0978687,0.849609375
,11.1193649,0.859375
,11.1341894,0.869140625
,11.1537337,0.87890625
,11.1879937,0.888671875
,11.2093658,0.888671875
,11.2147412,0.888671875
,11.2656637,0.8837890625
,11.2661127,0.87890625
,11.2960469,0.869140625
,11.2964581,0.8642578125
,11.3144925,0.8544921875
,11.3345705,0.849609375
,11.3692701,0.83984375
,11.3753273,0.8349609375
,11.4214077,0.8251953125
,11.4217351,0.8154296875
,11.4356555,0.810546875
,11.4703124,0.80078125
,11.4924754,0.7958984375
,11.4928785,0.7958984375
,11.5304347,0.791015625
,11.535124,0.7861328125
,11.5753921,0.78125
,11.5758416,0.78125
,11.6105443,0.7763671875
,11.616884,0.771484375
,11.6343033,0.771484375
,11.6724296,0.7763671875
,11.6728924,0.7861328125
,11.7071549,0.80078125
,11.7286519,0.8154296875
,11.7357338,0.8349609375
,11.7800719,0.8544921875
,11.7805199,0.8642578125
,11.7944943,0.87890625
,11.8164861,0.888671875
,11.8576388,0.8935546875
,11.8581228,0.9033203125
,11.8748177,0.908203125
,11.9096389,0.9033203125
,11.916807,0.9033203125
,11.9519606,0.8984375
,11.957644,0.8935546875
,11.9769905,0.8837890625
,12.0125986,0.87890625
,12.0129537,0.8740234375
,12.0322987,0.8642578125
,12.0724849,0.859375
,12.0930334,0.849609375
,12.0978255,0.83984375
,12.1173088,0.830078125
,12.1669522,0.8251953125
,12.1675669,0.8154296875
,12.1773788,0.810546875
,12.1942189,0.8056640625
,12.2303771,0.80078125
,12.2349468,0.7958984375
,12.2532361,0.791015625
,12.2894143,0.7861328125
,12.3111083,0.78125
,12.3162781,0.78125
,12.3389587,0.78125
,12.3534655,0.791015625
,12.3992169,0.8056640625
,12.3995074,0.8251953125
,12.4157669,0.8447265625
,12.4605798,0.859375
,12.4608943,0.8740234375
,12.4768443,0.888671875
,12.5151094,0.8984375
,12.5155848,0.9130859375
,12.5330166,0.91796875
,12.5689724,0.9228515625
,12.5887487,0.91796875
,12.5961224,0.9130859375
,12.6160532,0.908203125
,12.6537842,0.8984375
,12.6542289,0.8935546875
,12.6959105,0.8837890625
,12.6962792,0.8740234375
,12.7160282,0.8642578125
,12.7676142,0.8544921875
,12.7680615,0.8447265625
,12.7987462,0.83984375
,12.7990489,0.8349609375
,12.816714,0.8251953125
,12.8608297,0.8154296875
,12.8612873,0.810546875
,12.878456,0.8056640625
,12.9162521,0.80078125
,12.9168287,0.791015625
,12.9350729,0.791015625
,12.9703935,0.7861328125
,12.9897792,0.78125
,12.9970357,0.78125
,13.0333138,0.7861328125
,13.0380508,0.7958984375
,13.0726887,0.810546875
,13.0789373,0.830078125
,13.0959365,0.8447265625
,13.1325296,0.8642578125
,13.1340871,0.87890625
,13.1716489,0.8935546875
,13.1784209,0.9033203125
,13.1979719,0.9130859375
,13.232189,0.91796875
,13.2369773,0.9228515625
,13.2549105,0.91796875
,13.2923994,0.91796875
,13.2929723,0.9130859375
,13.3320973,0.9033203125
,13.3373284,0.8984375
,13.3757961,0.888671875
,13.3762814,0.87890625
,13.4273594,0.8740234375
,13.4278067,0.8642578125
,13.4454596,0.849609375
,13.4594916,0.83984375
,13.4761222,0.8349609375
,13.5133654,0.8251953125
,13.5166397,0.8203125
,13.5530636,0.8154296875
,13.5571561,0.8056640625
,13.595869,0.80078125
,13.6167734,0.791015625
,13.619789,0.7861328125
,13.6367902,0.78125
,13.6553893,0.78125
,13.7045137,0.7763671875
,13.7048764,0.78125
,13.7254187,0.791015625
,13.7379237,0.8056640625
,13.7738326,0.8251953125
,13.7794818,0.83984375
,13.8132139,0.859375
,13.8345914,0.869140625
,13.8348993,0.8837890625
,13.8763155,0.8935546875
,13.8965715,0.8984375
,13.8970213,0.9033203125
,13.9342218,0.9033203125
,13.9399714,0.8984375
,13.9841388,0.8935546875
,13.9845968,0.888671875
,13.9958309,0.87890625
,14.0460436,0.8740234375
,14.046501500000002,0.8642578125
,14.0581012,0.859375
,14.093088600000002,0.849609375
,14.101486399999999,0.83984375
,14.120403499999998,0.830078125
,14.1566409,0.8251953125
,14.161222299999999,0.8154296875
,14.200289000000001,0.8056640625
,14.200883300000001,0.80078125
,14.218272599999999,0.7958984375
,14.264002999999999,0.7861328125
,14.2643105,0.78125
,14.2777234,0.7763671875
,14.3123498,0.771484375
,14.3326998,0.7666015625
,14.340563,0.7666015625
,14.3873341,0.7666015625
,14.387636700000002,0.7763671875
,14.397899200000001,0.791015625
,14.4349153,0.8056640625
,14.437327100000001,0.8203125
,14.473369300000002,0.8349609375
,14.4784024,0.849609375
,14.5283722,0.859375
,14.528729299999998,0.869140625
,14.549336,0.87890625
,14.5567439,0.888671875
,14.607824399999998,0.888671875
,14.6081261,0.888671875
,14.639260499999999,0.8837890625
,14.639710099999999,0.87890625
,14.660766500000001,0.869140625
,14.6814641,0.8642578125
,14.7156722,0.8544921875
,14.7160899,0.849609375
,14.7479786,0.83984375
,14.768507499999998,0.830078125
,14.777261500000002,0.8251953125
,14.8146569,0.8154296875
,14.819935999999998,0.810546875
,14.857604299999998,0.80078125
,14.8578951,0.7958984375
,14.903094,0.791015625
,14.9034641,0.7861328125
,14.917518900000001,0.7763671875
,14.951990299999999,0.7763671875
,14.983300199999999,0.771484375
,14.9836502,0.7666015625
,14.999863000000001,0.7666015625
,15.043565399999999,0.76171875
,15.0438534,0.771484375
,15.061368900000002,0.78125
,15.107821900000001,0.7958984375
,15.108126899999998,0.8154296875
,15.1377426,0.8349609375
,15.138029800000002,0.849609375
,15.1741129,0.8642578125
,15.200672399999998,0.8740234375
,15.201526900000001,0.888671875
,15.219786800000001,0.8935546875
,15.263813500000001,0.8984375
,15.2641724,0.9033203125
,15.295741199999998,0.8984375
,15.296170199999999,0.8935546875
,15.3327253,0.888671875
,15.3533327,0.8837890625
,15.3609905,0.87890625
,15.3972634,0.869140625
,15.399505399999999,0.859375
,15.436346499999999,0.849609375
,15.436634600000001,0.83984375
,15.4702102,0.8349609375
,15.491219999999998,0.8251953125
,15.4986775,0.8154296875
,15.542798999999999,0.810546875
,15.543094,0.80078125
,15.561387499999999,0.7958984375
,15.5809004,0.791015625
,15.6274315,0.7861328125
,15.627878200000001,0.78125
,15.658087900000002,0.7763671875
,15.6583894,0.771484375
,15.695558299999998,0.771484375
,15.701505000000001,0.771484375
,15.7202889,0.7763671875
,15.755620100000002,0.7861328125
,15.762464699999999,0.80078125
,15.799319400000002,0.8154296875
,15.802052799999998,0.8349609375
,15.8190892,0.849609375
,15.8614259,0.8642578125
,15.8617141,0.8740234375
,15.8812657,0.888671875
,15.9245688,0.8984375
,15.925028300000001,0.9033203125
,15.941303600000001,0.908203125
,15.986049099999999,0.9033203125
,15.986531200000002,0.8984375
,15.9985092,0.888671875
,16.0345099,0.8837890625
,16.0402546,0.8740234375
,16.0607318,0.8642578125
,16.09674,0.859375
,16.0989597,0.849609375
,16.142305,0.83984375
,16.1427382,0.830078125
,16.1595454,0.8203125
,16.2039588,0.8154296875
,16.204758,0.8056640625
,16.2201193,0.80078125
,16.2652376,0.7958984375
,16.2656642,0.7861328125
,16.2817157,0.78125
,16.3006729,0.7763671875
,16.3429718,0.771484375
,16.3432959,0.7666015625
,16.3648704,0.7666015625
,16.3792247,0.7666015625
,16.4143101,0.7763671875
,16.4354816,0.791015625
,16.4428747,0.810546875
,16.4616715,0.8251953125
,16.4971924,0.8447265625
,16.51918,0.859375
,16.5237161,0.869140625
,16.5608302,0.8837890625
,16.5612802,0.8935546875
,16.5804591,0.8984375
,16.6169259,0.8984375
,16.6222741,0.8984375
,16.6718821,0.8935546875
,16.6721665,0.8837890625
,16.6821711,0.87890625
,16.719096,0.869140625
,16.7195453,0.859375
,16.7646223,0.8544921875
,16.7650085,0.8447265625
,16.7835776,0.8349609375
,16.801383,0.8251953125
,16.8375632,0.8203125
,16.8433802,0.810546875
,16.8634412,0.80078125
,16.8844375,0.7958984375
,16.8993775,0.7861328125
,16.9356178,0.78125
,16.9560115,0.7763671875
,16.961433,0.771484375
,16.9995742,0.7666015625
,17.000025,0.76171875
,17.0363811,0.76171875
,17.0568331,0.76171875
,17.0621024,0.771484375
,17.08031,0.78125
,17.1229679,0.80078125
,17.1234231,0.8203125
,17.1408567,0.8349609375
,17.1867472,0.849609375
,17.1870511,0.8642578125
,17.202365,0.8740234375
,17.2481252,0.8837890625
,17.2487116,0.888671875
,17.2704271,0.888671875
,17.2804885,0.8837890625
,17.3157112,0.87890625
,17.3366844,0.8740234375
,17.3417965,0.869140625
,17.3790459,0.8642578125
,17.3840281,0.859375
,17.4046078,0.849609375
,17.4251034,0.8447265625
,17.442274,0.8349609375
,17.482178,0.8251953125
,17.4824717,0.8203125
,17.5016293,0.810546875
,17.5373974,0.8056640625
,17.5426608,0.80078125
,17.5804612,0.791015625
,17.5842021,0.7861328125
,17.6207793,0.78125
,17.6211532,0.7763671875
,17.657054,0.771484375
,17.6616085,0.771484375
,17.6810217,0.771484375
,17.7332418,0.771484375
,17.7336888,0.78125
,17.7632638,0.791015625
,17.7636987,0.810546875
,17.7812601,0.8251953125
,17.8240314,0.8447265625
,17.8245249,0.859375
,17.8429218,0.8740234375
,17.8789765,0.8837890625
,17.8814587,0.8935546875
,17.9038265,0.8984375
,17.9515014,0.8984375
,17.9519615,0.8984375
,17.9609467,0.888671875
,18.0116061,0.8837890625
,18.0120703,0.87890625
,18.0215996,0.869140625
,18.0592687,0.8642578125
,18.0790581,0.8544921875
,18.0841222,0.8447265625
,18.1179823,0.8349609375
,18.1396297,0.8251953125
,18.144973,0.8203125
,18.1985446,0.810546875
,18.1988624,0.8056640625
,18.2012225,0.80078125
,18.2366224,0.7958984375
,18.2573376,0.791015625
,18.2652599,0.7861328125
,18.2837257,0.78125
,18.3197796,0.7763671875
,18.3408369,0.771484375
,18.3413133,0.7666015625
,18.383863,0.771484375
,18.3841854,0.7763671875
,18.402604,0.791015625
,18.4395238,0.810546875
,18.4585183,0.8251953125
,18.4639081,0.8447265625
,18.4840005,0.859375
,18.5194919,0.8740234375
,18.5405761,0.8837890625
,18.5408635,0.8984375
,18.577556,0.9033203125
,18.5836731,0.908203125
,18.6202489,0.908203125
,18.6246664,0.9033203125
,18.6609279,0.8984375
,18.6656857,0.888671875
,18.6817419,0.8837890625
,18.7267046,0.8740234375
,18.727009,0.8642578125
,18.7431952,0.8544921875
,18.7792083,0.8447265625
,18.7835667,0.8349609375
,18.8200394,0.8251953125
,18.8247269,0.8154296875
,18.8606861,0.810546875
,18.8821286,0.80078125
,18.8864208,0.791015625
,18.907214,0.7861328125
,18.9240213,0.78125
,18.9604986,0.771484375
,18.9651669,0.771484375
,18.9993356,0.7666015625
,19.0061518,0.76171875
,19.0513763,0.76171875
,19.0518279,0.771484375
,19.0616787,0.7861328125
,19.098899,0.80078125
,19.103405,0.8203125
,19.1452595,0.8349609375
,19.1456175,0.849609375
,19.1918029,0.8642578125
,19.1922516,0.87890625
,19.2063514,0.8935546875
,19.2408366,0.9033203125
,19.2411412,0.908203125
,19.2784143,0.908203125
,19.2857553,0.9033203125
,19.3041702,0.8984375
,19.3410073,0.888671875
,19.3434504,0.8837890625
,19.3813126,0.869140625
,19.3836645,0.859375
,19.4023702,0.849609375
,19.4417557,0.83984375
,19.4421474,0.830078125
,19.4776558,0.8203125
,19.4986706,0.810546875
,19.5061555,0.80078125
,19.5522709,0.7958984375
,19.5525784,0.7861328125
,19.5659551,0.78125
,19.5874672,0.771484375
,19.6311806,0.76171875
,19.6315437,0.7568359375
,19.6447302,0.751953125
,19.6796283,0.7470703125
,19.6842748,0.751953125
,19.7217871,0.7568359375
,19.7246326,0.771484375
,19.7701989,0.7861328125
,19.7706384,0.8056640625
,19.7918586,0.8203125
,19.8042819,0.8349609375
,19.8408837,0.849609375
,19.8460747,0.859375
,19.8943066,0.8642578125
,19.8947358,0.869140625
,19.9080241,0.869140625
,19.9259777,0.8642578125
,19.9620476,0.859375
,19.9623456,0.849609375
,19.982812,0.83984375
,20.0337569,0.830078125
,20.0340463,0.8251953125
,20.0544166,0.8154296875
,20.0662422,0.8056640625
,20.110967,0.7958984375
,20.1114443,0.7861328125
,20.1277509,0.7763671875
,20.1443396,0.771484375
,20.1815703,0.76171875
,20.1853549,0.7568359375
,20.204912,0.751953125
,20.2499235,0.7470703125
,20.2506118,0.7421875
,20.2675238,0.7373046875
,20.3118935,0.732421875
,20.3124867,0.732421875
,20.323545,0.732421875
,20.3752771,0.7373046875
,20.3757224,0.7470703125
,20.386282,0.7666015625
,20.4374073,0.78125
,20.4378528,0.80078125
,20.4484093,0.8154296875
,20.4837619,0.830078125
,20.4888479,0.8447265625
,20.5239746,0.8544921875
,20.5243198,0.859375
,20.5640997,0.869140625
,20.5951425,0.869140625
,20.5954715,0.8642578125
,20.6087758,0.859375
,20.62728,0.8544921875
,20.6616828,0.849609375
,20.681812,0.8447265625
,20.6867758,0.8349609375
,20.7062145,0.830078125
,20.7422547,0.8251953125
,20.7428136,0.8154296875
,20.782237,0.810546875
,20.8121996,0.8056640625
,20.8126318,0.7958984375
,20.827628,0.791015625
,20.8648588,0.7861328125
,20.8653031,0.7763671875
,20.9006071,0.7763671875
,20.9047558,0.771484375
,20.9395434,0.7666015625
,20.9606353,0.76171875
,20.9665726,0.76171875
,21.0138475,0.7568359375
,21.0143064,0.76171875
,21.0287491,0.7763671875
,21.0441705,0.791015625
,21.0912279,0.810546875
,21.0915608,0.830078125
,21.1127472,0.8447265625
,21.1265336,0.859375
,21.1703816,0.8740234375
,21.1708263,0.8837890625
,21.1880706,0.8935546875
,21.2310357,0.8984375
,21.231477,0.8984375
,21.245469,0.8984375
,21.2814117,0.8935546875
,21.2859034,0.888671875
,21.3238127,0.8837890625
,21.3321325,0.8740234375
,21.3486343,0.869140625
,21.3835769,0.859375
,21.3890302,0.849609375
,21.4255403,0.83984375
,21.425934,0.830078125
,21.4666739,0.8251953125
,21.4670496,0.8203125
,21.5133703,0.810546875
,21.5138255,0.8056640625
,21.5280608,0.80078125
,21.5757209,0.791015625
,21.5760402,0.7861328125
,21.5953836,0.78125
,21.6042942,0.7763671875
,21.6387609,0.7763671875
,21.6703838,0.771484375
,21.6708314,0.7763671875
,21.6870422,0.7861328125
,21.7225403,0.7958984375
,21.743828,0.8154296875
,21.7489759,0.8349609375
,21.7649525,0.849609375
,21.8017815,0.869140625
,21.8271421,0.8837890625
,21.8275947,0.8935546875
,21.8644337,0.9033203125
,21.8670677,0.9130859375
,21.9048386,0.91796875
,21.9361891,0.91796875
,21.936556,0.9130859375
,21.9498426,0.9033203125
,21.9664404,0.8984375
,22.0113273,0.8935546875
,22.0117625,0.888671875
,22.0297722,0.87890625
,22.0500022,0.869140625
,22.0677665,0.8642578125
,22.1017595,0.8544921875
,22.1239295,0.8447265625
,22.1306384,0.83984375
,22.146254,0.830078125
,22.1806388,0.8251953125
,22.2014053,0.8203125
,22.2077419,0.8154296875
,22.26005,0.810546875
,22.2604764,0.8056640625
,22.2698827,0.80078125
,22.3079344,0.7958984375
,22.3097308,0.791015625
,22.3282002,0.791015625
,22.3468229,0.80078125
,22.3862528,0.810546875
,22.3867103,0.830078125
,22.422779,0.8447265625
,22.4424704,0.8642578125
,22.4478018,0.87890625
,22.4851236,0.8935546875
,22.515985,0.9033203125
,22.516272,0.91796875
,22.5278905,0.927734375
,22.5631005,0.927734375
,22.5687533,0.9228515625
,22.609017,0.91796875
,22.609469,0.908203125
,22.6444952,0.8984375
,22.6492242,0.888671875
,22.6703806,0.8740234375
,22.6930905,0.859375
,22.7081077,0.8447265625
,22.7443575,0.83984375
,22.7493395,0.830078125
,22.7849808,0.8203125
,22.7903712,0.8154296875
,22.8286567,0.8056640625
,22.8288994,0.7958984375
,22.8749689,0.791015625
,22.8753911,0.78125
,22.895277,0.7763671875
,22.9098495,0.771484375
,22.9466105,0.76171875
,22.9492361,0.7568359375
,22.986108,0.7568359375
,22.9889184,0.7568359375
,23.023594,0.76171875
,23.0440515,0.771484375
,23.0467409,0.7861328125
,23.084533,0.810546875
,23.0901485,0.8251953125
,23.1096106,0.8447265625
,23.1444722,0.8544921875
,23.1496157,0.869140625
,23.184974,0.87890625
,23.205777,0.888671875
,23.206284,0.888671875
,23.2422813,0.8837890625
,23.2484348,0.87890625
,23.2817026,0.8740234375
,23.3029801,0.869140625
,23.3104712,0.8642578125
,23.3464975,0.859375
,23.3537619,0.849609375
,23.3717058,0.8447265625
,23.388246,0.8349609375
,23.4077704,0.8251953125
,23.4425514,0.8203125
,23.4626923,0.810546875
,23.4709813,0.8056640625
,23.5122952,0.80078125
,23.5126017,0.7958984375
,23.5317416,0.791015625
,23.5507729,0.7861328125
,23.5879367,0.78125
,23.5927029,0.7763671875
,23.6095383,0.7763671875
,23.651557,0.7763671875
,23.6519296,0.7763671875
,23.6700377,0.7861328125
,23.7060993,0.80078125
,23.7104597,0.8154296875
,23.744768,0.8349609375
,23.7777065,0.8544921875
,23.7781685,0.869140625
,23.7893275,0.8837890625
,23.8254773,0.8935546875
,23.8308811,0.9033203125
,23.8661091,0.9033203125
,23.8716437,0.9033203125
,23.8917351,0.8935546875
,23.9121506,0.8837890625
,23.9477193,0.8740234375
,23.9482996,0.859375
,23.967432,0.849609375
,24.0029789,0.83984375
,24.024411,0.8349609375
,24.0296407,0.830078125
,24.0666165,0.8251953125
,24.0720508,0.8251953125
,24.1193104,0.8203125
,24.1196115,0.8203125
,24.1294941,0.8203125
,24.1799607,0.8154296875
,24.1803975,0.8203125
,24.1891777,0.8154296875
,24.2265762,0.8154296875
,24.2474083,0.810546875
,24.2536447,0.8056640625
,24.2727756,0.80078125
,24.3219042,0.7958984375
,24.322357,0.7958984375
,24.3298943,0.7958984375
,24.3646859,0.810546875
,24.3716146,0.8251953125
,24.3895047,0.8447265625
,24.4309481,0.859375
,24.4513426,0.87890625
,24.4517273,0.888671875
,24.4913895,0.9033203125
,24.4918237,0.9130859375
,24.5093475,0.9228515625
,24.5313363,0.927734375
,24.5661117,0.927734375
,24.5709132,0.927734375
,24.6041516,0.91796875
,24.6257093,0.9130859375
,24.6337375,0.908203125
,24.6535879,0.8984375
,24.6700352,0.8935546875
,24.7077178,0.8837890625
,24.7130542,0.87890625
,24.730984,0.869140625
,24.7716008,0.859375
,24.7719053,0.8544921875
,24.7934683,0.849609375
,24.8287035,0.8447265625
,24.8292595,0.83984375
,24.8805593,0.8349609375
,24.8808448,0.830078125
,24.8897829,0.8251953125
,24.926712,0.8203125
,24.9469671,0.8154296875
,24.9518848,0.8154296875
,24.9886689,0.810546875
,24.991158,0.810546875
,25.0273584,0.8203125
,25.0348295,0.830078125
,25.0504856,0.83984375
,25.0969144,0.859375
,25.0972067,0.87890625
,25.1170398,0.8935546875
,25.1323121,0.9033203125
,25.1691383,0.9130859375
,25.1721674,0.9228515625
,25.209146,0.9326171875
,25.2120898,0.9326171875
,25.230887,0.927734375
,25.2700015,0.927734375
,25.2703423,0.91796875
,25.3046046,0.9130859375
,25.3256642,0.9033203125
,25.3326496,0.8984375
,25.3802453,0.8935546875
,25.381288,0.8837890625
,25.4107841,0.8740234375
,25.4112296,0.8642578125
,25.4469867,0.859375
,25.45151,0.8544921875
,25.4881341,0.8447265625
,25.5181618,0.83984375
,25.5185947,0.8349609375
,25.5337539,0.830078125
,25.5708102,0.8203125
,25.5712652,0.8154296875
,25.6080731,0.810546875
,25.6086918,0.810546875
,25.6608688,0.8056640625
,25.6613084,0.8056640625
,25.6893969,0.8154296875
,25.6927257,0.8251953125
,25.7278456,0.8447265625
,25.7283222,0.859375
,25.7644403,0.8740234375
,25.7855042,0.8837890625
,25.7912713,0.8984375
,25.82716,0.908203125
,25.8617841,0.91796875
,25.8622288,0.9228515625
,25.8734545,0.9228515625
,25.9225991,0.9228515625
,25.9228845,0.91796875
,25.933542,0.908203125
,25.9526727,0.9033203125
,25.9731181,0.8984375
,26.0079018,0.888671875
,26.0134529,0.87890625
,26.0624332,0.8740234375
,26.0628801,0.8642578125
,26.0939492,0.8544921875
,26.094422,0.849609375
,26.1133304,0.83984375
,26.1488642,0.830078125
,26.151864,0.8251953125
,26.1866827,0.8203125
,26.2192229,0.8154296875
,26.2196767,0.8056640625
,26.2356824,0.80078125
,26.2802056,0.7958984375
,26.2806405,0.791015625
,26.2907533,0.7861328125
,26.3124824,0.791015625
,26.3587494,0.7958984375
,26.3591312,0.810546875
,26.3729582,0.8251953125
,26.4087932,0.83984375
,26.4285368,0.849609375
,26.4339743,0.8642578125
,26.4508585,0.869140625
,26.4863302,0.8837890625
,26.5073237,0.888671875
,26.5125351,0.8935546875
,26.560285,0.8935546875
,26.5606458,0.888671875
,26.5745816,0.8837890625
,26.6117409,0.87890625
,26.6122939,0.869140625
,26.6551268,0.8642578125
,26.6554192,0.8544921875
,26.6749908,0.849609375
,26.694739,0.83984375
,26.7344041,0.8349609375
,26.734866,0.8251953125
,26.7691015,0.8203125
,26.7741407,0.810546875
,26.8089135,0.8056640625
,26.829365,0.80078125
,26.8372497,0.7958984375
,26.851155,0.791015625
,26.8863128,0.7861328125
,26.9073409,0.78125
,26.9156718,0.78125
,26.9345452,0.7763671875
,26.9841137,0.7763671875
,26.9844708,0.7763671875
,27.0152504,0.78125
,27.0157137,0.7958984375
,27.031399,0.810546875
,27.0702751,0.8251953125
,27.0721604,0.83984375
,27.1083792,0.8544921875
,27.1136823,0.8642578125
,27.1365405,0.8740234375
,27.1861102,0.87890625
,27.1864045,0.8837890625
,27.1923103,0.8837890625
,27.2271859,0.87890625
,27.2332171,0.8740234375
,27.2805245,0.869140625
,27.2809587,0.8642578125
,27.2960103,0.859375
,27.3309831,0.849609375
,27.3344806,0.83984375
,27.3559995,0.8349609375
,27.3914198,0.8251953125
,27.3917185,0.8203125
,27.4261308,0.8154296875
,27.4485272,0.810546875
,27.4528976,0.8056640625
,27.4872324,0.80078125
,27.5082729,0.7958984375
,27.5157673,0.791015625
,27.5363733,0.7861328125
,27.5757925,0.78125
,27.5762495,0.78125
,27.5943509,0.7763671875
,27.6390336,0.7763671875
,27.639488,0.7763671875
,27.6562434,0.7861328125
,27.7021041,0.80078125
,27.7025547,0.8154296875
,27.7157401,0.830078125
,27.7327221,0.8447265625
,27.7787141,0.859375
,27.7791003,0.8740234375
,27.8084417,0.8837890625
,27.8158654,0.888671875
,27.8503469,0.8935546875
,27.8549358,0.8935546875
,27.9016725,0.8935546875
,27.902096,0.888671875
,27.9232882,0.8837890625
,27.9336225,0.8740234375
,27.9791354,0.869140625
,27.9795807,0.8642578125
,27.9934289,0.8544921875
,28.0320601,0.849609375
,28.0363555,0.83984375
,28.0715009,0.830078125
,28.0944516,0.8203125
,28.094955,0.810546875
,28.1286683,0.8056640625
,28.1350376,0.7958984375
,28.1707996,0.791015625
,28.1752147,0.791015625
,28.2121738,0.7861328125
,28.2422632,0.78125
,28.2427274,0.7763671875
,28.2570187,0.771484375
,28.2928429,0.771484375
,28.2931425,0.771484375
,28.3279044,0.78125
,28.3512053,0.791015625
,28.3564878,0.810546875
,28.3756174,0.8251953125
,28.4128351,0.83984375
,28.4172223,0.8544921875
,28.4582617,0.8642578125
,28.4590213,0.8740234375
,28.4793036,0.8837890625
,28.494516,0.888671875
,28.5292381,0.888671875
,28.5498764,0.888671875
,28.5553604,0.8837890625
,28.5911485,0.8740234375
,28.6119773,0.869140625
,28.6185732,0.859375
,28.635334,0.8544921875
,28.6739678,0.849609375
,28.67426,0.83984375
,28.7207358,0.8349609375
,28.7210631,0.830078125
,28.7397219,0.8203125
,28.7571253,0.8154296875
,28.7924075,0.8056640625
,28.8124225,0.80078125
,28.8127277,0.791015625
,28.8514975,0.791015625
,28.8568361,0.7861328125
,28.9061543,0.78125
,28.9064633,0.7861328125
,28.9187393,0.791015625
,28.9690736,0.80078125
,28.9695222,0.8154296875
,28.977344,0.8251953125
,29.0130914,0.83984375
,29.0339131,0.8447265625
,29.0342249,0.859375
,29.0705256,0.8642578125
,29.09057,0.8642578125
,29.0963769,0.8642578125
,29.1415489,0.8642578125
,29.1420033,0.8544921875
,29.1578233,0.849609375
,29.1938029,0.8447265625
,29.1942366,0.83984375
,29.2140411,0.8349609375
,29.2513175,0.830078125
,29.2572763,0.8251953125
,29.297243,0.8154296875
,29.2976908,0.810546875
,29.3186415,0.8056640625
,29.3592629,0.80078125
,29.3597331,0.7958984375
,29.3740965,0.791015625
,29.4236554,0.7861328125
,29.4241116,0.78125
,29.4360309,0.78125
,29.4739422,0.78125
,29.4768135,0.7763671875
,29.5119564,0.7763671875
,29.5327281,0.771484375
,29.533187,0.771484375
,29.5725509,0.771484375
,29.5778266,0.771484375
,29.5962753,0.7763671875
,29.6331523,0.791015625
,29.6377018,0.810546875
,29.6593488,0.830078125
,29.7014223,0.849609375
,29.7017134,0.8642578125
,29.7179919,0.87890625
,29.7542263,0.888671875
,29.7754069,0.8984375
,29.7759153,0.908203125
,29.8131311,0.9130859375
,29.8442498,0.9130859375
,29.8447238,0.908203125
,29.8593814,0.8984375
,29.9065261,0.8935546875
,29.9068925,0.8837890625
,29.9157073,0.87890625
,29.9539462,0.8740234375
,29.9595631,0.869140625
,29.9942898,0.859375
,29.9977544,0.849609375
,30.0211512,0.83984375
,30.040300199999997,0.830078125
,30.0764005,0.8251953125
,30.0807535,0.8154296875
,30.097566999999998,0.810546875
,30.141688199999997,0.8056640625
,30.1419827,0.80078125
,30.1578867,0.7958984375
,30.195011100000002,0.791015625
,30.200166600000003,0.791015625
,30.220118900000003,0.7861328125
,30.239151200000002,0.7861328125
,30.256600900000002,0.7861328125
,30.291580500000002,0.791015625
,30.311140100000003,0.80078125
,30.318064900000003,0.8203125
,30.360790700000003,0.8349609375
,30.361368,0.849609375
,30.3779831,0.8642578125
,30.4250312,0.8740234375
,30.425348900000003,0.8837890625
,30.455207299999998,0.888671875
,30.462413599999998,0.8935546875
,30.477073599999997,0.888671875
,30.497513499999997,0.8935546875
,30.5340286,0.888671875
,30.5531272,0.8837890625
,30.5571428,0.87890625
,30.594620300000003,0.869140625
,30.6002997,0.8642578125
,30.640584099999998,0.8642578125
,30.640873399999997,0.859375
,30.662285500000003,0.849609375
,30.677615199999998,0.8447265625
,30.7168869,0.83984375
,30.717329999999997,0.8349609375
,30.7641312,0.830078125
,30.764566000000002,0.8203125
,30.7836151,0.8154296875
,30.7995048,0.810546875
,30.833490400000002,0.8056640625
,30.836533600000003,0.80078125
,30.873998800000003,0.7958984375
,30.880239500000002,0.7958984375
,30.898472599999998,0.791015625
,30.9333447,0.791015625
,30.953575100000002,0.7958984375
,30.958914399999998,0.810546875
,30.9944099,0.8251953125
,31.0154602,0.83984375
,31.018072099999998,0.859375
,31.054344999999998,0.8740234375
,31.059144099999997,0.8837890625
,31.0959122,0.8984375
,31.099104500000003,0.9033203125
,31.135347799999998,0.9130859375
,31.1411893,0.9130859375
,31.1578508,0.9130859375
,31.205077000000003,0.908203125
,31.205532400000003,0.9033203125
,31.217900800000002,0.8984375
,31.2527222,0.888671875
,31.273546500000002,0.8837890625
,31.279477200000002,0.8740234375
,31.3154897,0.8642578125
,31.3208664,0.8544921875
,31.3566607,0.849609375
,31.376151900000004,0.83984375
,31.3767475,0.830078125
,31.4128672,0.8251953125
,31.4407961,0.8154296875
,31.441158199999997,0.810546875
,31.487691599999998,0.8056640625
,31.4886799,0.80078125
,31.500798000000003,0.7958984375
,31.547553399999998,0.7861328125
,31.5478504,0.7861328125
,31.557754000000003,0.78125
,31.5792925,0.78125
,31.6251258,0.7861328125
,31.625499499999997,0.7958984375
,31.640334600000003,0.8056640625
,31.686828900000002,0.8251953125
,31.687260000000002,0.8349609375
,31.7026197,0.849609375
,31.718820700000002,0.859375
,31.763972799999998,0.869140625
,31.764258499999997,0.87890625
,31.784993299999996,0.8837890625
,31.800694,0.8837890625
,31.8351573,0.8837890625
,31.856243999999997,0.87890625
,31.861426199999997,0.8740234375
,31.879559899999997,0.869140625
,31.9153261,0.8642578125
,31.920313299999997,0.859375
,31.9657075,0.8544921875
,31.9661076,0.849609375
,31.9788153,0.849609375
,32.0154557,0.849609375
,32.0425818,0.849609375
,32.042878,0.8544921875
,32.0770506,0.859375
,32.0827969,0.869140625
,32.0986519,0.8740234375
,32.1350342,0.8837890625
,32.1404368,0.8935546875
,32.1824769,0.8984375
,32.1828029,0.8935546875
,32.2175391,0.8837890625
,32.2234152,0.869140625
,32.2436284,0.859375
,32.2779709,0.8544921875
,32.3075708,0.8544921875
,32.3080184,0.859375
,32.3194865,0.869140625
,32.3547869,0.8740234375
,32.3749269,0.8837890625
,32.3817229,0.8935546875
,32.4325779,0.8984375
,32.4330277,0.908203125
,32.4388794,0.908203125
,32.4737021,0.9130859375
,32.4953027,0.908203125
,32.5036007,0.9033203125
,32.5191083,0.8935546875
,32.555959,0.8837890625
,32.5768915,0.8740234375
,32.581952,0.8642578125
,32.6199218,0.8544921875
,32.6203722,0.849609375
,32.6567238,0.83984375
,32.6621318,0.8349609375
,32.6798089,0.8251953125
,32.7141662,0.8203125
,32.7360413,0.810546875
,32.7422046,0.8056640625
,32.7759123,0.7958984375
,32.7971494,0.791015625
,32.8052401,0.78125
,32.8194295,0.771484375
,32.8678587,0.7666015625
,32.86815,0.76171875
,32.8815473,0.76171875
,32.9307815,0.76171875
,32.9311171,0.7666015625
,32.9616338,0.78125
,32.9620275,0.7958984375
,33.0000387,0.8154296875
,33.0004846,0.8349609375
,33.0378846,0.8544921875
,33.039834,0.8740234375
,33.0754789,0.8935546875
,33.1007111,0.908203125
,33.1010156,0.91796875
,33.1356702,0.927734375
,33.1561894,0.927734375
,33.1585992,0.927734375
,33.1935566,0.9228515625
,33.2142365,0.91796875
,33.2224977,0.9130859375
,33.2593125,0.9033203125
,33.26229,0.8984375
,33.2844845,0.888671875
,33.3199068,0.87890625
,33.3251469,0.869140625
,33.3410598,0.859375
,33.3812526,0.8447265625
,33.3815497,0.8349609375
,33.4016838,0.8251953125
,33.436973,0.8154296875
,33.4426587,0.80078125
,33.4806716,0.791015625
,33.4811229,0.7861328125
,33.4995345,0.7763671875
,33.5195344,0.7763671875
,33.5679732,0.771484375
,33.5683086,0.771484375
,33.5980264,0.771484375
,33.6024202,0.7763671875
,33.6375096,0.7861328125
,33.6437203,0.80078125
,33.6634745,0.8154296875
,33.7070731,0.830078125
,33.7075211,0.8447265625
,33.722517,0.859375
,33.7586714,0.869140625
,33.7617093,0.87890625
,33.7982645,0.888671875
,33.8015539,0.8935546875
,33.8371222,0.8935546875
,33.8589083,0.888671875
,33.8647795,0.87890625
,33.9001027,0.8740234375
,33.9239168,0.869140625
,33.9242206,0.859375
,33.9433106,0.8544921875
,33.9784357,0.849609375
,33.9831089,0.83984375
,34.0194714,0.8349609375
,34.0246821,0.830078125
,34.0634626,0.8203125
,34.0639067,0.8154296875
,34.0824076,0.810546875
,34.1174949,0.80078125
,34.1234878,0.7958984375
,34.1435866,0.791015625
,34.1790135,0.7861328125
,34.2007849,0.78125
,34.2054294,0.7763671875
,34.2257118,0.771484375
,34.2425654,0.771484375
,34.2606156,0.7763671875
,34.300318,0.7861328125
,34.3006797,0.80078125
,34.3440946,0.8154296875
,34.3443851,0.830078125
,34.3649491,0.8447265625
,34.3993634,0.8544921875
,34.4061086,0.8642578125
,34.4244183,0.8740234375
,34.4698777,0.87890625
,34.4701754,0.8837890625
,34.4841431,0.8837890625
,34.5321052,0.8837890625
,34.5334954,0.87890625
,34.5441392,0.8740234375
,34.5787768,0.8642578125
,34.5996709,0.859375
,34.6079149,0.8544921875
,34.6212761,0.849609375
,34.6574232,0.8447265625
,34.6875955,0.8349609375
,34.688045,0.830078125
,34.7035457,0.8203125
,34.7491013,0.8154296875
,34.7494752,0.810546875
,34.780041,0.8056640625
,34.7804084,0.80078125
,34.8162331,0.7958984375
,34.8411262,0.791015625
,34.8415358,0.7861328125
,34.8880346,0.7861328125
,34.8883207,0.78125
,34.9171272,0.7861328125
,34.9256711,0.7861328125
,34.9646037,0.80078125
,34.96505,0.8203125
,34.9848131,0.8447265625
,35.0171674,0.869140625
,35.0375029,0.8935546875
,35.0429717,0.9130859375
,35.0784961,0.9326171875
,35.1030576,0.947265625
,35.1056099,0.9619140625
,35.1388684,0.9716796875
,35.1600546,0.9765625
,35.1681928,0.9716796875
,35.1824438,0.966796875
,35.2184952,0.9619140625
,35.2429685,0.9521484375
,35.2434959,0.9423828125
,35.2798922,0.9375
,35.3011037,0.927734375
,35.3054397,0.91796875
,35.3423015,0.908203125
,35.3426602,0.8935546875
,35.3787794,0.8837890625
,35.4116135,0.8740234375
,35.4120261,0.859375
,35.4261675,0.849609375
,35.4751682,0.83984375
,35.475766,0.830078125
,35.4857508,0.8203125
,35.5204526,0.810546875
,35.5404572,0.80078125
,35.5484288,0.7958984375
,35.5627875,0.791015625
,35.6002691,0.7861328125
,35.6062969,0.7861328125
,35.6467216,0.7861328125
,35.6471731,0.791015625
,35.6673159,0.8056640625
,35.6838287,0.8203125
,35.7209298,0.83984375
,35.7256495,0.8544921875
,35.7624375,0.869140625
,35.7628895,0.8837890625
,35.7992875,0.8935546875
,35.82,0.9033203125
,35.826299,0.9130859375
,35.8627644,0.9130859375
,35.8630849,0.908203125
,35.8987584,0.9033203125
,35.9246958,0.888671875
,35.9250025,0.87890625
,35.9712591,0.8740234375
,35.9717248,0.8642578125
,35.9858905,0.8544921875
,36.0325524,0.8447265625
,36.0330316,0.8349609375
,36.047018,0.830078125
,36.0636234,0.8203125
,36.0977202,0.8154296875
,36.1183875,0.810546875
,36.1257449,0.8056640625
,36.1452191,0.7958984375
,36.1815367,0.791015625
,36.1872982,0.7861328125
,36.2226257,0.78125
,36.2290892,0.771484375
,36.2454793,0.7666015625
,36.2643979,0.76171875
,36.2996767,0.76171875
,36.3276852,0.7666015625
,36.3284942,0.7763671875
,36.347012,0.791015625
,36.381958,0.8056640625
,36.4026502,0.8251953125
,36.4080407,0.8447265625
,36.424453,0.859375
,36.458832,0.8740234375
,36.4663554,0.8837890625
,36.5016658,0.8935546875
,36.5067973,0.9033203125
,36.5501702,0.9033203125
,36.5514231,0.8984375
,36.56921,0.8935546875
,36.5839952,0.8837890625
,36.6187478,0.87890625
,36.6386995,0.869140625
,36.6467164,0.8642578125
,36.6804463,0.8544921875
,36.685989,0.849609375
,36.7227378,0.83984375
,36.7288956,0.830078125
,36.7640731,0.8203125
,36.7668063,0.8154296875
,36.8109671,0.8056640625
,36.8113678,0.80078125
,36.831866,0.7958984375
,36.8467249,0.7861328125
,36.8889234,0.78125
,36.8893587,0.7763671875
,36.9223425,0.771484375
,36.9510131,0.7666015625
,36.9514563,0.76171875
,36.9656212,0.76171875
,37.0133245,0.7666015625
,37.0136216,0.7763671875
,37.0259525,0.791015625
,37.0774987,0.810546875
,37.0777845,0.8251953125
,37.0871413,0.83984375
,37.1250099,0.8544921875
,37.1271594,0.8642578125
,37.1459513,0.8740234375
,37.1858018,0.8837890625
,37.1861414,0.8935546875
,37.2224594,0.888671875
,37.2270114,0.888671875
,37.248611,0.87890625
,37.2845321,0.8740234375
,37.2877611,0.869140625
,37.3065208,0.859375
,37.3258635,0.8544921875
,37.3737794,0.8447265625
,37.3742274,0.83984375
,37.388139,0.830078125
,37.407998,0.8203125
,37.4507061,0.8154296875
,37.4509933,0.8056640625
,37.486087,0.80078125
,37.4906464,0.791015625
,37.5101448,0.7861328125
,37.5267937,0.78125
,37.5750319,0.78125
,37.5758342,0.7763671875
,37.5878497,0.7666015625
,37.6088448,0.7666015625
,37.6520889,0.7666015625
,37.6525574,0.7666015625
,37.684227,0.7763671875
,37.7056424,0.791015625
,37.706052,0.8056640625
,37.7479118,0.8251953125
,37.7483183,0.83984375
,37.7683943,0.8544921875
,37.7889896,0.8642578125
,37.8390838,0.87890625
,37.8394312,0.8837890625
,37.8505517,0.888671875
,37.8662119,0.888671875
,37.8880186,0.888671875
,37.9084595,0.8837890625
,37.9292676,0.87890625
,37.9492682,0.8740234375
,37.968093,0.869140625
,38.0108434,0.8642578125
,38.0112964,0.859375
,38.0306,0.8544921875
,38.0465978,0.8447265625
,38.0687598,0.83984375
,38.0877063,0.8349609375
,38.1358412,0.8251953125
,38.1362568,0.8154296875
,38.1480835,0.8056640625
,38.1703295,0.80078125
,38.1910917,0.791015625
,38.2095914,0.78125
,38.2299136,0.771484375
,38.2479613,0.76171875
,38.2686353,0.76171875
,38.2897094,0.7568359375
,38.3371765,0.7568359375
,38.3375713,0.7666015625
,38.3500189,0.7763671875
,38.3708915,0.7958984375
,38.3905452,0.810546875
,38.4269888,0.8349609375
,38.4275579,0.849609375
,38.4623457,0.8642578125
,38.4885429,0.8740234375
,38.4887797,0.8837890625
,38.5253379,0.8935546875
,38.5280913,0.8984375
,38.5812142,0.8984375
,38.5821239,0.8935546875
,38.5867365,0.888671875
,38.6064023,0.87890625
,38.6417797,0.8740234375
,38.6619037,0.8642578125
,38.6682325,0.859375
,38.7040726,0.849609375
,38.7086702,0.83984375
,38.7456055,0.830078125
,38.7667908,0.8203125
,38.7671287,0.8154296875
,38.8025825,0.8056640625
,38.8074156,0.80078125
,38.8302465,0.791015625
,38.8653839,0.791015625
,38.8678797,0.7861328125
,38.9072382,0.78125
,38.9120853,0.7763671875
,38.9275204,0.771484375
,38.947338,0.7666015625
,38.9823995,0.76171875
,39.0028648,0.7568359375
,39.0095303,0.76171875
,39.0301969,0.771484375
,39.0499097,0.7861328125
,39.0850118,0.80078125
,39.1066463,0.8203125
,39.1118311,0.8349609375
,39.1335591,0.8544921875
,39.1488406,0.8642578125
,39.1994675,0.87890625
,39.1999228,0.888671875
,39.2080476,0.8935546875
,39.2447821,0.8935546875
,39.2495166,0.888671875
,39.2862855,0.8837890625
,39.2907821,0.87890625
,39.3393327,0.869140625
,39.3397797,0.8642578125
,39.3695794,0.859375
,39.3698684,0.849609375
,39.4030632,0.8447265625
,39.4239736,0.8349609375
,39.4315049,0.8251953125
,39.4795811,0.8203125
,39.4802,0.810546875
,39.4877721,0.8056640625
,39.5240758,0.80078125
,39.5288609,0.7958984375
,39.565166,0.791015625
,39.5697423,0.7861328125
,39.6036903,0.78125
,39.6244933,0.78125
,39.6308767,0.7763671875
,39.6685132,0.771484375
,39.6688091,0.7763671875
,39.7046202,0.7861328125
,39.7091914,0.80078125
,39.7455328,0.8203125
,39.7489346,0.8349609375
,39.7841697,0.8544921875
,39.8047403,0.869140625
,39.8126559,0.8837890625
,39.8480298,0.8935546875
,39.8496693,0.9033203125
,39.8695096,0.9130859375
,39.8895441,0.9130859375
,39.9248678,0.9130859375
,39.9289859,0.908203125
,39.9661064,0.9033203125
,39.971728,0.8935546875
,40.010585,0.888671875
,40.013245,0.8837890625
,40.033536,0.8740234375
,40.0499352,0.869140625
,40.0897798,0.8642578125
,40.0902403,0.8544921875
,40.1272314,0.8447265625
,40.1313158,0.8349609375
,40.1520026,0.8251953125
,40.1976376,0.8203125
,40.1979849,0.810546875
,40.228342,0.8056640625
,40.228706,0.80078125
,40.2654743,0.7958984375
,40.270867,0.7861328125
,40.2906756,0.78125
,40.3260609,0.78125
,40.3474681,0.7763671875
,40.3530972,0.78125
,40.3736158,0.7861328125
,40.3892052,0.80078125
,40.4282009,0.8203125
,40.4285166,0.83984375
,40.4656704,0.859375
,40.4727844,0.869140625
,40.5088913,0.8837890625
,40.5134059,0.8984375
,40.5327323,0.9033203125
,40.5534148,0.908203125
,40.5726749,0.9033203125
,40.594862,0.8984375
,40.6102689,0.888671875
,40.6290038,0.888671875
,40.67724,0.8837890625
,40.6776729,0.8740234375
,40.6922483,0.869140625
,40.740666,0.859375
,40.7410017,0.849609375
,40.7541687,0.83984375
,40.7701408,0.8251953125
,40.7890076,0.8154296875
,40.8357832,0.80078125
,40.8360775,0.7861328125
,40.8529447,0.7763671875
,40.8879787,0.76171875
,40.8930699,0.7470703125
,40.9424273,0.7373046875
,40.94273,0.7275390625
,40.9481882,0.7177734375
,40.9843112,0.712890625
,41.0051196,0.7080078125
,41.0122418,0.712890625
,41.0529429,0.72265625
,41.0534793,0.7373046875
,41.0995552,0.751953125
,41.0998449,0.771484375
,41.1101169,0.7861328125
,41.1303739,0.80078125
,41.1668947,0.810546875
,41.171465,0.8203125
,41.2094446,0.830078125
,41.2097672,0.8349609375
,41.2555554,0.8349609375
,41.256001,0.8349609375
,41.2862833,0.830078125
,41.2889392,0.8251953125
,41.326291,0.8251953125
,41.3314943,0.8203125
,41.3793423,0.8154296875
,41.3796442,0.810546875
,41.3940452,0.8056640625
,41.4430486,0.7958984375
,41.4434986,0.791015625
,41.4541346,0.7861328125
,41.5040995,0.78125
,41.5047716,0.7763671875
,41.5115259,0.771484375
,41.5475197,0.771484375
,41.5536343,0.7666015625
,41.5724633,0.76171875
,41.6075949,0.7568359375
,41.6133862,0.7568359375
,41.6360037,0.751953125
,41.6708635,0.751953125
,41.671312,0.751953125
,41.708947,0.7666015625
,41.7092412,0.78125
,41.7522285,0.80078125
,41.7526223,0.8203125
,41.7733,0.83984375
,41.8137047,0.8544921875
,41.8141315,0.869140625
,41.8318346,0.87890625
,41.8514985,0.8935546875
,41.8943838,0.8984375
,41.8948692,0.9033203125
,41.9120191,0.8984375
,41.9483646,0.8935546875
,41.9534938,0.888671875
,41.989472,0.8837890625
,41.9952548,0.8740234375
,42.0110835,0.8642578125
,42.0327807,0.859375
,42.0817376,0.8544921875
,42.0821893,0.8447265625
,42.0935515,0.8349609375
,42.1435113,0.830078125
,42.1438119,0.8203125
,42.1536525,0.8154296875
,42.175496,0.8056640625
,42.2229055,0.80078125
,42.2232086,0.7958984375
,42.2321463,0.791015625
,42.2679596,0.7861328125
,42.2745674,0.78125
,42.2938406,0.7763671875
,42.3292894,0.7763671875
,42.3648456,0.78125
,42.3651777,0.791015625
,42.3779428,0.8056640625
,42.3919441,0.8203125
,42.4268098,0.83984375
,42.448101,0.8544921875
,42.4510218,0.869140625
,42.4909491,0.8837890625
,42.4956507,0.8984375
,42.5307467,0.908203125
,42.5337134,0.9130859375
,42.5716294,0.9130859375
,42.5720627,0.9130859375
,42.6129709,0.908203125
,42.61343,0.8984375
,42.6344958,0.8935546875
,42.6535216,0.8837890625
,42.6879808,0.87890625
,42.7091066,0.869140625
,42.7150446,0.859375
,42.731493,0.849609375
,42.7674549,0.8447265625
,42.7889664,0.8349609375
,42.7937503,0.830078125
,42.846295,0.8203125
,42.8465981,0.8154296875
,42.8554412,0.8056640625
,42.8752002,0.80078125
,42.9233092,0.7958984375
,42.9237689,0.791015625
,42.9342014,0.78125
,42.9689539,0.7763671875
,42.9760721,0.78125
,42.9941842,0.7861328125
,43.0287747,0.7958984375
,43.0346517,0.810546875
,43.0705405,0.8251953125
,43.0749946,0.83984375
,43.1100631,0.859375
,43.1315223,0.869140625
,43.1351866,0.8837890625
,43.1543498,0.8935546875
,43.2043433,0.9033203125
,43.2046714,0.908203125
,43.2162822,0.908203125
,43.236325,0.9033203125
,43.2809551,0.8984375
,43.2813288,0.888671875
,43.2930133,0.8837890625
,43.3128945,0.87890625
,43.3598234,0.869140625
,43.3602907,0.8642578125
,43.381658,0.8544921875
,43.3956835,0.849609375
,43.4363465,0.83984375
,43.4368109,0.830078125
,43.4720288,0.8251953125
,43.4723481,0.8154296875
,43.5078532,0.810546875
,43.5284752,0.8056640625
,43.5333634,0.80078125
,43.5800714,0.791015625
,43.580428,0.7861328125
,43.6113239,0.78125
,43.6159506,0.7763671875
,43.6324722,0.771484375
,43.6691687,0.7763671875
,43.702881,0.7861328125
,43.7033265,0.80078125
,43.7135267,0.8154296875
,43.7651618,0.8349609375
,43.7655928,0.849609375
,43.7962145,0.8642578125
,43.7966632,0.87890625
,43.8422075,0.888671875
,43.8425096,0.8935546875
,43.8545314,0.8984375
,43.8900368,0.8984375
,43.8966539,0.8935546875
,43.9372816,0.888671875
,43.9377263,0.87890625
,43.9556871,0.8740234375
,43.9902337,0.8642578125
,44.0100926,0.859375
,44.0148375,0.849609375
,44.0513916,0.83984375
,44.0566782,0.8349609375
,44.093327,0.8251953125
,44.0960033,0.8203125
,44.141649,0.810546875
,44.1420993,0.8056640625
,44.1570919,0.7958984375
,44.1776488,0.791015625
,44.1934461,0.7861328125
,44.2283849,0.78125
,44.2501987,0.7763671875
,44.2543659,0.7763671875
,44.2962234,0.771484375
,44.2966701,0.771484375
,44.3273397,0.7763671875
,44.3366356,0.7861328125
,44.3541301,0.80078125
,44.4030432,0.8154296875
,44.4033369,0.8349609375
,44.4139214,0.8544921875
,44.4497477,0.869140625
,44.4708755,0.87890625
,44.4762714,0.888671875
,44.5290738,0.8935546875
,44.5293813,0.8984375
,44.5387023,0.8935546875
,44.5587086,0.8935546875
,44.5754856,0.8837890625
,44.6203241,0.8740234375
,44.6211556,0.869140625
,44.6365537,0.859375
,44.6744919,0.849609375
,44.6749352,0.8447265625
,44.7109192,0.8349609375
,44.7320962,0.8251953125
,44.7379907,0.8203125
,44.756159,0.810546875
,44.7927913,0.8056640625
,44.7963301,0.80078125
,44.8414025,0.7958984375
,44.84186,0.7861328125
,44.8589372,0.78125
,44.8784166,0.7763671875
,44.9126883,0.771484375
,44.934191,0.7666015625
,44.9346498,0.76171875
,44.979015,0.76171875
,44.9794707,0.76171875
,45.0008135,0.771484375
,45.0179257,0.7861328125
,45.0368808,0.80078125
,45.0869964,0.8203125
,45.0873319,0.83984375
,45.0939054,0.8544921875
,45.1303933,0.8642578125
,45.1361216,0.87890625
,45.1742781,0.888671875
,45.174606,0.8935546875
,45.2098282,0.8984375
,45.2312896,0.8935546875
,45.239202,0.888671875
,45.2592428,0.8837890625
,45.2798734,0.869140625
,45.2954572,0.8642578125
,45.3368091,0.859375
,45.3371002,0.849609375
,45.3668733,0.83984375
,45.3784777,0.8349609375
,45.3984524,0.8251953125
,45.4463723,0.8203125
,45.4468166,0.810546875
,45.4777252,0.80078125
,45.4781696,0.7958984375
,45.5241258,0.791015625
,45.524453,0.7861328125
,45.5380532,0.78125
,45.5575921,0.7763671875
,45.5785253,0.7763671875
,45.6137564,0.771484375
,45.6344626,0.7666015625
,45.6352891,0.7666015625
,45.655049,0.7763671875
,45.6951069,0.791015625
,45.7155031,0.8056640625
,45.7184042,0.8251953125
,45.7376089,0.83984375
,45.7729067,0.859375
,45.7930047,0.869140625
,45.8004326,0.87890625
,45.8157498,0.888671875
,45.8500578,0.8984375
,45.8710789,0.9033203125
,45.8771422,0.8984375
,45.9157751,0.8935546875
,45.9471413,0.8837890625
,45.947589,0.87890625
,45.958719,0.869140625
,45.9760771,0.8642578125
,46.0250629,0.8544921875
,46.0253661,0.8447265625
,46.0565582,0.830078125
,46.0570079,0.8251953125
,46.0927707,0.8154296875
,46.0989097,0.810546875
,46.1358667,0.80078125
,46.1383618,0.791015625
,46.1740026,0.7861328125
,46.1954673,0.78125
,46.1957602,0.7763671875
,46.2431294,0.771484375
,46.2435742,0.7666015625
,46.2747019,0.7666015625
,46.2794682,0.76171875
,46.3198659,0.76171875
,46.3203114,0.76171875
,46.3570937,0.7763671875
,46.3603328,0.791015625
,46.3763816,0.8056640625
,46.4135402,0.8203125
,46.4159652,0.83984375
,46.4607668,0.849609375
,46.4610987,0.8642578125
,46.4815969,0.8740234375
,46.5006336,0.87890625
,46.5369859,0.8837890625
,46.5374204,0.87890625
,46.5852977,0.8740234375
,46.5857722,0.869140625
,46.5982398,0.8642578125
,46.6344399,0.8544921875
,46.662967,0.849609375
,46.6638046,0.83984375
,46.6801466,0.8349609375
,46.7153725,0.8251953125
,46.7402727,0.8154296875
,46.7405819,0.810546875
,46.7581325,0.80078125
,46.8030036,0.7958984375
,46.8034552,0.791015625
,46.8186162,0.7861328125
,46.8523931,0.78125
,46.8732642,0.7763671875
,46.8813959,0.771484375
,46.9180691,0.7666015625
,46.9186168,0.76171875
,46.9373151,0.76171875
,46.9745029,0.76171875
,47.0043083,0.76171875
,47.0045964,0.771484375
,47.0206482,0.78125
,47.0561866,0.80078125
,47.0607726,0.8154296875
,47.0963822,0.830078125
,47.0966723,0.83984375
,47.1157066,0.8544921875
,47.1584094,0.8642578125
,47.178926,0.8740234375
,47.1792977,0.87890625
,47.2200298,0.87890625
,47.2203825,0.87890625
,47.2417436,0.8740234375
,47.2563274,0.869140625
,47.2783012,0.8642578125
,47.3145834,0.859375
,47.3440491,0.8544921875
,47.3444213,0.8447265625
,47.360711,0.83984375
,47.3951159,0.8349609375
,47.4007247,0.8251953125
,47.4376293,0.8203125
,47.4379657,0.810546875
,47.4724947,0.8056640625
,47.4931611,0.80078125
,47.5007321,0.7958984375
,47.5195871,0.791015625
,47.5635457,0.7861328125
,47.5639588,0.78125
,47.5823425,0.7763671875
,47.6020812,0.771484375
,47.6409381,0.7666015625
,47.6413704,0.7666015625
,47.6574072,0.7666015625
,47.6938986,0.7763671875
,47.7010845,0.7861328125
,47.7195084,0.8056640625
,47.7539361,0.8203125
,47.7761998,0.8349609375
,47.7831509,0.849609375
,47.8020478,0.859375
,47.8185271,0.869140625
,47.852362,0.87890625
,47.8727718,0.888671875
,47.8807145,0.8935546875
,47.9204827,0.888671875
,47.9208419,0.8837890625
,47.9557817,0.87890625
,47.9768149,0.8740234375
,47.9818465,0.8642578125
,47.9987103,0.859375
,48.0437855,0.8544921875
,48.0441822,0.8447265625
,48.0595364,0.83984375
,48.0961295,0.830078125
,48.100995,0.8203125
,48.1347379,0.810546875
,48.1570984,0.8056640625
,48.1574087,0.7958984375
,48.1993133,0.791015625
,48.1996039,0.7861328125
,48.2295158,0.78125
,48.2390808,0.7763671875
,48.2754204,0.771484375
,48.2962328,0.7666015625
,48.3010716,0.7666015625
,48.3375532,0.76171875
,48.3430271,0.7666015625
,48.3622806,0.771484375
,48.3796895,0.78125
,48.4123145,0.80078125
,48.4338093,0.8203125
,48.4419945,0.8349609375
,48.4792437,0.849609375
,48.4814085,0.8642578125
,48.51913,0.8740234375
,48.5243788,0.8837890625
,48.5399437,0.888671875
,48.5752797,0.8935546875
,48.580606,0.8935546875
,48.6159249,0.888671875
,48.6503516,0.8837890625
,48.6507484,0.87890625
,48.6622876,0.8740234375
,48.7127404,0.8642578125
,48.7136954,0.859375
,48.7220112,0.849609375
,48.7408322,0.8447265625
,48.7876682,0.8349609375
,48.7882952,0.830078125
,48.8013578,0.8203125
,48.8227732,0.8154296875
,48.8648866,0.810546875
,48.8653555,0.80078125
,48.8792855,0.7958984375
,48.9159123,0.7958984375
,48.9183231,0.791015625
,48.9537634,0.7861328125
,48.9746135,0.78125
,48.9815628,0.7763671875
,49.0189925,0.7763671875
,49.023828,0.7763671875
,49.0440472,0.78125
,49.0620971,0.791015625
,49.0812559,0.810546875
,49.1173162,0.8251953125
,49.1221354,0.83984375
,49.1624343,0.8544921875
,49.1627486,0.869140625
,49.1999402,0.87890625
,49.2028322,0.888671875
,49.2550569,0.8935546875
,49.2554459,0.8984375
,49.2643168,0.8984375
,49.2811646,0.8935546875
,49.3177101,0.888671875
,49.3222405,0.8837890625
,49.3636075,0.87890625
,49.3638953,0.869140625
,49.4088314,0.8642578125
,49.4092687,0.8544921875
,49.4235075,0.8447265625
,49.4573134,0.83984375
,49.4598237,0.830078125
,49.4953165,0.8251953125
,49.5159374,0.8154296875
,49.5239531,0.810546875
,49.543166,0.8056640625
,49.578327,0.80078125
,49.5991669,0.791015625
,49.6044297,0.7861328125
,49.6207309,0.78125
,49.6558361,0.78125
,49.6767622,0.7763671875
,49.6815807,0.771484375
,49.718462,0.771484375
,49.7250565,0.7763671875
,49.7429606,0.791015625
,49.7811458,0.80078125
,49.7815814,0.8154296875
,49.8027911,0.8349609375
,49.8221415,0.8447265625
,49.8606451,0.859375
,49.861109,0.869140625
,49.8981279,0.8740234375
,49.9195792,0.87890625
,49.9246033,0.87890625
,49.9688042,0.87890625
,49.9690985,0.87890625
,49.9873634,0.8740234375
,50.0031709,0.869140625
,50.0460035,0.8642578125
,50.0464478,0.859375
,50.0633331,0.8544921875
,50.108312,0.849609375
,50.1086066,0.83984375
,50.1246982,0.8349609375
,50.1727974,0.8251953125
,50.1732449,0.8203125
,50.183219,0.8154296875
,50.2335999,0.810546875
,50.2340326,0.8056640625
,50.2424587,0.80078125
,50.2793782,0.7958984375
,50.2840219,0.791015625
,50.3202464,0.7861328125
,50.3254839,0.78125
,50.3409142,0.7763671875
,50.3763938,0.7763671875
,50.398126,0.7763671875
,50.4028273,0.78125
,50.4395429,0.791015625
,50.444198,0.8056640625
,50.4813734,0.8203125
,50.4869661,0.8349609375
,50.5066535,0.849609375
,50.5222245,0.859375
,50.5607289,0.869140625
,50.5633168,0.87890625
,50.5831295,0.8837890625
,50.6169862,0.888671875
,50.637044,0.8837890625
,50.6449252,0.8837890625
,50.6851283,0.87890625
,50.6855896,0.8740234375
,50.7074989,0.8642578125
,50.7231089,0.8544921875
,50.7419619,0.8544921875
,50.7767832,0.849609375
,50.7962079,0.83984375
,50.8043588,0.8349609375
,50.8402521,0.830078125
,50.8446028,0.8203125
,50.881427,0.8154296875
,50.8871657,0.810546875
,50.9030663,0.8056640625
,50.9512384,0.80078125
,50.951562,0.7958984375
,50.9650965,0.791015625
,51.0148365,0.791015625
,51.0153024,0.7861328125
,51.0252204,0.78125
,51.0599232,0.7763671875
,51.0813344,0.7763671875
,51.081793,0.78125
,51.1179296,0.7861328125
,51.124096,0.80078125
,51.14407,0.8203125
,51.1861522,0.8349609375
,51.1866013,0.849609375
,51.2161863,0.859375
,51.2259,0.8740234375
,51.2438715,0.87890625
,51.278105,0.888671875
,51.2841238,0.8935546875
,51.3187054,0.8935546875
,51.3240714,0.8935546875
,51.358456,0.888671875
,51.379569,0.8837890625
,51.3875886,0.87890625
,51.4020466,0.8740234375
,51.438542,0.869140625
,51.4413228,0.8642578125
,51.4837707,0.8544921875
,51.4842214,0.849609375
,51.5044669,0.83984375
,51.539794,0.8349609375
,51.5454803,0.8251953125
,51.5828992,0.8203125
,51.5881652,0.8154296875
,51.6078251,0.8056640625
,51.6232768,0.8056640625
,51.6728216,0.80078125
,51.6731247,0.7958984375
,51.7031294,0.791015625
,51.7035988,0.7861328125
,51.7488463,0.7861328125
,51.7494544,0.78125
,51.7697164,0.78125
,51.7867034,0.791015625
,51.8040402,0.80078125
,51.8405644,0.8203125
,51.871901,0.8349609375
,51.8721943,0.849609375
,51.8843104,0.859375
,51.9200178,0.869140625
,51.9410112,0.87890625
,51.9453662,0.888671875
,51.9831585,0.8935546875
,51.9836034,0.8984375
,52.0203839,0.8935546875
,52.0254432,0.8935546875
,52.0619125,0.8837890625
,52.0641321,0.87890625
,52.1003056,0.8740234375
,52.1214072,0.869140625
,52.1269163,0.859375
,52.1434517,0.8544921875
,52.1788512,0.849609375
,52.1838263,0.83984375
,52.2189795,0.8349609375
,52.2484084,0.8251953125
,52.2487726,0.8203125
,52.2668659,0.8154296875
,52.3019539,0.8056640625
,52.308151,0.80078125
,52.327996,0.7958984375
,52.3455025,0.791015625
,52.3823327,0.7861328125
,52.3869973,0.7861328125
,52.4366231,0.78125
,52.4370829,0.7763671875
,52.447606,0.7763671875
,52.4830398,0.78125
,52.4892094,0.791015625
,52.5077525,0.810546875
,52.5241795,0.8251953125
,52.5612088,0.83984375
,52.5796694,0.8544921875
,52.5838982,0.8642578125
,52.6372525,0.8740234375
,52.6378117,0.8837890625
,52.6478073,0.888671875
,52.6845416,0.8935546875
,52.6848398,0.8935546875
,52.721761,0.888671875
,52.7249508,0.8837890625
,52.7611113,0.87890625
,52.7685003,0.8740234375
,52.7872397,0.869140625
,52.8215255,0.859375
,52.8426937,0.8544921875
,52.8498138,0.8447265625
,52.8648638,0.8349609375
,52.8842082,0.830078125
,52.9209612,0.8251953125
,52.9256024,0.8154296875
,52.9621669,0.810546875
,52.967595,0.8056640625
,53.0040392,0.80078125
,53.0081116,0.7958984375
,53.0302059,0.791015625
,53.0480847,0.7861328125
,53.0825844,0.78125
,53.1025808,0.7763671875
,53.1057729,0.7763671875
,53.1427799,0.7763671875
,53.1481601,0.78125
,53.1853774,0.791015625
,53.1857694,0.8056640625
,53.2214886,0.8203125
,53.2417056,0.8349609375
,53.2448777,0.849609375
,53.2800143,0.859375
,53.3007663,0.869140625
,53.306225,0.87890625
,53.3422113,0.87890625
,53.361897,0.8837890625
,53.367143,0.8837890625
,53.4048645,0.87890625
,53.4256979,0.8740234375
,53.426155,0.869140625
,53.463816,0.869140625
,53.4643141,0.859375
,53.5143426,0.859375
,53.5146257,0.849609375
,53.535287,0.8447265625
,53.5489291,0.83984375
,53.5842501,0.830078125
,53.5846023,0.8251953125
,53.6198568,0.8203125
,53.6416757,0.8154296875
,53.6465712,0.810546875
,53.6882021,0.8056640625
,53.7177305,0.80078125
,53.7180964,0.80078125
,53.7293274,0.7958984375
,53.7804445,0.791015625
,53.7815247,0.7861328125
,53.7901525,0.7861328125
,53.8058464,0.7763671875
,53.8410385,0.78125
,53.8622697,0.791015625
,53.8700698,0.8056640625
,53.8893474,0.8203125
,53.9339159,0.8349609375
,53.9344984,0.849609375
,53.9509206,0.8642578125
,53.967162,0.869140625
,53.9877464,0.87890625
,54.0224424,0.8837890625
,54.0269121,0.8935546875
,54.0733992,0.8935546875
,54.0737073,0.888671875
,54.0906574,0.8837890625
,54.1265995,0.8837890625
,54.1312314,0.8740234375
,54.1489633,0.869140625
,54.1679699,0.8642578125
,54.2128199,0.859375
,54.2132553,0.8544921875
,54.2288325,0.8447265625
,54.264064,0.8349609375
,54.2704451,0.830078125
,54.2904437,0.8203125
,54.3073266,0.8154296875
,54.3278887,0.810546875
,54.3471708,0.810546875
,54.382774,0.8056640625
,54.3880871,0.80078125
,54.422525,0.7958984375
,54.4430004,0.791015625
,54.4499603,0.7861328125
,54.4710141,0.7861328125
,54.4867034,0.78125
,54.5245842,0.7861328125
,54.5252632,0.791015625
,54.5725861,0.8056640625
,54.5730341,0.8203125
,54.5931837,0.83984375
,54.6097117,0.849609375
,54.6505551,0.8642578125
,54.6508505,0.8740234375
,54.6968333,0.8837890625
,54.6971245,0.888671875
,54.7093547,0.8935546875
,54.759399,0.8984375
,54.7597422,0.8935546875
,54.7691127,0.8935546875
,54.8221583,0.888671875
,54.8233547,0.8837890625
,54.8282424,0.87890625
,54.8642859,0.8740234375
,54.8851677,0.869140625
,54.8897086,0.8642578125
,54.90829,0.8544921875
,54.9601845,0.849609375
,54.9604965,0.83984375
,54.9722854,0.8349609375
,54.990908,0.830078125
,55.0318338,0.8203125
,55.0322686,0.8154296875
,55.0475709,0.810546875
,55.0824487,0.810546875
,55.1124426,0.8056640625
,55.1127444,0.80078125
,55.1295397,0.7958984375
,55.1741066,0.7958984375
,55.1745539,0.791015625
,55.2031102,0.791015625
,55.2078275,0.7958984375
,55.242484,0.810546875
,55.248074,0.8203125
,55.2858233,0.83984375
,55.289821,0.8544921875
,55.3113217,0.869140625
,55.3515448,0.87890625
,55.3519934,0.8837890625
,55.3893215,0.8935546875
,55.3897748,0.8984375
,55.4258735,0.9033203125
,55.4458575,0.8984375
,55.4482557,0.8984375
,55.4897519,0.888671875
,55.4903723,0.8837890625
,55.5110058,0.87890625
,55.5512654,0.8740234375
,55.5517154,0.8642578125
,55.5719268,0.859375
,55.588116,0.849609375
,55.6238961,0.83984375
,55.6538876,0.8349609375
,55.6543377,0.830078125
,55.6694187,0.8203125
,55.7035402,0.8154296875
,55.7255557,0.810546875
,55.7325092,0.80078125
,55.7828045,0.7958984375
,55.7832421,0.791015625
,55.7882486,0.791015625
,55.8294753,0.7861328125
,55.8301625,0.78125
,55.8510114,0.7763671875
,55.8718665,0.7763671875
,55.9085286,0.7861328125
,55.9131029,0.7958984375
,55.9297662,0.810546875
,55.9651939,0.8251953125
,55.9695455,0.8447265625
,56.0177429,0.8544921875
,56.0180357,0.869140625
,56.0296537,0.87890625
,56.0508919,0.8837890625
,56.0862646,0.888671875
,56.0916237,0.8935546875
,56.1133289,0.8935546875
,56.1332851,0.8837890625
,56.149766,0.87890625
,56.1844235,0.8740234375
,56.2053745,0.8740234375
,56.2110697,0.869140625
,56.2462585,0.8642578125
,56.2519043,0.859375
,56.299849,0.849609375
,56.300307,0.8447265625
,56.3123315,0.8349609375
,56.3302764,0.830078125
,56.3657942,0.8203125
,56.3707007,0.8154296875
,56.4122681,0.810546875
,56.412711,0.8056640625
,56.4309139,0.80078125
,56.4649012,0.7958984375
,56.4862292,0.791015625
,56.48671,0.791015625
,56.5219179,0.7861328125
,56.5433415,0.7861328125
,56.5516803,0.7861328125
,56.6017691,0.791015625
,56.6022277,0.8056640625
,56.6112162,0.8203125
,56.6476216,0.8349609375
,56.668512,0.849609375
,56.6691374,0.859375
,56.7111028,0.8740234375
,56.7115657,0.87890625
,56.7315059,0.888671875
,56.7758339,0.8935546875
,56.7763018,0.8935546875
,56.7928302,0.888671875
,56.8376895,0.8837890625
,56.8382916,0.87890625
,56.8502812,0.8740234375
,56.8989475,0.869140625
,56.8993793,0.8642578125
,56.9117501,0.8544921875
,56.9483654,0.849609375
,56.9538031,0.83984375
,56.9728545,0.8349609375
,57.0091351,0.830078125
,57.0409911,0.8203125
,57.0414648,0.8154296875
,57.0490802,0.8056640625
,57.0846937,0.8056640625
,57.1051682,0.80078125
,57.1124674,0.7958984375
,57.1479207,0.791015625
,57.1532069,0.791015625
,57.1723114,0.7861328125
,57.2054376,0.78125
,57.2273802,0.78125
,57.2322039,0.78125
,57.252298,0.791015625
,57.2717761,0.8056640625
,57.3058533,0.8203125
,57.3267848,0.8349609375
,57.3339358,0.849609375
,57.3545862,0.8642578125
,57.3969843,0.8740234375
,57.3976517,0.8837890625
,57.4099059,0.8935546875
,57.4567212,0.8984375
,57.4570532,0.8984375
,57.4721439,0.8984375
,57.4926715,0.8935546875
,57.5270461,0.888671875
,57.5473832,0.87890625
,57.5558403,0.8740234375
,57.5719749,0.869140625
,57.5910178,0.859375
,57.6260869,0.8544921875
,57.6471505,0.8447265625
,57.651702,0.83984375
,57.6931355,0.830078125
,57.6934855,0.8203125
,57.7250279,0.8154296875
,57.7344498,0.810546875
,57.7697092,0.8056640625
,57.7701626,0.80078125
,57.8168008,0.7958984375
,57.817095,0.791015625
,57.8323281,0.7861328125
,57.8792791,0.78125
,57.8801137,0.78125
,57.8946282,0.78125
,57.9323134,0.78125
,57.9346533,0.791015625
,57.9509334,0.8056640625
,57.992369,0.8251953125
,57.9928185,0.8349609375
,58.038688,0.8544921875
,58.03914,0.8642578125
,58.0539174,0.87890625
,58.0914979,0.888671875
,58.0967658,0.8935546875
,58.1119796,0.8984375
,58.1328874,0.9033203125
,58.1520789,0.9033203125
,58.1933417,0.9033203125
,58.1937346,0.8984375
,58.2147041,0.8935546875
,58.2507742,0.8837890625
,58.2534671,0.87890625
,58.2878262,0.869140625
,58.3086329,0.8642578125
,58.3122738,0.8544921875
,58.3518162,0.849609375
,58.3522855,0.83984375
,58.3982194,0.8349609375
,58.3986007,0.8251953125
,58.4145129,0.8203125
,58.4603445,0.8154296875
,58.4608027,0.810546875
,58.4776546,0.80078125
,58.4932936,0.791015625
,58.5374448,0.791015625
,58.5379118,0.7861328125
,58.554724,0.7861328125
,58.5913097,0.7861328125
,58.5940812,0.791015625
,58.6313506,0.80078125
,58.6334403,0.8154296875
,58.6791719,0.8349609375
,58.679554,0.849609375
,58.7006109,0.8642578125
,58.7132546,0.8740234375
,58.7488152,0.888671875
,58.7543575,0.8935546875
,58.8030194,0.8984375
,58.8034622,0.9033203125
,58.8168457,0.8984375
,58.8649689,0.8984375
,58.8653495,0.888671875
,58.872738,0.8837890625
,58.9116951,0.87890625
,58.912394,0.869140625
,58.9494824,0.8642578125
,58.9550197,0.8544921875
,58.991399,0.8447265625
,58.9961727,0.83984375
,59.0120101,0.830078125
,59.0511461,0.8203125
,59.08212,0.8154296875
,59.0824091,0.810546875
,59.0938366,0.8056640625
,59.1295629,0.80078125
,59.1341727,0.7958984375
,59.1687348,0.791015625
,59.187723,0.7861328125
,59.1915163,0.78125
,59.2274715,0.78125
,59.2330828,0.78125
,59.2682397,0.78125
,59.2891839,0.791015625
,59.2941339,0.80078125
,59.3454469,0.8154296875
,59.3459073,0.830078125
,59.3559288,0.8447265625
,59.393018,0.8544921875
,59.3934641,0.8642578125
,59.4138526,0.8740234375
,59.4533223,0.8837890625
,59.4840248,0.8837890625
,59.4843282,0.888671875
,59.4954934,0.8837890625
,59.5314668,0.87890625
,59.5516376,0.8740234375
,59.5563279,0.869140625
,59.590769,0.859375
,59.591197,0.8544921875
,59.6381469,0.849609375
,59.6384357,0.8447265625
,59.6591542,0.8349609375
,59.6751984,0.830078125
,59.7111385,0.8203125
,59.716893,0.8154296875
,59.7313947,0.810546875
,59.7772287,0.8056640625
,59.777553,0.80078125
,59.7994176,0.7958984375
,59.8164399,0.791015625
,59.8349303,0.7861328125
,59.8727304,0.78125
,59.903276,0.7763671875
,59.9037238,0.7763671875
,59.9119704,0.7763671875
,59.9330682,0.78125
,59.9684745,0.7958984375
,59.988906,0.810546875
,59.993072,0.8251953125
,60.0296755,0.83984375
,60.0502722,0.8544921875
,60.0561194,0.8642578125
,60.1071169,0.8740234375
,60.1075647,0.8837890625
,60.1171454,0.8935546875
,60.1336733,0.8935546875
,60.1682046,0.8935546875
,60.1890054,0.8935546875
,60.1955683,0.888671875
,60.2331221,0.8837890625
,60.2379583,0.8740234375
,60.2787755,0.869140625
,60.279211,0.859375
,60.2943145,0.8544921875
,60.3295811,0.8447265625
,60.3498956,0.83984375
,60.3570954,0.830078125
,60.3923244,0.8251953125
,60.3979805,0.8203125
,60.4492051,0.810546875
,60.4495728,0.810546875
,60.4575587,0.80078125
,60.4745155,0.80078125
,60.5096708,0.7958984375
,60.5144715,0.791015625
,60.5520352,0.7861328125
,60.5565187,0.78125
,60.6078615,0.78125
,60.6081897,0.78125
,60.618466,0.791015625
,60.6349642,0.8056640625
,60.6558682,0.8203125
,60.6993053,0.8349609375
,60.6999642,0.8544921875
,60.7168594,0.8642578125
,60.752412,0.87890625
,60.7570984,0.888671875
,60.7781158,0.8935546875
,60.8256826,0.8984375
,60.8259686,0.8984375
,60.8383108,0.8935546875
,60.8565846,0.888671875
,60.893605,0.888671875
,60.8940534,0.8837890625
,60.9298711,0.8740234375
,60.9499376,0.869140625
,60.9583934,0.8642578125
,60.9945901,0.8544921875
,60.9991741,0.8447265625
,61.0152533,0.8349609375
,61.0504515,0.830078125
,61.0560584,0.8203125
,61.0909509,0.8154296875
,61.1225264,0.810546875
,61.1229515,0.8056640625
,61.1379402,0.80078125
,61.1731414,0.791015625
,61.1785542,0.7861328125
,61.1948574,0.78125
,61.2301583,0.78125
,61.25132,0.78125
,61.2562028,0.7763671875
,61.3085594,0.78125
,61.3090351,0.791015625
,61.3169914,0.8056640625
,61.3542027,0.8203125
,61.3544927,0.8349609375
,61.3907474,0.849609375
,61.3967192,0.8642578125
,61.431439,0.8740234375
,61.4361649,0.8837890625
,61.4816064,0.888671875
,61.4820655,0.8935546875
,61.5129499,0.8935546875
,61.5200559,0.888671875
,61.5364204,0.8837890625
,61.5740553,0.87890625
,61.5776455,0.869140625
,61.5977728,0.8642578125
,61.636969,0.859375
,61.6374189,0.849609375
,61.6725014,0.8447265625
,61.7072306,0.8349609375
,61.7075325,0.8251953125
,61.7219713,0.8203125
,61.7401911,0.810546875
,61.7558449,0.8056640625
,61.7913744,0.80078125
,61.8119869,0.7958984375
,61.8201128,0.791015625
,61.8396069,0.7861328125
,61.8592541,0.78125
,61.9089364,0.7763671875
,61.9093751,0.771484375
,61.9154414,0.771484375
,61.9559587,0.771484375
,61.9566509,0.7763671875
,61.9773582,0.791015625
,62.017751000000004,0.8056640625
,62.0180479,0.8203125
,62.0399675,0.8349609375
,62.0605278,0.849609375
,62.0804091,0.859375
,62.097723900000005,0.869140625
,62.1341803,0.8740234375
,62.139597300000005,0.87890625
,62.1581731,0.8837890625
,62.20503840000001,0.87890625
,62.205337799999995,0.8740234375
,62.220696200000006,0.869140625
,62.266022899999996,0.8642578125
,62.266415800000004,0.859375
,62.276650700000005,0.8544921875
,62.3287512,0.849609375
,62.3290837,0.8447265625
,62.3401111,0.8349609375
,62.38909889999999,0.830078125
,62.3894421,0.8251953125
,62.399054500000005,0.8154296875
,62.437715100000005,0.810546875
,62.438113200000004,0.8056640625
,62.4831078,0.80078125
,62.48339369999999,0.791015625
,62.512965699999995,0.791015625
,62.518247,0.7861328125
,62.552825,0.78125
,62.55794040000001,0.7763671875
,62.6100282,0.7763671875
,62.610481899999996,0.771484375
,62.640421200000006,0.771484375
,62.6408369,0.7763671875
,62.6570268,0.791015625
,62.692803299999994,0.8056640625
,62.713981000000004,0.8203125
,62.718774800000006,0.8349609375
,62.7547603,0.8447265625
,62.7592971,0.859375
,62.796853600000006,0.8642578125
,62.8021174,0.8740234375
,62.8166126,0.87890625
,62.851506,0.87890625
,62.8726856,0.87890625
,62.8781994,0.8740234375
,62.914685000000006,0.869140625
,62.919901499999995,0.8642578125
,62.9698588,0.859375
,62.9706834,0.849609375
,62.9760273,0.8447265625
,63.011341400000006,0.83984375
,63.0334268,0.830078125
,63.0383221,0.8251953125
,63.078745,0.8154296875
,63.079193700000005,0.810546875
,63.0987377,0.80078125
,63.13379380000001,0.7958984375
,63.1548269,0.791015625
,63.162587099999996,0.7861328125
,63.2032074,0.78125
,63.203657500000006,0.7763671875
,63.218232099999994,0.771484375
,63.2539965,0.771484375
,63.258836599999995,0.771484375
,63.3119736,0.7666015625
,63.3124246,0.7666015625
,63.3196454,0.7763671875
,63.357155500000005,0.7861328125
,63.3618915,0.8056640625
,63.379560600000005,0.8203125
,63.413688699999994,0.83984375
,63.4192542,0.849609375
,63.4567273,0.8642578125
,63.457417199999995,0.869140625
,63.5006767,0.87890625
,63.50112059999999,0.888671875
,63.531589499999995,0.8935546875
,63.539766099999994,0.888671875
,63.576320300000006,0.888671875
,63.5786076,0.8837890625
,63.6128703,0.87890625
,63.6338356,0.869140625
,63.639217900000006,0.8642578125
,63.6870419,0.859375
,63.6875029,0.8544921875
,63.701485500000004,0.8447265625
,63.723377600000006,0.83984375
,63.739693700000004,0.830078125
,63.7602457,0.8251953125
,63.810033399999995,0.8203125
,63.8103351,0.8154296875
,63.82108169999999,0.810546875
,63.839663599999994,0.8056640625
,63.877037900000005,0.80078125
,63.877357700000005,0.7958984375
,63.918174199999996,0.791015625
,63.918623100000005,0.78125
,63.9399947,0.78125
,63.959666999999996,0.78125
,63.9958642,0.78125
,64.0160564,0.7861328125
,64.0211964,0.7958984375
,64.0581871,0.810546875
,64.061071,0.8251953125
,64.0971896,0.83984375
,64.097502,0.8544921875
,64.1327475,0.8642578125
,64.1552647,0.8740234375
,64.1628398,0.8837890625
,64.1815113,0.8935546875
,64.2168445,0.8935546875
,64.2219931,0.8935546875
,64.2627903,0.8935546875
,64.2631146,0.8837890625
,64.2794209,0.87890625
,64.3160765,0.8740234375
,64.319027,0.869140625
,64.3528157,0.859375
,64.3745744,0.8544921875
,64.38149,0.8447265625
,64.419741,0.8349609375
,64.4242837,0.830078125
,64.4383541,0.8203125
,64.4734663,0.8154296875
,64.4946965,0.8056640625
,64.4999364,0.8056640625
,64.5379618,0.80078125
,64.5428355,0.791015625
,64.5777076,0.791015625
,64.5817837,0.78125
,64.615917,0.78125
,64.6367444,0.7763671875
,64.6399776,0.771484375
,64.6757851,0.771484375
,64.6810802,0.7763671875
,64.729908,0.7861328125
,64.7302283,0.80078125
,64.741259,0.8154296875
,64.7772721,0.8349609375
,64.7844079,0.8447265625
,64.8194363,0.859375
,64.8198748,0.8642578125
,64.8558387,0.8740234375
,64.8858425,0.8837890625
,64.8863118,0.888671875
,64.902038,0.8837890625
,64.9485468,0.8837890625
,64.9489123,0.87890625
,64.9812098,0.8740234375
,64.981535,0.8642578125
,64.9996395,0.859375
,65.0200412,0.8544921875
,65.0539102,0.8447265625
,65.0749447,0.83984375
,65.082844,0.8349609375
,65.1043662,0.8251953125
,65.1391274,0.8203125
,65.1429228,0.8154296875
,65.1609204,0.810546875
,65.1790407,0.8056640625
,65.2144773,0.80078125
,65.2443875,0.7958984375
,65.2448165,0.7958984375
,65.2625894,0.791015625
,65.3087172,0.7861328125
,65.3090563,0.7861328125
,65.3237098,0.7861328125
,65.34052,0.78125
,65.3762981,0.7861328125
,65.3820862,0.7958984375
,65.4002899,0.810546875
,65.4335075,0.8251953125
,65.453746,0.83984375
,65.4633509,0.8544921875
,65.4982559,0.8642578125
,65.5045175,0.869140625
,65.5429773,0.8740234375
,65.5434288,0.8837890625
,65.5619028,0.888671875
,65.605685,0.888671875
,65.6061326,0.8837890625
,65.6214577,0.87890625
,65.6600028,0.8740234375
,65.6781452,0.869140625
,65.6831965,0.8642578125
,65.7295094,0.859375
,65.7299607,0.849609375
,65.7619381,0.8447265625
,65.7622272,0.83984375
,65.7825477,0.830078125
,65.8024115,0.8251953125
,65.8380809,0.8203125
,65.8583784,0.8154296875
,65.8635826,0.810546875
,65.9155536,0.8056640625
,65.9158529,0.80078125
,65.9226596,0.7958984375
,65.9419224,0.791015625
,65.9778863,0.791015625
,65.9829654,0.7861328125
,66.019754,0.78125
,66.0257215,0.78125
,66.069148,0.78125
,66.0694834,0.791015625
,66.0819405,0.8056640625
,66.1162653,0.8203125
,66.148385,0.83984375
,66.1486934,0.849609375
,66.1655807,0.8642578125
,66.1848226,0.8740234375
,66.2207886,0.87890625
,66.2251762,0.888671875
,66.2445511,0.8935546875
,66.2663471,0.888671875
,66.2812874,0.8837890625
,66.3207254,0.8837890625
,66.3396111,0.87890625
,66.3420818,0.87890625
,66.3790573,0.8740234375
,66.4149768,0.869140625
,66.4152978,0.8642578125
,66.4268629,0.8544921875
,66.4429343,0.849609375
,66.4927158,0.8447265625
,66.4931494,0.8349609375
,66.5046355,0.830078125
,66.5542425,0.8251953125
,66.5545286,0.8154296875
,66.5643892,0.810546875
,66.5989406,0.8056640625
,66.6195105,0.80078125
,66.6200751,0.7958984375
,66.6641605,0.7958984375
,66.6645563,0.791015625
,66.6945646,0.7861328125
,66.7046922,0.7861328125
,66.7539849,0.7861328125
,66.7542921,0.791015625
,66.7648073,0.80078125
,66.7819717,0.8154296875
,66.8330692,0.830078125
,66.8335185,0.8447265625
,66.8430674,0.859375
,66.8782298,0.8740234375
,66.8829221,0.87890625
,66.903775,0.888671875
,66.9394773,0.8935546875
,66.9604016,0.8935546875
,66.9636628,0.8935546875
,66.9830937,0.888671875
,67.0328369,0.8837890625
,67.0336145,0.8740234375
,67.0433624,0.869140625
,67.0803873,0.8642578125
,67.0856251,0.8544921875
,67.1257904,0.849609375
,67.1262245,0.83984375
,67.1451904,0.8349609375
,67.1868883,0.830078125
,67.1871771,0.8203125
,67.2079565,0.8154296875
,67.2238461,0.8056640625
,67.2664362,0.80078125
,67.2667958,0.7958984375
,67.2848848,0.791015625
,67.3287452,0.7861328125
,67.3292186,0.7861328125
,67.3577102,0.78125
,67.3622273,0.7763671875
,67.4050687,0.7763671875
,67.4053584,0.7763671875
,67.4262018,0.78125
,67.4477007,0.791015625
,67.4669166,0.8056640625
,67.5027417,0.8203125
,67.5073679,0.8349609375
,67.5239703,0.849609375
,67.5597949,0.859375
,67.564388,0.869140625
,67.5857571,0.87890625
,67.6051625,0.8837890625
,67.6399619,0.888671875
,67.6615915,0.888671875
,67.6667816,0.8837890625
,67.68326,0.87890625
,67.7180283,0.8740234375
,67.738318,0.869140625
,67.7440969,0.859375
,67.7807739,0.8544921875
,67.7859367,0.8447265625
,67.8224953,0.83984375
,67.8270851,0.830078125
,67.8623485,0.8251953125
,67.8676021,0.8154296875
,67.9034885,0.810546875
,67.9039287,0.80078125
,67.9404938,0.80078125
,67.9458491,0.791015625
,67.9820822,0.791015625
,67.987032,0.7861328125
,68.0285126,0.78125
,68.0288209,0.7763671875
,68.0659589,0.7763671875
,68.0668347,0.771484375
,68.0854036,0.771484375
,68.105052,0.7763671875
,68.1553468,0.7861328125
,68.155732,0.80078125
,68.166377,0.8154296875
,68.2168939,0.8349609375
,68.2172727,0.8447265625
,68.229063,0.8544921875
,68.2443165,0.8642578125
,68.2800545,0.8740234375
,68.2995444,0.87890625
,68.305475,0.8837890625
,68.3268438,0.8837890625
,68.372469,0.87890625
,68.3728617,0.8740234375
,68.3870454,0.869140625
,68.4038633,0.8642578125
,68.439063,0.859375
,68.4590906,0.8544921875
,68.4632677,0.8447265625
,68.5019382,0.83984375
,68.5068352,0.8349609375
,68.5437711,0.830078125
,68.5487061,0.8203125
,68.5897038,0.8154296875
,68.5899944,0.810546875
,68.6092301,0.80078125
,68.6252781,0.791015625
,68.6602727,0.791015625
,68.6804711,0.791015625
,68.6877772,0.7861328125
,68.728395,0.7861328125
,68.7287169,0.78125
,68.7481449,0.78125
,68.7828659,0.78125
,68.7895974,0.78125
,68.8055261,0.791015625
,68.854237,0.8056640625
,68.8546766,0.8203125
,68.8651946,0.8349609375
,68.9152278,0.8447265625
,68.9155293,0.859375
,68.9265482,0.869140625
,68.9633712,0.8740234375
,68.9939629,0.87890625
,68.9942633,0.8837890625
,69.0065245,0.87890625
,69.0587937,0.87890625
,69.0592534,0.8740234375
,69.0688767,0.8642578125
,69.0885647,0.859375
,69.1067257,0.8544921875
,69.1415844,0.849609375
,69.1627271,0.83984375
,69.163289,0.8349609375
,69.2138895,0.830078125
,69.2143404,0.8251953125
,69.2441005,0.8154296875
,69.2471397,0.810546875
,69.2928386,0.8056640625
,69.2931273,0.80078125
,69.3048479,0.7958984375
,69.3415936,0.791015625
,69.3469271,0.791015625
,69.3871805,0.7861328125
,69.387643,0.78125
,69.4068506,0.78125
,69.4429702,0.7763671875
,69.4475823,0.7763671875
,69.4825706,0.7763671875
,69.5028244,0.78125
,69.5097092,0.7958984375
,69.5267424,0.810546875
,69.5708204,0.8251953125
,69.5711067,0.83984375
,69.5882781,0.8544921875
,69.6329653,0.8642578125
,69.6333305,0.869140625
,69.648726,0.87890625
,69.6851047,0.8837890625
,69.7118263,0.8837890625
,69.7121877,0.8837890625
,69.7277517,0.87890625
,69.7629023,0.8740234375
,69.7680218,0.869140625
,69.8042417,0.8642578125
,69.8228321,0.8544921875
,69.8272316,0.849609375
,69.8719721,0.83984375
,69.872426,0.8349609375
,69.8922353,0.830078125
,69.9077615,0.8203125
,69.9469551,0.8154296875
,69.9472449,0.810546875
,69.9949419,0.80078125
,69.9953959,0.7958984375
,70.0098656,0.791015625
,70.0267846,0.7861328125
,70.0455299,0.7861328125
,70.0825251,0.78125
,70.0921914,0.7763671875
,70.1074374,0.771484375
,70.1431795,0.771484375
,70.1489538,0.7666015625
,70.194647,0.771484375
,70.1950788,0.78125
,70.2097787,0.7958984375
,70.2460599,0.810546875
,70.2465396,0.8251953125
,70.2842205,0.83984375
,70.2896759,0.849609375
,70.3092855,0.8642578125
,70.3494291,0.869140625
,70.3497235,0.87890625
,70.369819,0.8837890625
,70.3906342,0.87890625
,70.4294952,0.87890625
,70.4298569,0.8740234375
,70.449986,0.869140625
,70.4845724,0.8642578125
,70.4875211,0.859375
,70.525072,0.8544921875
,70.5284892,0.8447265625
,70.5643874,0.83984375
,70.5715152,0.830078125
,70.5883933,0.8203125
,70.6325419,0.8154296875
,70.6329968,0.810546875
,70.6477887,0.8056640625
,70.6948,0.80078125
,70.6952446,0.7958984375
,70.7252622,0.791015625
,70.7305987,0.7861328125
,70.765018,0.78125
,70.7653033,0.7763671875
,70.7882283,0.7763671875
,70.8230389,0.771484375
,70.8273484,0.771484375
,70.863653,0.771484375
,70.8848139,0.78125
,70.8904007,0.791015625
,70.9405313,0.810546875
,70.9410072,0.8251953125
,70.9512368,0.8349609375
,70.9665475,0.8447265625
,71.0022566,0.859375
,71.0217793,0.869140625
,71.0287995,0.8740234375
,71.0641586,0.8837890625
,71.068573,0.8837890625
,71.1051053,0.8837890625
,71.1252088,0.87890625
,71.131047,0.8740234375
,71.1481489,0.8642578125
,71.1898731,0.8642578125
,71.1903197,0.859375
,71.2099071,0.849609375
,71.2469885,0.8447265625
,71.2476899,0.8349609375
,71.2842214,0.830078125
,71.305251,0.8251953125
,71.30819,0.8154296875
,71.3601155,0.810546875
,71.3605931,0.8056640625
,71.3692598,0.80078125
,71.405185,0.80078125
,71.4099272,0.7958984375
,71.4461221,0.791015625
,71.450878,0.7861328125
,71.4870006,0.7861328125
,71.487445,0.78125
,71.5224,0.78125
,71.5430097,0.78125
,71.5490817,0.791015625
,71.5845066,0.7958984375
,71.5907616,0.8154296875
,71.6432603,0.830078125
,71.6437149,0.8447265625
,71.6508745,0.8544921875
,71.6859689,0.8642578125
,71.6934133,0.8740234375
,71.708762,0.8740234375
,71.7301168,0.8837890625
,71.7663098,0.8837890625
,71.7707115,0.8837890625
,71.79152,0.87890625
,71.8263886,0.8740234375
,71.8313607,0.869140625
,71.8687403,0.8642578125
,71.8691986,0.859375
,71.9029219,0.8544921875
,71.9233928,0.849609375
,71.9307715,0.8447265625
,71.950094,0.8349609375
,71.9859002,0.830078125
,72.0161675,0.8251953125
,72.0166457,0.8154296875
,72.0334221,0.810546875
,72.0487709,0.8056640625
,72.0709527,0.80078125
,72.1086706,0.80078125
,72.1096919,0.7958984375
,72.1475462,0.791015625
,72.1493851,0.7861328125
,72.1867179,0.7861328125
,72.2160911,0.78125
,72.2163981,0.78125
,72.22854,0.7861328125
,72.2649924,0.7958984375
,72.2842114,0.810546875
,72.2925311,0.8251953125
,72.3125849,0.83984375
,72.3574184,0.8544921875
,72.3577116,0.8642578125
,72.3711234,0.8740234375
,72.3890768,0.87890625
,72.4225351,0.888671875
,72.4445678,0.888671875
,72.4516328,0.888671875
,72.4702935,0.8837890625
,72.5115058,0.8837890625
,72.5118575,0.87890625
,72.5304266,0.8740234375
,72.5701049,0.8642578125
,72.5752194,0.859375
,72.5889997,0.8544921875
,72.635211,0.849609375
,72.6356759,0.8447265625
,72.6500429,0.8349609375
,72.6838225,0.8251953125
,72.7058776,0.8203125
,72.713382,0.8154296875
,72.7600292,0.810546875
,72.7604214,0.8056640625
,72.7705082,0.80078125
,72.8059608,0.7958984375
,72.8117275,0.791015625
,72.8533009,0.791015625
,72.8536043,0.7861328125
,72.8737017,0.7861328125
,72.9156109,0.7861328125
,72.9160527,0.7861328125
,72.9322046,0.7958984375
,72.9652331,0.810546875
,72.9695513,0.8251953125
,73.0055852,0.83984375
,73.0269664,0.859375
,73.0312825,0.869140625
,73.0732746,0.87890625
,73.0737287,0.888671875
,73.1097127,0.8984375
,73.1104325,0.8984375
,73.1311712,0.9033203125
,73.1799482,0.9033203125
,73.1803982,0.8984375
,73.1899907,0.8935546875
,73.2250404,0.888671875
,73.2460169,0.87890625
,73.2534944,0.8740234375
,73.2881104,0.8642578125
,73.308941,0.8544921875
,73.3142818,0.849609375
,73.3310218,0.83984375
,73.3515479,0.830078125
,73.3973349,0.8251953125
,73.39772,0.8203125
,73.4182111,0.810546875
,73.4325863,0.8056640625
,73.4693836,0.80078125
,73.4897313,0.7958984375
,73.4901844,0.791015625
,73.5246269,0.7861328125
,73.5454482,0.78125
,73.5530823,0.78125
,73.5998449,0.78125
,73.6002878,0.78125
,73.6146744,0.7861328125
,73.6492872,0.7958984375
,73.6537185,0.810546875
,73.66923,0.8251953125
,73.70566,0.83984375
,73.7269812,0.8544921875
,73.73283,0.8642578125
,73.7530931,0.8740234375
,73.7883316,0.8837890625
,73.7932302,0.888671875
,73.8287571,0.8935546875
,73.863342,0.8935546875
,73.8636429,0.8935546875
,73.8730717,0.888671875
,73.8916095,0.8837890625
,73.9263229,0.8740234375
,73.948395,0.869140625
,73.9532441,0.8642578125
,74.0030128,0.8544921875
,74.0034633,0.8447265625
,74.0152505,0.8349609375
,74.0354357,0.8251953125
,74.0531435,0.8154296875
,74.0948447,0.8154296875
,74.0951318,0.810546875
,74.112495,0.8056640625
,74.1345866,0.80078125
,74.1721892,0.7958984375
,74.1728528,0.791015625
,74.2123285,0.7861328125
,74.2171271,0.78125
,74.2333388,0.78125
,74.2821811,0.7763671875
,74.2826448,0.7763671875
,74.2944277,0.7861328125
,74.3449897,0.7958984375
,74.3453528,0.810546875
,74.3548131,0.8251953125
,74.3908227,0.83984375
,74.3912534,0.8544921875
,74.4105806,0.8642578125
,74.452724,0.8740234375
,74.453087,0.8837890625
,74.4994598,0.888671875
,74.4998589,0.8935546875
,74.5161362,0.8935546875
,74.5529891,0.8935546875
,74.5557687,0.888671875
,74.5720874,0.8837890625
,74.6091458,0.87890625
,74.6115792,0.8740234375
,74.6492871,0.869140625
,74.6542124,0.859375
,74.6733058,0.8544921875
,74.709622,0.8447265625
,74.7151638,0.8349609375
,74.732961,0.830078125
,74.7673996,0.8203125
,74.7716461,0.8154296875
,74.806935,0.810546875
,74.8267991,0.8056640625
,74.8345092,0.80078125
,74.8727278,0.7958984375
,74.8732775,0.791015625
,74.910066,0.791015625
,74.9351579,0.7861328125
,74.9355698,0.78125
,74.9534598,0.78125
,74.9979452,0.7861328125
,74.9984797,0.7958984375
,75.0287062,0.810546875
,75.0364954,0.8251953125
,75.0558414,0.83984375
,75.1059038,0.8544921875
,75.1061918,0.8642578125
,75.1143822,0.8740234375
,75.1358404,0.8837890625
,75.1544952,0.888671875
,75.173674,0.8935546875
,75.214,0.8935546875
,75.2142453,0.888671875
,75.234548,0.8837890625
,75.2758618,0.87890625
,75.2765437,0.8740234375
,75.2976851,0.869140625
,75.3150941,0.8642578125
,75.3547639,0.859375
,75.3551736,0.849609375
,75.4014562,0.8447265625
,75.4017765,0.8349609375
,75.432096,0.830078125
,75.4347035,0.8203125
,75.4518179,0.8154296875
,75.4876574,0.810546875
,75.5082615,0.8056640625
,75.5133311,0.80078125
,75.5622595,0.7958984375
,75.5626678,0.791015625
,75.5744468,0.791015625
,75.6112551,0.78125
,75.6170327,0.78125
,75.6519016,0.7763671875
,75.656887,0.78125
,75.6751536,0.7861328125
,75.693882,0.80078125
,75.7277455,0.8154296875
,75.7492484,0.830078125
,75.7563474,0.8447265625
,75.7979499,0.859375
,75.79821,0.869140625
,75.8337395,0.87890625
,75.8378506,0.8837890625
,75.8534541,0.888671875
,75.8904978,0.8935546875
,75.9102739,0.888671875
,75.9150673,0.888671875
,75.951723,0.87890625
,75.9548412,0.87890625
,75.9911735,0.869140625
,76.0116536,0.8642578125
,76.0145401,0.859375
,76.0629453,0.849609375
,76.0633923,0.83984375
,76.073307,0.8349609375
,76.1107124,0.8251953125
,76.1385774,0.8203125
,76.139395,0.8154296875
,76.1564073,0.8056640625
,76.1914583,0.80078125
,76.2125977,0.7958984375
,76.2129511,0.791015625
,76.2513281,0.7861328125
,76.2560702,0.78125
,76.2765879,0.7763671875
,76.3248228,0.7763671875
,76.3251122,0.771484375
,76.3562011,0.7763671875
,76.356656,0.78125
,76.3788638,0.791015625
,76.396025,0.80078125
,76.4311994,0.8203125
,76.4358107,0.8349609375
,76.4830285,0.8544921875
,76.4834869,0.8642578125
,76.4969791,0.8740234375
,76.5173117,0.8837890625
,76.5556108,0.888671875
,76.5603344,0.8935546875
,76.5741026,0.8935546875
,76.6111827,0.8935546875
,76.6164815,0.8935546875
,76.6519505,0.888671875
,76.6567454,0.8837890625
,76.6999689,0.8740234375
,76.7003568,0.869140625
,76.7184786,0.859375
,76.7335784,0.8544921875
,76.7783598,0.8447265625
,76.778723,0.83984375
,76.7956261,0.8349609375
,76.8176968,0.8251953125
,76.8366088,0.8203125
,76.8717379,0.810546875
,76.893464,0.8056640625
,76.8990615,0.80078125
,76.9151737,0.7958984375
,76.9635177,0.791015625
,76.9639773,0.7861328125
,76.9752884,0.78125
,77.0094142,0.78125
,77.0304936,0.78125
,77.0359263,0.78125
,77.0567328,0.791015625
,77.1039323,0.8056640625
,77.1043067,0.8251953125
,77.1150257,0.83984375
,77.1527749,0.8544921875
,77.1606736,0.869140625
,77.1762832,0.87890625
,77.2113486,0.888671875
,77.2315965,0.8935546875
,77.2375229,0.8984375
,77.2908081,0.8984375
,77.2911177,0.8984375
,77.2938181,0.8935546875
,77.3329931,0.888671875
,77.3381023,0.8837890625
,77.357939,0.87890625
,77.3988572,0.8740234375
,77.3992177,0.8642578125
,77.4451616,0.859375
,77.445475,0.849609375
,77.4600045,0.83984375
,77.4760231,0.8349609375
,77.5095896,0.830078125
,77.5307088,0.8203125
,77.5372391,0.8154296875
,77.5839697,0.810546875
,77.5845097,0.8056640625
,77.5989911,0.80078125
,77.6358412,0.7958984375
,77.6362322,0.791015625
,77.6709228,0.7861328125
,77.6918299,0.7861328125
,77.6967104,0.7861328125
,77.7410913,0.7861328125
,77.7415502,0.7958984375
,77.7605187,0.810546875
,77.7797563,0.8251953125
,77.8169341,0.83984375
,77.8174936,0.849609375
,77.8534382,0.8642578125
,77.8563263,0.869140625
,77.8941512,0.87890625
,77.8990971,0.888671875
,77.9432579,0.888671875
,77.9436935,0.888671875
,77.9596501,0.8837890625
,77.9806433,0.87890625
,78.0211122,0.8740234375
,78.0214541,0.869140625
,78.0371289,0.8642578125
,78.0583782,0.859375
,78.079733,0.849609375
,78.0999049,0.8447265625
,78.1205955,0.8349609375
,78.141697,0.830078125
,78.1591658,0.8203125
,78.1794114,0.8154296875
,78.1976321,0.810546875
,78.2357417,0.8056640625
,78.2383359,0.80078125
,78.2592389,0.7958984375
,78.2989789,0.791015625
,78.2994261,0.7861328125
,78.3355754,0.7861328125
,78.3409601,0.78125
,78.3576405,0.7763671875
,78.4068009,0.7763671875
,78.4071173,0.78125
,78.4159099,0.791015625
,78.4522929,0.8056640625
,78.47226,0.8203125
,78.4792614,0.8349609375
,78.5306717,0.849609375
,78.5311333,0.8642578125
,78.5363342,0.869140625
,78.5565808,0.87890625
,78.6075796,0.8837890625
,78.6080366,0.888671875
,78.6185919,0.888671875
,78.6692396,0.8837890625
,78.6696204,0.87890625
,78.6814899,0.8740234375
,78.7007056,0.869140625
,78.7214548,0.8642578125
,78.7580756,0.8544921875
,78.7585177,0.849609375
,78.7976164,0.8447265625
,78.7979191,0.8349609375
,78.8430936,0.830078125
,78.8435357,0.8251953125
,78.8730789,0.8154296875
,78.8809899,0.810546875
,78.9155112,0.8056640625
,78.9372142,0.80078125
,78.9376626,0.7958984375
,78.9598375,0.791015625
,78.9992556,0.791015625
,78.9995401,0.7861328125
,79.0347043,0.78125
,79.0412354,0.7763671875
,79.0774497,0.7763671875
,79.0821967,0.78125
,79.0987427,0.791015625
,79.1380129,0.8056640625
,79.1385188,0.8203125
,79.1755064,0.83984375
,79.1783359,0.8544921875
,79.2131315,0.8642578125
,79.2331525,0.8740234375
,79.2418095,0.8837890625
,79.2585154,0.8935546875
,79.2941008,0.8984375
,79.2988889,0.8984375
,79.3359319,0.8984375
,79.3403581,0.8935546875
,79.3857287,0.8837890625
,79.3860886,0.87890625
,79.4019103,0.8740234375
,79.4477614,0.8642578125
,79.4482152,0.859375
,79.4572525,0.849609375
,79.4937886,0.8447265625
,79.5147043,0.8349609375
,79.5200763,0.8251953125
,79.5586159,0.8203125
,79.5590653,0.810546875
,79.6019609,0.8056640625
,79.6023877,0.80078125
,79.6230221,0.791015625
,79.6380252,0.7861328125
,79.674199,0.7861328125
,79.6950023,0.78125
,79.6994229,0.7763671875
,79.7398194,0.7763671875
,79.7402489,0.771484375
,79.7765568,0.7763671875
,79.7790993,0.7861328125
,79.815755,0.80078125
,79.8362562,0.8154296875
,79.8415021,0.8349609375
,79.8609206,0.849609375
,79.9100495,0.859375
,79.9103536,0.869140625
,79.9216399,0.87890625
,79.9570375,0.8837890625
,79.9626151,0.888671875
,79.9970393,0.888671875
,79.9973504,0.888671875
,80.0379458,0.8837890625
,80.0677626,0.87890625
,80.0680647,0.869140625
,80.0808573,0.8642578125
,80.12898,0.859375
,80.1293832,0.849609375
,80.1416234,0.83984375
,80.1598244,0.8349609375
,80.1966794,0.830078125
,80.2047374,0.8203125
,80.2211424,0.8154296875
,80.2691706,0.8056640625
,80.2696238,0.80078125
,80.2798764,0.7958984375
,80.3144157,0.791015625
,80.3361037,0.7861328125
,80.3427487,0.78125
,80.3786492,0.7763671875
,80.3789879,0.771484375
,80.4139692,0.771484375
,80.4344855,0.7763671875
,80.4420688,0.78125
,80.4610646,0.7958984375
,80.5033352,0.810546875
,80.5037471,0.8251953125
,80.5323837,0.83984375
,80.5395404,0.8544921875
,80.5593413,0.869140625
,80.5933625,0.87890625
,80.6147088,0.888671875
,80.6217581,0.8935546875
,80.6714943,0.8984375
,80.6717879,0.8984375
,80.6820515,0.8984375
,80.7199993,0.8935546875
,80.7203855,0.888671875
,80.7549689,0.8837890625
,80.7607719,0.8740234375
,80.7976118,0.8740234375
,80.8022254,0.8642578125
,80.8427541,0.8544921875
,80.8431088,0.849609375
,80.8811728,0.8447265625
,80.8816171,0.8349609375
,80.8988463,0.830078125
,80.932392,0.8251953125
,80.953364,0.8203125
,80.9614627,0.8154296875
,80.9812242,0.810546875
,81.0301499,0.8056640625
,81.0304408,0.80078125
,81.0427475,0.7958984375
,81.0631631,0.791015625
,81.1080169,0.7861328125
,81.1084628,0.7861328125
,81.1290214,0.7958984375
,81.1421311,0.8056640625
,81.1776914,0.8251953125
,81.1810872,0.83984375
,81.218729,0.8544921875
,81.2262372,0.8642578125
,81.2449408,0.8740234375
,81.2816159,0.8837890625
,81.281909,0.8935546875
,81.3281706,0.8935546875
,81.3286182,0.8984375
,81.3415007,0.8935546875
,81.3776338,0.888671875
,81.4019248,0.8837890625
,81.4022136,0.8740234375
,81.4502361,0.869140625
,81.4506819,0.859375
,81.4706954,0.8544921875
,81.4825905,0.8447265625
,81.5180955,0.83984375
,81.5229454,0.830078125
,81.5731253,0.8203125
,81.5735818,0.8154296875
,81.584777,0.810546875
,81.6049646,0.80078125
,81.6223409,0.7958984375
,81.6571982,0.791015625
,81.662097,0.7861328125
,81.697904,0.78125
,81.7006793,0.7763671875
,81.7339879,0.7763671875
,81.7562876,0.771484375
,81.765548,0.771484375
,81.7816523,0.771484375
,81.8198909,0.7861328125
,81.8201935,0.7958984375
,81.8651524,0.8154296875
,81.8655844,0.830078125
,81.8828575,0.83984375
,81.9179924,0.8544921875
,81.9239018,0.8642578125
,81.9603756,0.869140625
,81.9635011,0.8740234375
,82.0002646,0.87890625
,82.0006954,0.87890625
,82.0359525,0.87890625
,82.057036,0.869140625
,82.0624482,0.869140625
,82.083549,0.859375
,82.1201438,0.8544921875
,82.1229054,0.8447265625
,82.1586984,0.83984375
,82.17961,0.830078125
,82.1799057,0.8203125
,82.2150548,0.810546875
,82.2362886,0.8056640625
,82.2452344,0.80078125
,82.2643252,0.7958984375
,82.2983857,0.7861328125
,82.3189124,0.78125
,82.3247531,0.7763671875
,82.3424569,0.771484375
,82.3783685,0.7666015625
,82.3837206,0.76171875
,82.4284402,0.7568359375
,82.4288856,0.7568359375
,82.4455307,0.7568359375
,82.4899655,0.7568359375
,82.4904014,0.7666015625
,82.5017917,0.78125
,82.521681,0.80078125
,82.5573248,0.8154296875
,82.5782582,0.830078125
,82.5829971,0.8447265625
,82.6325805,0.8544921875
,82.6330257,0.8642578125
,82.6627556,0.869140625
,82.6655864,0.8740234375
,82.6860063,0.8740234375
,82.7210056,0.869140625
,82.7214846,0.8642578125
,82.7412518,0.8642578125
,82.762276,0.859375
,82.8013984,0.8544921875
,82.8220322,0.849609375
,82.8224777,0.83984375
,82.8640175,0.8349609375
,82.8936738,0.8251953125
,82.893962,0.8203125
,82.9033404,0.810546875
,82.9218447,0.8056640625
,82.9718236,0.7958984375
,82.9722609,0.7958984375
,82.991638,0.791015625
,83.0046401,0.7861328125
,83.0512894,0.78125
,83.0517455,0.7763671875
,83.0618302,0.771484375
,83.1120496,0.771484375
,83.1124774,0.771484375
,83.124733,0.771484375
,83.173728,0.78125
,83.1741619,0.791015625
,83.1876129,0.810546875
,83.2060885,0.8251953125
,83.2258245,0.83984375
,83.2422096,0.8544921875
,83.263713,0.869140625
,83.3133306,0.87890625
,83.3136452,0.888671875
,83.3249654,0.8935546875
,83.3593632,0.8984375
,83.3807776,0.8984375
,83.3867485,0.8935546875
,83.40776,0.888671875
,83.453795,0.87890625
,83.4540845,0.8740234375
,83.4638127,0.869140625
,83.4994891,0.859375
,83.5296958,0.8544921875
,83.5299916,0.849609375
,83.545237,0.83984375
,83.5803785,0.8349609375
,83.6010509,0.8251953125
,83.6060701,0.8203125
,83.6240636,0.8154296875
,83.6444835,0.810546875
,83.682385,0.8056640625
,83.6828259,0.80078125
,83.7334331,0.7958984375
,83.7338805,0.791015625
,83.7654538,0.791015625
,83.7657609,0.7861328125
,83.784783,0.7861328125
,83.819847,0.791015625
,83.8232479,0.80078125
,83.8748334,0.8154296875
,83.8752839,0.830078125
,83.8859723,0.8447265625
,83.9393654,0.859375
,83.9398452,0.869140625
,83.946625,0.87890625
,83.9619312,0.888671875
,84.0002604,0.8984375
,84.0205905,0.8984375
,84.0240327,0.8984375
,84.0635754,0.8935546875
,84.0639761,0.888671875
,84.09958,0.8837890625
,84.1197834,0.8740234375
,84.1205138,0.869140625
,84.1721349,0.8642578125
,84.1724323,0.849609375
,84.2029148,0.83984375
,84.203275,0.8349609375
,84.2397522,0.830078125
,84.2604957,0.8251953125
,84.2684409,0.8154296875
,84.3127214,0.810546875
,84.3131703,0.8056640625
,84.3280807,0.80078125
,84.3441067,0.7958984375
,84.3796663,0.791015625
,84.4002257,0.7861328125
,84.4052889,0.78125
,84.4420029,0.7763671875
,84.4655579,0.7763671875
,84.4658728,0.7763671875
,84.5000973,0.78125
,84.521502,0.791015625
,84.5219435,0.8056640625
,84.5594792,0.8203125
,84.5663388,0.8349609375
,84.5863194,0.8447265625
,84.6226998,0.8544921875
,84.627286,0.859375
,84.6630205,0.8642578125
,84.6659088,0.869140625
,84.6849237,0.869140625
,84.7216803,0.8642578125
,84.7242968,0.859375
,84.7607873,0.8544921875
,84.7815789,0.849609375
,84.7864008,0.8447265625
,84.8378639,0.83984375
,84.8382296,0.8349609375
,84.8497325,0.8251953125
,84.8639981,0.8203125
,84.9137534,0.810546875
,84.9142282,0.8056640625
,84.9264206,0.80078125
,84.9767038,0.7958984375
,84.9769905,0.791015625
,84.9852973,0.7861328125
,85.0248087,0.78125
,85.0554999,0.7763671875
,85.0559553,0.771484375
,85.0636183,0.7666015625
,85.1006284,0.7666015625
,85.105904,0.76171875
,85.1426611,0.76171875
,85.1482594,0.7666015625
,85.1944422,0.7763671875
,85.1948894,0.791015625
,85.209167,0.80078125
,85.2288559,0.8203125
,85.2462612,0.830078125
,85.26722,0.8447265625
,85.2864532,0.8544921875
,85.3224263,0.8642578125
,85.326536,0.869140625
,85.3633154,0.8740234375
,85.3838813,0.8740234375
,85.3866253,0.8740234375
,85.4049924,0.869140625
,85.4405645,0.8642578125
,85.4457972,0.859375
,85.4825311,0.8544921875
,85.487843,0.849609375
,85.5245737,0.8447265625
,85.5291888,0.8349609375
,85.5648957,0.830078125
,85.5672882,0.8251953125
,85.5851693,0.8154296875
,85.6204477,0.810546875
,85.6410642,0.8056640625
,85.6460023,0.80078125
,85.6917743,0.7958984375
,85.6921364,0.791015625
,85.7118059,0.7861328125
,85.7290111,0.78125
,85.7652076,0.78125
,85.7842419,0.7763671875
,85.7884535,0.7763671875
,85.8068224,0.771484375
,85.8471586,0.78125
,85.8771587,0.791015625
,85.8774895,0.8056640625
,85.8894733,0.8203125
,85.9248421,0.8349609375
,85.9301502,0.849609375
,85.9658474,0.859375
,85.9664035,0.869140625
,86.0167661,0.87890625
,86.0174239,0.8837890625
,86.0273782,0.888671875
,86.0786523,0.888671875
,86.0792609,0.888671875
,86.0889381,0.8837890625
,86.1403124,0.87890625
,86.1405981,0.8740234375
,86.1461664,0.869140625
,86.1676962,0.8642578125
,86.2041452,0.8544921875
,86.2070157,0.849609375
,86.2441323,0.83984375
,86.2468691,0.8349609375
,86.2964035,0.8251953125
,86.2972433,0.8203125
,86.3264591,0.8154296875
,86.3268291,0.810546875
,86.347698,0.8056640625
,86.3685378,0.80078125
,86.4055853,0.80078125
,86.4105742,0.7958984375
,86.4524841,0.791015625
,86.4527847,0.7861328125
,86.4715195,0.7861328125
,86.491169,0.7861328125
,86.5106658,0.7861328125
,86.5282002,0.7958984375
,86.5627855,0.810546875
,86.5680995,0.8251953125
,86.6034066,0.8447265625
,86.6095276,0.8544921875
,86.6289833,0.869140625
,86.6665629,0.8740234375
,86.6720963,0.8837890625
,86.6863631,0.888671875
,86.7081231,0.888671875
,86.7429416,0.888671875
,86.7480731,0.8837890625
,86.7826506,0.87890625
,86.8028886,0.8740234375
,86.808605,0.869140625
,86.8464894,0.8642578125
,86.8513821,0.8544921875
,86.8683637,0.849609375
,86.9188351,0.8447265625
,86.9192848,0.83984375
,86.9286005,0.830078125
,86.9810234,0.8251953125
,86.9814755,0.8203125
,86.9889948,0.810546875
,87.0247951,0.8056640625
,87.0458115,0.80078125
,87.0462557,0.7958984375
,87.0888199,0.791015625
,87.0891096,0.7861328125
,87.1103959,0.7861328125
,87.1438576,0.78125
,87.1512949,0.78125
,87.1702,0.7861328125
,87.2063311,0.7958984375
,87.2066407,0.8056640625
,87.2286086,0.8203125
,87.2763728,0.830078125
,87.2767302,0.8447265625
,87.290476,0.8544921875
,87.3371324,0.8642578125
,87.3378307,0.869140625
,87.3501458,0.8740234375
,87.3856291,0.8740234375
,87.4062964,0.8740234375
,87.4122227,0.869140625
,87.4287159,0.8642578125
,87.4639073,0.859375
,87.4847484,0.8544921875
,87.4904416,0.849609375
,87.5408885,0.8447265625
,87.5411925,0.83984375
,87.5524511,0.830078125
,87.6026615,0.8251953125
,87.6029651,0.8203125
,87.608632,0.8154296875
,87.648181,0.810546875
,87.6486192,0.8056640625
,87.6697772,0.8056640625
,87.6901344,0.80078125
,87.7275951,0.7958984375
,87.7586857,0.791015625
,87.7591532,0.7861328125
,87.7676352,0.78125
,87.8055416,0.78125
,87.8080512,0.78125
,87.8485072,0.7861328125
,87.8489393,0.7958984375
,87.8835907,0.810546875
,87.9126726,0.8203125
,87.9131233,0.8349609375
,87.9285483,0.8447265625
,87.9645491,0.859375
,87.9687012,0.8642578125
,88.0047838,0.8740234375
,88.0258352,0.87890625
,88.030887,0.87890625
,88.0814721,0.87890625
,88.0819187,0.869140625
,88.0932418,0.8642578125
,88.1294036,0.8642578125
,88.1315816,0.859375
,88.1667325,0.8544921875
,88.1709606,0.849609375
,88.2215386,0.8447265625
,88.2218336,0.83984375
,88.2316645,0.830078125
,88.2663693,0.8251953125
,88.2715055,0.8203125
,88.3084953,0.8154296875
,88.31465,0.810546875
,88.3319795,0.8056640625
,88.35073,0.80078125
,88.3703635,0.80078125
,88.4225564,0.7958984375
,88.4230197,0.791015625
,88.4324313,0.7861328125
,88.4693655,0.7861328125
,88.4719562,0.78125
,88.4876177,0.7861328125
,88.5310183,0.7958984375
,88.5314333,0.8056640625
,88.5789217,0.8251953125
,88.5795015,0.8349609375
,88.598196,0.849609375
,88.6140277,0.859375
,88.6561378,0.869140625
,88.6566188,0.87890625
,88.6692414,0.8837890625
,88.7046305,0.888671875
,88.7097521,0.888671875
,88.7499063,0.8837890625
,88.7501741,0.87890625
,88.7946002,0.8740234375
,88.7949606,0.869140625
,88.814497,0.8642578125
,88.8332291,0.8544921875
,88.8545519,0.8447265625
,88.8695074,0.8349609375
,88.9184611,0.8349609375
,88.9189204,0.830078125
,88.9322296,0.8251953125
,88.9668338,0.8203125
,88.9718648,0.8154296875
,89.0083845,0.810546875
,89.0145043,0.8056640625
,89.0326423,0.80078125
,89.0496772,0.7958984375
,89.089033,0.791015625
,89.0893539,0.7861328125
,89.1268048,0.7861328125
,89.1316133,0.7861328125
,89.1670645,0.791015625
,89.1981363,0.7958984375
,89.1985947,0.810546875
,89.2087859,0.8251953125
,89.2442891,0.83984375
,89.2649367,0.849609375
,89.2690388,0.8642578125
,89.3066381,0.8740234375
,89.3256286,0.87890625
,89.3338889,0.8837890625
,89.3700589,0.888671875
,89.3782723,0.8837890625
,89.3899123,0.87890625
,89.4316449,0.8740234375
,89.4320924,0.869140625
,89.4621887,0.8642578125
,89.4739794,0.859375
,89.5084757,0.849609375
,89.5121085,0.8447265625
,89.5561646,0.8349609375
,89.5566126,0.830078125
,89.5875443,0.8251953125
,89.5922454,0.8203125
,89.6125631,0.8154296875
,89.6485318,0.810546875
,89.6511523,0.8056640625
,89.6895041,0.80078125
,89.6945524,0.7958984375
,89.7416013,0.791015625
,89.7419397,0.7861328125
,89.7555209,0.78125
,89.772275,0.7763671875
,89.8192711,0.78125
,89.819728,0.7861328125
,89.8312657,0.7958984375
,89.8691387,0.810546875
,89.8738418,0.8251953125
,89.9101117,0.8349609375
,89.9155798,0.849609375
,89.951001,0.859375
,89.9513107,0.869140625
,89.9874678,0.87890625
,90.0221761,0.8837890625
,90.0224764,0.8837890625
,90.034044,0.8837890625
,90.0537233,0.87890625
,90.098536,0.8740234375
,90.0988396,0.8642578125
,90.1192274,0.859375
,90.1319092,0.8544921875
,90.1520422,0.849609375
,90.1914682,0.8447265625
,90.1917991,0.8349609375
,90.2280213,0.830078125
,90.2483902,0.8251953125
,90.2541883,0.8203125
,90.2936354,0.810546875
,90.2940863,0.8056640625
,90.3135357,0.80078125
,90.3618151,0.791015625
,90.3621373,0.791015625
,90.3739168,0.7861328125
,90.3939511,0.78125
,90.4403087,0.78125
,90.440601,0.78125
,90.4604772,0.78125
,90.4765419,0.791015625
,90.4937163,0.80078125
,90.5344858,0.8154296875
,90.5349431,0.830078125
,90.5825099,0.8447265625
,90.5828111,0.8544921875
,90.6125285,0.8642578125
,90.6151306,0.8740234375
,90.6587734,0.87890625
,90.659419,0.8837890625
,90.6733738,0.8837890625
,90.722184,0.87890625
,90.7226332,0.8740234375
,90.7323471,0.869140625
,90.7690831,0.8642578125
,90.8026371,0.859375
,90.8030706,0.8544921875
,90.8149215,0.849609375
,90.8308821,0.83984375
,90.8650317,0.8349609375
,90.8861378,0.830078125
,90.8942977,0.8251953125
,90.9307263,0.8154296875
,90.9353751,0.8154296875
,90.9728083,0.810546875
,90.9732541,0.8056640625
,91.0184129,0.80078125
,91.0188622,0.80078125
,91.0409086,0.7958984375
,91.0530946,0.791015625
,91.0877864,0.791015625
,91.1091557,0.791015625
,91.1137987,0.791015625
,91.1479569,0.80078125
,91.1693294,0.810546875
,91.1767412,0.8251953125
,91.1976216,0.8349609375
,91.2328419,0.8447265625
,91.233393,0.8544921875
,91.2544006,0.8642578125
,91.2744099,0.8740234375
,91.2961811,0.87890625
,91.3439893,0.8837890625
,91.3444659,0.8837890625
,91.3558735,0.87890625
,91.3930564,0.869140625
,91.3939844,0.8642578125
,91.4142677,0.859375
,91.4528112,0.8544921875
,91.4531626,0.849609375
,91.4884411,0.8447265625
,91.5097237,0.83984375
,91.5156645,0.8349609375
,91.5649927,0.830078125
,91.5652818,0.8251953125
,91.5861428,0.8154296875
,91.5937842,0.8154296875
,91.6451186,0.810546875
,91.6454897,0.8056640625
,91.6561956,0.80078125
,91.7057535,0.7958984375
,91.7060499,0.791015625
,91.7168197,0.7861328125
,91.7344421,0.7861328125
,91.7841682,0.7861328125
,91.7846326,0.791015625
,91.7936826,0.8056640625
,91.8291464,0.8154296875
,91.8498387,0.830078125
,91.8551273,0.8447265625
,91.8919066,0.8544921875
,91.8976905,0.869140625
,91.9146838,0.8740234375
,91.9349829,0.8837890625
,91.9699685,0.888671875
,91.9750356,0.8935546875
,92.0174168,0.8935546875
,92.0177343,0.888671875
,92.0358204,0.87890625
,92.0787296,0.8740234375
,92.0791609,0.8642578125
,92.0964211,0.859375
,92.1138799,0.849609375
,92.1487288,0.8447265625
,92.1700063,0.8349609375
,92.1751509,0.830078125
,92.2119399,0.8203125
,92.2167623,0.8154296875
,92.2517062,0.810546875
,92.2578918,0.80078125
,92.2771112,0.7958984375
,92.2932615,0.791015625
,92.3285657,0.7861328125
,92.3503084,0.7861328125
,92.3555704,0.78125
,92.405709,0.7763671875
,92.4064155,0.7763671875
,92.417301,0.7763671875
,92.4533032,0.7861328125
,92.4536037,0.7958984375
,92.4898855,0.8154296875
,92.5140697,0.830078125
,92.5143583,0.8447265625
,92.5337973,0.859375
,92.5714533,0.869140625
,92.577548,0.87890625
,92.5974668,0.8837890625
,92.6324908,0.8935546875
,92.6329423,0.8935546875
,92.6700642,0.8935546875
,92.690247,0.888671875
,92.6953165,0.8837890625
,92.7311641,0.8740234375
,92.7519786,0.869140625
,92.7577759,0.8642578125
,92.7956035,0.8544921875
,92.7959053,0.849609375
,92.8407206,0.83984375
,92.8411526,0.830078125
,92.8555738,0.8203125
,92.9044531,0.8154296875
,92.9048456,0.810546875
,92.9177791,0.8056640625
,92.9529273,0.80078125
,92.9586647,0.791015625
,92.9783362,0.7861328125
,92.9985906,0.7861328125
,93.0151498,0.78125
,93.0363202,0.78125
,93.0789429,0.7763671875
,93.0792915,0.78125
,93.0982994,0.7861328125
,93.1405377,0.80078125
,93.1409837,0.8154296875
,93.1592951,0.830078125
,93.2036389,0.8447265625
,93.2040969,0.8544921875
,93.2146695,0.8642578125
,93.2512244,0.8740234375
,93.2819098,0.8837890625
,93.2822135,0.8837890625
,93.2988178,0.8837890625
,93.3439853,0.87890625
,93.3444471,0.8740234375
,93.3548982,0.869140625
,93.3927752,0.8642578125
,93.3979575,0.8544921875
,93.4168548,0.849609375
,93.4382997,0.8447265625
,93.4574616,0.8349609375
,93.4921531,0.830078125
,93.5129895,0.8203125
,93.5183293,0.8154296875
,93.540327,0.810546875
,93.5741611,0.80078125
,93.5771761,0.7958984375
,93.5981705,0.7958984375
,93.6173475,0.791015625
,93.6377278,0.7861328125
,93.6842648,0.78125
,93.6845583,0.78125
,93.7045237,0.7763671875
,93.7190888,0.7763671875
,93.7355897,0.7763671875
,93.7784075,0.791015625
,93.7787132,0.80078125
,93.812142,0.8154296875
,93.8332409,0.830078125
,93.838589,0.83984375
,93.8734126,0.849609375
,93.8789848,0.859375
,93.917568,0.8642578125
,93.9179166,0.869140625
,93.9380928,0.8740234375
,93.9578303,0.869140625
,93.9980285,0.8642578125
,93.9984823,0.859375
,94.0450672,0.859375
,94.0454186,0.849609375
,94.0654373,0.8447265625
,94.0786346,0.83984375
,94.0972139,0.830078125
,94.1382405,0.8251953125
,94.1386931,0.8203125
,94.1568144,0.8154296875
,94.1926467,0.810546875
,94.2136309,0.8056640625
,94.218647,0.80078125
,94.262581,0.7958984375
,94.2631167,0.791015625
,94.281804,0.7861328125
,94.2985412,0.7763671875
,94.3345642,0.7763671875
,94.3394253,0.7763671875
,94.387114,0.771484375
,94.3875731,0.771484375
,94.3983516,0.7763671875
,94.438023,0.7861328125
,94.4389002,0.7958984375
,94.460462,0.810546875
,94.4778297,0.8251953125
,94.5267024,0.8349609375
,94.5269926,0.8447265625
,94.5476538,0.859375
,94.5601566,0.8642578125
,94.595227,0.869140625
,94.5988305,0.869140625
,94.6511233,0.869140625
,94.6514162,0.8642578125
,94.6573668,0.859375
,94.6937901,0.8544921875
,94.6997039,0.849609375
,94.7363071,0.8447265625
,94.7367808,0.83984375
,94.777636,0.8349609375
,94.7781017,0.830078125
,94.8153707,0.8251953125
,94.8156849,0.8154296875
,94.8379726,0.810546875
,94.871766,0.8056640625
,94.8923352,0.80078125
,94.9003423,0.7958984375
,94.9194975,0.7958984375
,94.9544678,0.791015625
,94.9757158,0.7861328125
,94.97602,0.78125
,95.0237867,0.78125
,95.0241045,0.7763671875
,95.0533879,0.7763671875
,95.0598059,0.78125
,95.0959942,0.791015625
,95.1004285,0.80078125
,95.1465427,0.8154296875
,95.1469068,0.830078125
,95.160557,0.83984375
,95.198096,0.849609375
,95.1985465,0.859375
,95.2399848,0.869140625
,95.240449,0.8740234375
,95.2710609,0.8740234375
,95.280625,0.8740234375
,95.3167761,0.8740234375
,95.3221222,0.869140625
,95.3564575,0.8642578125
,95.3611426,0.859375
,95.37862,0.8544921875
,95.3995195,0.849609375
,95.4418215,0.8447265625
,95.4426822,0.83984375
,95.4608366,0.830078125
,95.495151,0.8251953125
,95.4997022,0.8203125
,95.5499803,0.8154296875
,95.5502888,0.8056640625
,95.5715451,0.8056640625
,95.5790499,0.80078125
,95.6147625,0.7958984375
,95.6206702,0.791015625
,95.660202,0.7861328125
,95.6604919,0.78125
,95.7080966,0.78125
,95.7084193,0.78125
,95.7384113,0.78125
,95.7387131,0.7861328125
,95.7766517,0.7958984375
,95.777125,0.8056640625
,95.8150623,0.8203125
,95.820451,0.830078125
,95.8578217,0.83984375
,95.8633708,0.849609375
,95.8806383,0.8544921875
,95.9175279,0.859375
,95.9178405,0.8642578125
,95.954556,0.8642578125
,95.9598616,0.8642578125
,96.0071143,0.859375
,96.0075719,0.8544921875
,96.0209211,0.849609375
,96.0690904,0.8447265625
,96.0695173,0.83984375
,96.0817554,0.8349609375
,96.0985832,0.830078125
,96.1326533,0.830078125
,96.1538369,0.8251953125
,96.1618683,0.8154296875
,96.1812017,0.810546875
,96.2272771,0.810546875
,96.2277246,0.80078125
,96.2579332,0.80078125
,96.2582367,0.7958984375
,96.2800116,0.791015625
,96.3202966,0.7861328125
,96.3207669,0.7861328125
,96.3671268,0.78125
,96.3675072,0.78125
,96.384585,0.78125
,96.4024942,0.78125
,96.4374831,0.791015625
,96.4399234,0.80078125
,96.477679,0.8154296875
,96.4785096,0.830078125
,96.5177813,0.83984375
,96.5227139,0.849609375
,96.54238,0.859375
,96.5879072,0.8642578125
,96.5883676,0.869140625
,96.5996381,0.869140625
,96.6497047,0.869140625
,96.6501666,0.8642578125
,96.6608024,0.8544921875
,96.6952165,0.8544921875
,96.6998083,0.849609375
,96.7367601,0.8447265625
,96.7562506,0.83984375
,96.7629996,0.8349609375
,96.805618,0.830078125
,96.8059144,0.8251953125
,96.8201901,0.8203125
,96.8568589,0.8154296875
,96.8617191,0.810546875
,96.8968923,0.8056640625
,96.9183718,0.80078125
,96.9232673,0.80078125
,96.9758146,0.7958984375
,96.9762631,0.7958984375
,96.9821696,0.791015625
,97.0176592,0.7861328125
,97.0204369,0.7861328125
,97.0558759,0.7861328125
,97.0622291,0.7861328125
,97.0976029,0.7861328125
,97.118733,0.7958984375
,97.1233904,0.810546875
,97.1590509,0.8251953125
,97.1593347,0.8349609375
,97.2038251,0.849609375
,97.2041664,0.8544921875
,97.2215211,0.8642578125
,97.2569011,0.869140625
,97.2626871,0.8740234375
,97.2987614,0.8740234375
,97.303145,0.869140625
,97.3434291,0.8642578125
,97.3437192,0.859375
,97.3594526,0.8544921875
,97.3948579,0.849609375
,97.4157749,0.8447265625
,97.4224057,0.83984375
,97.4687137,0.8349609375
,97.4692269,0.830078125
,97.4832484,0.8251953125
,97.5033216,0.8203125
,97.5381237,0.8154296875
,97.5593287,0.810546875
,97.5597759,0.8056640625
,97.5966829,0.80078125
,97.6037373,0.80078125
,97.6231347,0.7958984375
,97.670398,0.791015625
,97.6707629,0.7861328125
,97.684835,0.7861328125
,97.7217492,0.78125
,97.7221946,0.78125
,97.7635867,0.78125
,97.7639482,0.7861328125
,97.7842614,0.791015625
,97.8036182,0.8056640625
,97.8425214,0.8203125
,97.8429071,0.830078125
,97.8896968,0.8447265625
,97.8900613,0.849609375
,97.9012894,0.859375
,97.9508028,0.869140625
,97.9512303,0.8740234375
,97.9627259,0.8740234375
,97.9985768,0.8740234375
,98.0186798,0.869140625
,98.0251155,0.8642578125
,98.0449244,0.859375
,98.0615523,0.8544921875
,98.0821711,0.849609375
,98.1211425,0.8447265625
,98.1214638,0.8447265625
,98.1681159,0.8349609375
,98.168679,0.830078125
,98.1844373,0.8251953125
,98.2046291,0.8203125
,98.2260853,0.8154296875
,98.2769029,0.8056640625
,98.277354,0.8056640625
,98.2808231,0.80078125
,98.3184709,0.80078125
,98.323135,0.7958984375
,98.3593248,0.791015625
,98.3647565,0.7861328125
,98.4146344,0.7861328125
,98.4149335,0.78125
,98.4259331,0.78125
,98.4423487,0.78125
,98.475758,0.7861328125
,98.4970683,0.80078125
,98.5048061,0.8154296875
,98.5233156,0.8251953125
,98.5621232,0.83984375
,98.5625691,0.849609375
,98.6079104,0.859375
,98.608201,0.869140625
,98.6287121,0.8740234375
,98.6425688,0.87890625
,98.6868944,0.87890625
,98.6871981,0.87890625
,98.7039759,0.8740234375
,98.7393351,0.869140625
,98.7592754,0.8642578125
,98.7665531,0.859375
,98.7823496,0.8544921875
,98.8261616,0.849609375
,98.8264658,0.8447265625
,98.8463367,0.8349609375
,98.8635124,0.830078125
,98.9044736,0.8251953125
,98.9047779,0.8203125
,98.9357518,0.810546875
,98.9471814,0.8056640625
,98.9672574,0.80078125
,98.9867026,0.7958984375
,99.003712,0.791015625
,99.0250636,0.7861328125
,99.0741998,0.7861328125
,99.0746287,0.78125
,99.0858659,0.78125
,99.105867,0.78125
,99.1260351,0.7763671875
,99.1610621,0.7861328125
,99.1615055,0.7958984375
,99.1989512,0.810546875
