Time,PPG_Signal
0.2382957,1.220703125
0.2401697,1.2451171875
0.2818827,1.2841796875
0.2821246,1.3720703125
0.3130915,1.474609375
0.3215816,1.5966796875
0.3599451,1.69921875
0.3602041,1.806640625
0.3955971,1.875
0.4159416,1.9482421875
0.4198623,1.9921875
0.4661655,2.041015625
0.4663947,2.060546875
0.4859214,2.08984375
0.5020839,2.0947265625
0.5429098,2.0654296875
0.5432549,2.0263671875
0.5631891,1.982421875
0.5991802,1.93359375
0.6205161,1.884765625
0.6207532,1.8505859375
0.6559384,1.8115234375
0.6779614,1.77734375
0.6822822,1.73828125
0.7301011,1.69921875
0.7305203,1.66015625
0.7503849,1.62109375
0.759244,1.5771484375
0.7921066,1.5380859375
0.8120638,1.5087890625
0.8224293,1.474609375
0.868921,1.4453125
0.8691514,1.4111328125
0.8887743,1.38671875
0.9048911,1.3623046875
0.9255963,1.337890625
0.9404358,1.3134765625
0.9787199,1.298828125
1.0011439,1.2841796875
1.0134825,1.279296875
1.0237197,1.26953125
1.0445135,1.2646484375
1.0652064,1.2548828125
1.0847233,1.25
1.1054353,1.240234375
1.1260415,1.2060546875
1.1461253,1.1767578125
1.1623929,1.1474609375
1.2118577,1.171875
1.2120569,1.1865234375
1.2228428,1.2060546875
1.2697058,1.240234375
1.2699313,1.318359375
1.2987021,1.4208984375
1.3052669,1.54296875
1.3214401,1.650390625
1.3565887,1.7529296875
1.3614122,1.8408203125
1.395033,1.9189453125
1.4171287,1.9775390625
1.4250291,2.0263671875
1.4441268,2.0654296875
1.4811757,2.0703125
1.4874112,2.0751953125
1.5035112,2.060546875
1.5213508,2.041015625
1.5590253,2.001953125
1.5789595,1.962890625
1.5838134,1.9140625
1.6225668,1.875
1.6228331,1.8310546875
1.6683558,1.796875
1.6687178,1.7529296875
1.6908273,1.71875
1.7033984,1.6845703125
1.746516,1.6455078125
1.7468228,1.6015625
1.780648,1.5673828125
1.7850703,1.5283203125
1.8240809,1.4892578125
1.8243517,1.455078125
1.8416633,1.416015625
1.8771393,1.3916015625
1.8822864,1.3671875
1.9311928,1.34765625
1.9315601,1.3232421875
1.9509086,1.3037109375
1.9643954,1.279296875
2.0104134,1.2646484375
2.0110243,1.2451171875
2.0265147,1.240234375
2.0426037,1.23046875
2.0857673,1.220703125
2.0861101,1.220703125
2.107758,1.2158203125
2.1245439,1.2060546875
2.1610749,1.1962890625
2.1660868,1.19140625
2.2109905,1.181640625
2.2113326,1.181640625
2.2208847,1.1767578125
2.2552558,1.1962890625
2.2762236,1.2451171875
2.2845108,1.3427734375
2.3185479,1.455078125
2.3385573,1.5771484375
2.3454201,1.6796875
2.3670265,1.7724609375
2.3836514,1.845703125
2.4182786,1.9189453125
2.4244105,1.97265625
2.474924,2.0068359375
2.4752642,2.03125
2.4853064,2.03125
2.5201111,2.0166015625
2.5396705,1.982421875
2.5457147,1.9384765625
2.5634321,1.8896484375
2.6001997,1.845703125
2.6048687,1.806640625
2.6406648,1.767578125
2.6425955,1.7236328125
2.6794419,1.689453125
2.7069554,1.6552734375
2.7072987,1.62109375
2.7439544,1.5869140625
2.7442347,1.54296875
2.7832639,1.513671875
2.7834895,1.4453125
2.8175603,1.42578125
2.8390879,1.396484375
2.8452652,1.3720703125
2.8940765,1.34765625
2.8944226,1.3232421875
2.9135544,1.298828125
2.9278002,1.279296875
2.9439721,1.2548828125
2.9844107,1.25
2.9846667,1.2353515625
3.0201943,1.23046875
3.0480364,1.2158203125
3.048393,1.220703125
3.0663602,1.220703125
3.1020225,1.2109375
3.122096,1.2109375
3.1223121,1.201171875
3.1700388,1.2060546875
3.1703662,1.201171875
3.2012498,1.2060546875
3.2055615,1.2060546875
3.2256017,1.2158203125
3.2617884,1.2548828125
3.2678766,1.3330078125
3.2824698,1.435546875
3.3173997,1.5673828125
3.34235,1.6748046875
3.3426607,1.77734375
3.3665843,1.865234375
3.3862056,1.9189453125
3.4206946,1.9677734375
3.4407085,1.9921875
3.448497,2.01171875
3.4629632,2.01171875
3.5015596,1.9970703125
3.5217945,1.9677734375
3.523492,1.9287109375
3.5594345,1.8798828125
3.5793801,1.8505859375
3.5854784,1.8115234375
3.6261713,1.7822265625
3.6264293,1.7431640625
3.6461637,1.6796875
3.6810471,1.62109375
3.6850447,1.611328125
3.7225057,1.5869140625
3.7523902,1.5625
3.7526127,1.5283203125
3.767391,1.4990234375
3.815268,1.46484375
3.8155857,1.435546875
3.8288947,1.4111328125
3.8437755,1.3818359375
3.8915136,1.3623046875
3.8918338,1.3427734375
3.9118833,1.3232421875
3.9252763,1.30859375
3.9598733,1.2939453125
3.981686,1.2744140625
3.9883515,1.259765625
4.0300651,1.2548828125
4.030871,1.2353515625
4.0458572,1.2353515625
4.0803723,1.23046875
4.0844057,1.2353515625
4.1190771,1.2255859375
4.1390053,1.2255859375
4.1474216,1.220703125
4.1859052,1.2158203125
4.1862784,1.2109375
4.2059761,1.2255859375
4.2394457,1.25
4.2639438,1.328125
4.2669799,1.42578125
4.3029356,1.552734375
4.3070692,1.6552734375
4.3591994,1.767578125
4.3597607,1.85546875
4.3627027,1.923828125
4.396435,1.9873046875
4.418703,2.0361328125
4.426116,2.0703125
4.4657033,2.08984375
4.4660457,2.099609375
4.4880369,2.080078125
4.5301189,2.05078125
4.5303421,2.001953125
4.5490164,1.9482421875
4.5649173,1.8994140625
4.5988002,1.8701171875
4.620408,1.8310546875
4.6287963,1.796875
4.6710046,1.7626953125
4.6713533,1.7236328125
4.6875166,1.6845703125
4.7312251,1.640625
4.7315888,1.6015625
4.75085,1.5576171875
4.7659535,1.5234375
4.8069354,1.4892578125
4.8073474,1.4599609375
4.8291662,1.4208984375
4.8482041,1.4013671875
4.8836468,1.3720703125
4.9157952,1.3525390625
4.9160175,1.3232421875
4.9251257,1.30859375
4.9748028,1.2890625
4.9750058,1.279296875
4.9875948,1.26953125
5.0384506,1.25
5.0389172,1.240234375
5.0499743,1.220703125
5.1004749,1.220703125
5.1007455,1.2060546875
5.1066968,1.2109375
5.1473526,1.201171875
5.1475485,1.2060546875
5.1919472,1.1962890625
5.1921418,1.1962890625
5.2078759,1.1962890625
5.2428692,1.2158203125
5.2638851,1.2548828125
5.269085,1.34765625
5.3035274,1.4404296875
5.3083191,1.5234375
5.3462741,1.650390625
5.3465621,1.748046875
5.3802598,1.8408203125
5.4002354,1.9091796875
5.4086265,1.9677734375
5.4440061,1.9970703125
5.470568,2.0263671875
5.4707773,2.0263671875
5.4851808,2.021484375
5.5205405,1.9873046875
5.5475893,1.943359375
5.5477954,1.89453125
5.5674332,1.845703125
5.6054,1.796875
5.6280944,1.7626953125
5.6283259,1.7236328125
5.6735345,1.6845703125
5.6738837,1.6552734375
5.6859262,1.62109375
5.7221291,1.5869140625
5.7423385,1.5478515625
5.7511648,1.513671875
5.7694937,1.4794921875
5.8065867,1.4404296875
5.8068458,1.40625
5.8436879,1.376953125
5.847844,1.3525390625
5.86908,1.3330078125
5.8893485,1.30859375
5.9260288,1.2841796875
5.930812,1.26953125
5.9734854,1.2451171875
5.9736867,1.2353515625
5.9878374,1.2158203125
6.0361432,1.2109375
6.0364605,1.201171875
6.0479875,1.201171875
6.0855234,1.19140625
6.0903338,1.19140625
6.1257461,1.1865234375
6.1298794,1.1865234375
6.1490563,1.1767578125
6.1934514,1.1474609375
6.1939175,1.1474609375
6.2076055,1.162109375
6.2548921,1.1865234375
6.2552519,1.259765625
6.2692792,1.3623046875
6.31614,1.4794921875
6.3163534,1.5966796875
6.3462594,1.6943359375
6.3513827,1.7822265625
6.3675832,1.845703125
6.4016176,1.9091796875
6.4267811,1.9482421875
6.427243,1.9775390625
6.4722147,1.9873046875
6.4725092,1.982421875
6.5036775,1.953125
6.510407,1.9189453125
6.5281725,1.8701171875
6.5643337,1.8359375
6.5688644,1.796875
6.603686,1.7578125
6.6083489,1.71875
6.6443636,1.689453125
6.671811,1.66015625
6.6721605,1.630859375
6.7078662,1.6015625
6.7080688,1.5625
6.7489891,1.5380859375
6.7492183,1.5087890625
6.797972,1.484375
6.7982399,1.4501953125
6.8079857,1.4208984375
6.8449223,1.3916015625
6.8749676,1.3623046875
6.8753143,1.3330078125
6.8876815,1.3232421875
6.9238632,1.30859375
6.9542038,1.2890625
6.9544567,1.2744140625
6.9679801,1.259765625
7.0029434,1.25
7.0232014,1.2353515625
7.0299561,1.2255859375
7.065264,1.220703125
7.0944848,1.2109375
7.0947966,1.201171875
7.1092611,1.201171875
7.1541548,1.1962890625
7.154355,1.2060546875
7.1679543,1.2060546875
7.2169937,1.2158203125
7.2173068,1.25
7.2376101,1.318359375
7.253839,1.42578125
7.2677879,1.533203125
7.3056685,1.6455078125
7.3098436,1.73828125
7.3452406,1.81640625
7.3745733,1.8798828125
7.374776,1.93359375
7.3918807,1.962890625
7.4361424,1.9921875
7.4363512,1.9970703125
7.4490036,1.9970703125
7.4969187,1.97265625
7.4972628,1.9384765625
7.5100719,1.8896484375
7.5436397,1.85546875
7.5638582,1.8115234375
7.5721407,1.7724609375
7.6119964,1.73828125
7.6124415,1.69921875
7.6449937,1.6748046875
7.6505044,1.6455078125
7.6971549,1.6259765625
7.6973503,1.5966796875
7.7141667,1.5673828125
7.7325493,1.533203125
7.76707,1.4990234375
7.7718901,1.46484375
7.8051827,1.4111328125
7.8072607,1.357421875
7.8426247,1.34765625
7.8664244,1.3427734375
7.869149,1.328125
7.9045207,1.3134765625
7.9266689,1.298828125
7.9321668,1.2890625
7.9669661,1.26953125
7.9889925,1.2646484375
7.9892869,1.25
8.022935,1.2451171875
8.0475023,1.2353515625
8.0528915,1.240234375
8.0721136,1.23046875
8.0911363,1.2255859375
8.1282003,1.2158203125
8.1481246,1.2109375
8.1483659,1.1962890625
8.1917187,1.2109375
8.1920678,1.220703125
8.2109865,1.2451171875
8.2445062,1.30859375
8.265124,1.4013671875
8.2710318,1.5185546875
8.3068457,1.62109375
8.3305812,1.7236328125
8.3308996,1.8017578125
8.3772007,1.8798828125
8.3774712,1.9384765625
8.3902118,1.9873046875
8.4373035,2.0166015625
8.4375099,2.0458984375
8.4581987,2.05078125
8.4709104,2.0458984375
8.5093708,2.021484375
8.5096382,1.9775390625
8.5612218,1.9384765625
8.5614978,1.89453125
8.5698457,1.8603515625
8.6071246,1.8212890625
8.6112441,1.787109375
8.6546259,1.7431640625
8.6548513,1.7138671875
8.6743813,1.6748046875
8.7089136,1.650390625
8.7091694,1.611328125
8.7291385,1.58203125
8.7644299,1.5478515625
8.7862092,1.5185546875
8.7923498,1.484375
8.8303635,1.4599609375
8.8306579,1.4306640625
8.8742092,1.4013671875
8.8745549,1.3671875
8.8952856,1.3427734375
8.9107763,1.318359375
8.9507655,1.3037109375
8.9510551,1.2890625
8.9717144,1.26953125
9.0194773,1.259765625
9.0196742,1.2451171875
9.0473101,1.2353515625
9.0476003,1.2255859375
9.0871095,1.2255859375
9.1171069,1.2158203125
9.1173652,1.2109375
9.1297859,1.2109375
9.1649508,1.201171875
9.1856373,1.1962890625
9.1914713,1.19140625
9.2259543,1.201171875
9.246905,1.23046875
9.2510209,1.30859375
9.2725186,1.4111328125
9.3197783,1.533203125
9.3201213,1.6357421875
9.3311607,1.7333984375
9.3679414,1.8115234375
9.3906439,1.8798828125
9.3909878,1.93359375
9.427808,1.982421875
9.4321143,2.01171875
9.467271,2.041015625
9.472227,2.05078125
9.5085478,2.03125
9.5132711,1.9970703125
9.55997,1.953125
9.5601861,1.9091796875
9.5736532,1.8603515625
9.6090109,1.8212890625
9.6295148,1.7822265625
9.6320501,1.7529296875
9.667324,1.71875
9.687988,1.6845703125
9.6926841,1.650390625
9.7347593,1.630859375
9.7351246,1.5966796875
9.7643425,1.5625
9.7750675,1.5283203125
9.792231,1.4892578125
9.8423304,1.4599609375
9.8425274,1.435546875
9.8530949,1.416015625
9.8995133,1.38671875
9.8999118,1.3623046875
9.9159522,1.337890625
9.9596846,1.318359375
9.9599156,1.298828125
9.971373,1.2939453125
10.0042988,1.2841796875
10.0250522,1.2744140625
10.0331598,1.2646484375
10.069129,1.25
10.0996216,1.2353515625
10.1002632,1.23046875
10.1162476,1.220703125
10.1323989,1.2060546875
10.1694589,1.2109375
10.1697725,1.220703125
10.2070445,1.26953125
10.2384653,1.34765625
10.2391087,1.46484375
10.2555424,1.572265625
10.2927263,1.6748046875
10.2929983,1.7529296875
10.3342163,1.7919921875
10.3344429,1.8310546875
10.3684506,1.8994140625
10.3727525,1.9482421875
10.4112155,1.982421875
10.4325364,2.0068359375
10.4327572,1.9970703125
10.47367,1.9775390625
10.495715,1.9384765625
10.4961516,1.8994140625
10.5120384,1.85546875
10.5513679,1.826171875
10.5725016,1.787109375
10.5728453,1.7578125
10.6099238,1.71875
10.6289208,1.689453125
10.6333023,1.6552734375
10.6683081,1.6259765625
10.6907389,1.58203125
10.6910698,1.552734375
10.724406,1.513671875
10.7455837,1.494140625
10.7525881,1.46484375
10.7879573,1.435546875
10.8078949,1.40625
10.8150998,1.376953125
10.8498229,1.3525390625
10.8771669,1.3232421875
10.8774523,1.3134765625
10.8934934,1.298828125
10.9293234,1.2890625
10.9340682,1.2744140625
10.9680466,1.2646484375
11.0008117,1.25
11.0010215,1.240234375
11.0122958,1.2255859375
11.0629427,1.2158203125
11.0632346,1.2109375
11.0734738,1.1962890625
11.1103799,1.1962890625
11.1310827,1.2109375
11.1367601,1.26953125
11.1557256,1.3525390625
11.1920679,1.4599609375
11.1966503,1.5625
11.2320686,1.66015625
11.2323887,1.7333984375
11.2536258,1.81640625
11.2952721,1.875
11.2954663,1.923828125
11.3164723,1.953125
11.3521729,1.97265625
11.3574047,1.9677734375
11.4032841,1.953125
11.4034984,1.9140625
11.4143281,1.8701171875
11.4641047,1.826171875
11.4643623,1.787109375
11.4747136,1.7431640625
11.5092026,1.708984375
11.5290943,1.6748046875
11.5357344,1.640625
11.5697,1.6015625
11.5906871,1.5625
11.5932351,1.5283203125
11.6345934,1.4990234375
11.664275,1.4697265625
11.664591,1.435546875
11.6750293,1.40625
11.7129167,1.376953125
11.7170614,1.34765625
11.7575207,1.318359375
11.7578582,1.2939453125
11.7732557,1.2890625
11.8209338,1.2744140625
11.8212355,1.26953125
11.8360862,1.2548828125
11.8707315,1.2451171875
11.8767674,1.2353515625
11.9154068,1.2255859375
11.9156028,1.2109375
11.9568991,1.2109375
11.9573196,1.171875
11.9764378,1.1767578125
12.0112153,1.181640625
12.0138599,1.1962890625
12.0497021,1.2060546875
12.0707513,1.2109375
12.0773649,1.25
12.1125126,1.3232421875
12.1425984,1.4453125
12.1428109,1.5576171875
12.1538275,1.669921875
12.1893547,1.7578125
12.2094722,1.8359375
12.2181934,1.8896484375
12.2372696,1.9384765625
12.2828807,1.962890625
12.2830822,1.9921875
12.2945841,1.9873046875
12.3291376,1.9775390625
12.3337669,1.9580078125
12.368215,1.9140625
12.3878929,1.8701171875
12.3952244,1.8212890625
12.4317973,1.787109375
12.4628794,1.748046875
12.4632163,1.7041015625
12.4735412,1.669921875
12.5075167,1.6455078125
12.5287235,1.6162109375
12.5355386,1.5869140625
12.5708617,1.552734375
12.5760835,1.5185546875
12.6125404,1.484375
12.6331028,1.455078125
12.6333129,1.416015625
12.6793568,1.4013671875
12.6796721,1.376953125
12.7127442,1.34765625
12.717414,1.328125
12.7616303,1.30859375
12.7618854,1.2841796875
12.7773764,1.26953125
12.7981717,1.2646484375
12.8180941,1.25
12.8702853,1.2109375
12.8704931,1.2109375
12.8750075,1.2109375
12.9103285,1.2109375
12.9335927,1.2158203125
12.9377177,1.2109375
12.9583718,1.2060546875
12.9775891,1.201171875
13.0137035,1.201171875
13.04015,1.220703125
13.040368,1.2744140625
13.05393,1.3818359375
13.0901028,1.4990234375
13.1181886,1.62109375
13.1186882,1.7236328125
13.1392552,1.81640625
13.1591128,1.884765625
13.194438,1.9482421875
13.1948168,1.9921875
13.228143,2.041015625
13.2485112,2.0654296875
13.2555558,2.080078125
13.3010446,2.0703125
13.3012583,2.05078125
13.3220822,2.01171875
13.3374599,1.962890625
13.3791274,1.9140625
13.3793283,1.8701171875
13.4090656,1.8310546875
13.4155494,1.796875
13.4516681,1.7578125
13.4796383,1.71875
13.4798903,1.6796875
13.5146544,1.640625
13.5193514,1.5966796875
13.5347124,1.5625
13.5761616,1.5283203125
13.5764346,1.4892578125
13.6016595,1.455078125
13.616951,1.42578125
13.6627393,1.3916015625
13.6629989,1.357421875
13.6823896,1.328125
13.6977615,1.3037109375
13.7318519,1.2744140625
13.7522259,1.2548828125
13.7548298,1.2353515625
13.792076,1.2255859375
13.8213615,1.2109375
13.8216879,1.220703125
13.8702609,1.2060546875
13.8707197,1.201171875
13.8797546,1.1962890625
13.9301019,1.1962890625
13.9305184,1.1865234375
13.9346252,1.19140625
13.968968,1.19140625
13.9889495,1.1865234375
13.9963368,1.2060546875
14.0411211,1.25
14.0413702,1.337890625
14.0722474,1.4453125
14.0782492,1.5625
14.1136262,1.669921875
14.11389,1.767578125
14.1502247,1.845703125
14.1820685,1.9091796875
14.1825277,1.9580078125
14.1988452,1.9970703125
14.2190807,2.0166015625
14.2548255,2.0263671875
14.2864333,2.0166015625
14.2869149,1.9873046875
14.2949769,1.9482421875
14.329619,1.904296875
14.3513276,1.8603515625
14.3580922,1.8115234375
14.3943067,1.767578125
14.3985666,1.728515625
14.4475194,1.689453125
14.4479787,1.6455078125
14.4678842,1.58203125
14.4783454,1.5185546875
14.5247532,1.50390625
14.5249579,1.474609375
14.5396703,1.4453125
14.5895308,1.40625
14.5899239,1.3818359375
14.6012624,1.34765625
14.6381957,1.3134765625
14.6384503,1.2890625
14.6576726,1.259765625
14.7075165,1.2353515625
14.7078452,1.220703125
14.7265997,1.2060546875
14.7397973,1.1865234375
14.7891042,1.1767578125
14.7893057,1.1669921875
14.7998313,1.1572265625
14.8174305,1.1474609375
14.8543369,1.162109375
14.8590989,1.162109375
14.8964346,1.1669921875
14.8967754,1.1669921875
14.9440188,1.162109375
14.9443064,1.1572265625
14.9776585,1.15234375
14.9826925,1.1572265625
14.9977256,1.1865234375
15.0397785,1.2646484375
15.0400885,1.3720703125
15.0872349,1.50390625
15.0874347,1.62109375
15.0997723,1.728515625
15.1364801,1.8115234375
15.1390666,1.8798828125
15.1573544,1.9287109375
15.1939411,1.97265625
15.1969005,1.9873046875
15.2305479,2.001953125
15.2505908,1.9873046875
15.2583368,1.9482421875
15.2935888,1.904296875
15.3265159,1.845703125
15.3267187,1.796875
15.3419309,1.748046875
15.3905672,1.708984375
15.3907627,1.6748046875
15.4207222,1.6455078125
15.4210028,1.611328125
15.4540823,1.58203125
15.4596214,1.5478515625
15.4970893,1.5234375
15.5022302,1.4892578125
15.5411305,1.455078125
15.5413598,1.4306640625
15.5593736,1.3916015625
15.5796164,1.3671875
15.6226541,1.3427734375
15.6228525,1.3232421875
15.6401351,1.2890625
15.6841424,1.26953125
15.6844312,1.25
15.7141503,1.2353515625
15.7184693,1.2109375
15.7599561,1.2109375
15.7601556,1.1962890625
15.8053039,1.1962890625
15.8055124,1.19140625
15.8194019,1.1865234375
15.8547834,1.1767578125
15.8825218,1.181640625
15.8827242,1.1865234375
15.8988683,1.181640625
15.9336153,1.1962890625
15.9549005,1.220703125
15.9601228,1.279296875
15.9939151,1.3720703125
16.0146414,1.4990234375
16.0217691,1.611328125
16.0571691,1.7236328125
16.0573643,1.81640625
16.0769258,1.904296875
16.1124787,1.9677734375
16.145955,2.021484375
16.1463144,2.05078125
16.1594951,2.0654296875
16.1961766,2.0751953125
16.2015017,2.05078125
16.2363028,2.01171875
16.258831,1.9580078125
16.2629853,1.9091796875
16.2788558,1.85546875
16.3184315,1.8115234375
16.3495103,1.7724609375
16.3497741,1.7333984375
16.3608826,1.69921875
16.4107176,1.669921875
16.4109133,1.6259765625
16.4313091,1.591796875
16.4382309,1.552734375
16.4742273,1.5234375
16.495584,1.4892578125
16.501586,1.4599609375
16.536996,1.42578125
16.5414105,1.3916015625
16.5758702,1.3623046875
16.597151,1.3330078125
16.6011822,1.30859375
16.6345546,1.279296875
16.6387192,1.26953125
16.6747489,1.2548828125
16.696874,1.2451171875
16.7016611,1.2353515625
16.7388936,1.2255859375
16.7414535,1.2158203125
16.7781094,1.2109375
16.7783683,1.2060546875
16.813375,1.201171875
16.834656,1.2060546875
16.8404449,1.1962890625
16.8853159,1.1962890625
16.885561,1.19140625
16.9163692,1.1962890625
16.9213054,1.2060546875
16.9623722,1.25
16.9626693,1.318359375
16.9832691,1.40625
17.0001593,1.4990234375
17.0391832,1.6357421875
17.0600013,1.73828125
17.0602303,1.8408203125
17.0995377,1.9091796875
17.1292038,1.9677734375
17.1294192,2.001953125
17.14347,2.03125
17.1779442,2.041015625
17.1998166,2.021484375
17.2001386,1.9970703125
17.2390172,1.9482421875
17.2699329,1.89453125
17.2702725,1.8408203125
17.2833581,1.7919921875
17.3331453,1.73828125
17.3334049,1.6943359375
17.3398678,1.650390625
17.3799736,1.6162109375
17.3802329,1.5771484375
17.4266298,1.552734375
17.4268705,1.513671875
17.4568777,1.474609375
17.4609899,1.4453125
17.4947694,1.4111328125
17.5160095,1.3720703125
17.5206158,1.3330078125
17.557083,1.3134765625
17.5613766,1.2841796875
17.5964933,1.26953125
17.6015966,1.2451171875
17.6369374,1.23046875
17.6582276,1.2158203125
17.6647115,1.2060546875
17.6805483,1.19140625
17.7224771,1.1865234375
17.7228554,1.181640625
17.7415485,1.1767578125
17.7772972,1.171875
17.797903,1.171875
17.8031072,1.1669921875
17.8390574,1.1572265625
17.8417111,1.1572265625
17.8763632,1.15234375
17.8965562,1.1572265625
17.9009041,1.1767578125
17.9356337,1.2451171875
17.9563878,1.337890625
17.9626133,1.4794921875
18.0004454,1.6064453125
18.0025307,1.7236328125
18.0370968,1.81640625
18.058505,1.89453125
18.0605836,1.953125
18.0962114,1.9970703125
18.1161177,2.0361328125
18.120707,2.041015625
18.1625181,2.0361328125
18.1628364,2.001953125
18.1943283,1.9677734375
18.2045798,1.9140625
18.2402383,1.8603515625
18.2404371,1.8115234375
18.2596605,1.77734375
18.2935957,1.7431640625
18.3137123,1.7138671875
18.3245491,1.6748046875
18.3668293,1.640625
18.3670583,1.6064453125
18.3846679,1.5673828125
18.4012321,1.5283203125
18.442762,1.50390625
18.4429727,1.474609375
18.4907883,1.4404296875
18.4909995,1.4111328125
18.5044367,1.3818359375
18.5245966,1.3525390625
18.5450381,1.3232421875
18.5812626,1.3037109375
18.5814634,1.279296875
18.6154304,1.2646484375
18.6350735,1.220703125
18.6426332,1.2255859375
18.6771336,1.2255859375
18.6981133,1.23046875
18.7036406,1.2255859375
18.7252854,1.220703125
18.7608344,1.2255859375
18.7660325,1.2109375
18.8087668,1.2060546875
18.8089676,1.201171875
18.8387823,1.23046875
18.8430746,1.2744140625
18.8776746,1.3671875
18.902868,1.474609375
18.9031249,1.6064453125
18.9484739,1.708984375
18.9488178,1.8212890625
18.9696239,1.89453125
18.9834682,1.97265625
19.0187338,2.021484375
19.0232146,2.0654296875
19.0729885,2.0849609375
19.0731844,2.099609375
19.0834948,2.0849609375
19.1182367,2.0458984375
19.1404483,1.9970703125
19.1407535,1.943359375
19.1828998,1.8896484375
19.1832186,1.845703125
19.2153584,1.8017578125
19.222827,1.7578125
19.2574096,1.71875
19.2789141,1.6796875
19.2851291,1.640625
19.3020652,1.5966796875
19.352983,1.5673828125
19.3532647,1.5283203125
19.36476,1.4990234375
19.4002967,1.46484375
19.4045107,1.4306640625
19.4440428,1.396484375
19.444248,1.3623046875
19.4779194,1.3427734375
19.5061719,1.3134765625
19.5063704,1.2939453125
19.5235144,1.26953125
19.5595928,1.2646484375
19.5639013,1.25
19.5997256,1.2451171875
19.604828,1.23046875
19.6390776,1.2255859375
19.6627879,1.2158203125
19.6669418,1.2109375
19.6824643,1.201171875
19.7301458,1.2060546875
19.7303517,1.2060546875
19.7446177,1.201171875
19.7899682,1.201171875
19.7902793,1.201171875
19.8155633,1.23046875
19.8264985,1.2841796875
19.8622508,1.3818359375
19.8626309,1.4990234375
19.8974286,1.62109375
19.9234357,1.7236328125
19.9237893,1.81640625
19.9612506,1.884765625
19.9654923,1.9580078125
20.0004916,1.9921875
20.0051807,2.0263671875
20.0398413,2.0458984375
20.0591528,2.0361328125
20.0633404,2.0166015625
20.0978256,1.9775390625
20.1194725,1.9287109375
20.1268781,1.8798828125
20.1714738,1.826171875
20.1716827,1.77734375
20.1871001,1.7333984375
20.2037971,1.689453125
20.2519661,1.6552734375
20.252518,1.6162109375
20.2637476,1.58203125
20.2978424,1.54296875
20.3176827,1.50390625
20.324518,1.46484375
20.3605436,1.435546875
20.3794897,1.396484375
20.3872922,1.3525390625
20.4212789,1.318359375
20.4422561,1.2890625
20.4441086,1.2744140625
20.4848362,1.2548828125
20.4851857,1.2451171875
20.5046598,1.23046875
20.5401542,1.2158203125
20.5621346,1.201171875
20.5661905,1.19140625
20.600696,1.1767578125
20.6052638,1.1767578125
20.6405007,1.171875
20.6445446,1.1767578125
20.6859246,1.181640625
20.6861211,1.1767578125
20.7059249,1.171875
20.7427302,1.171875
20.7475647,1.1767578125
20.7639255,1.1962890625
20.7975003,1.259765625
20.8263274,1.34765625
20.8265839,1.484375
20.8616718,1.6064453125
20.8880801,1.7236328125
20.8883807,1.806640625
20.9059548,1.8896484375
20.9395115,1.9384765625
20.9437058,1.9873046875
20.9783999,2.01171875
20.9985884,2.03125
21.0047482,2.021484375
21.0394391,1.9921875
21.0596701,1.9482421875
21.0674072,1.89453125
21.101642,1.845703125
21.1221484,1.796875
21.1282448,1.728515625
21.1458728,1.6748046875
21.1843114,1.66015625
21.1845922,1.6357421875
21.2297098,1.6162109375
21.2299265,1.5869140625
21.2496369,1.5576171875
21.2830924,1.5283203125
21.2878598,1.494140625
21.322762,1.4697265625
21.356073,1.4306640625
21.3562694,1.40625
21.3663772,1.376953125
21.4043022,1.357421875
21.4045451,1.328125
21.4501747,1.30859375
21.4503738,1.2841796875
21.4706243,1.26953125
21.4832558,1.25
21.5208553,1.2548828125
21.5485909,1.2451171875
21.5487959,1.2451171875
21.5826167,1.240234375
21.5871625,1.23046875
21.6216728,1.220703125
21.6422849,1.2158203125
21.6481377,1.2109375
21.6655688,1.2060546875
21.7031911,1.23046875
21.7052486,1.2744140625
21.7507842,1.3623046875
21.7510683,1.474609375
21.7717181,1.6015625
21.7893843,1.7138671875
21.8084707,1.8115234375
21.8256318,1.8896484375
21.8664704,1.9580078125
21.8669409,2.0068359375
21.9037412,2.0458984375
21.9079852,2.060546875
21.9507142,2.0703125
21.9510571,2.060546875
21.9663814,2.021484375
22.0006831,1.97265625
22.0206275,1.9189453125
22.0287426,1.875
22.0472297,1.826171875
22.0675463,1.787109375
22.1121965,1.748046875
22.1123958,1.71875
22.1272977,1.6748046875
22.1721264,1.6357421875
22.1725096,1.5869140625
22.189269,1.5478515625
22.2074077,1.5087890625
22.2441921,1.474609375
22.2444884,1.4404296875
22.2789634,1.4111328125
22.3011506,1.3818359375
22.3061406,1.34765625
22.3413888,1.3232421875
22.3626407,1.298828125
22.3693253,1.2744140625
22.3849826,1.25
22.4237064,1.2353515625
22.4289713,1.2255859375
22.4468065,1.2158203125
22.4827765,1.2109375
22.5161635,1.201171875
22.5166261,1.1962890625
22.5294941,1.201171875
22.5462668,1.19140625
22.5800394,1.1962890625
22.6016365,1.1962890625
22.607227,1.1962890625
22.6285155,1.1962890625
22.6495739,1.2060546875
22.6687757,1.23046875
22.7055453,1.2841796875
22.7074002,1.38671875
22.7489589,1.50390625
22.749244,1.630859375
22.7835355,1.7431640625
22.7859346,1.845703125
22.8218194,1.9140625
22.8419406,1.9775390625
22.8482252,2.021484375
22.8835206,2.05078125
22.903679,2.060546875
22.9100176,2.060546875
22.9457574,2.0361328125
22.9668262,1.9873046875
22.967026,1.93359375
23.0138521,1.8798828125
23.0140567,1.826171875
23.0281152,1.77734375
23.0626743,1.7333984375
23.0847924,1.6943359375
23.090673,1.650390625
23.1075839,1.611328125
23.141799,1.5771484375
23.1460304,1.5478515625
23.181023,1.5087890625
23.2017436,1.4697265625
23.2100823,1.4306640625
23.2477916,1.396484375
23.2480839,1.357421875
23.2929547,1.3232421875
23.2933145,1.2841796875
23.3127501,1.26953125
23.3282573,1.2451171875
23.36988,1.23046875
23.3701984,1.2109375
23.3919253,1.201171875
23.4096152,1.181640625
23.4289048,1.1767578125
23.4462046,1.162109375
23.4945975,1.162109375
23.4949468,1.1572265625
23.5143717,1.162109375
23.5263814,1.15234375
23.5718998,1.1572265625
23.5722545,1.1572265625
23.5917689,1.15234375
23.6255692,1.15234375
23.6296116,1.15234375
23.6657596,1.1376953125
23.6952201,1.181640625
23.6955344,1.2744140625
23.7083118,1.396484375
23.7597425,1.5478515625
23.7599627,1.669921875
23.7690989,1.77734375
23.8035431,1.85546875
23.8243661,1.9287109375
23.8248584,1.9873046875
23.8693663,2.03125
23.8696921,2.0556640625
23.8993798,2.041015625
23.9078541,2.0166015625
23.9424363,1.97265625
23.9630363,1.9189453125
23.9701996,1.8603515625
24.0048802,1.806640625
24.0258977,1.7529296875
24.0262605,1.71875
24.0597215,1.6845703125
24.0804233,1.6650390625
24.0899712,1.6357421875
24.1324002,1.6064453125
24.1326201,1.5771484375
24.1682847,1.54296875
24.1686003,1.50390625
24.212106,1.4794921875
24.2123635,1.4501953125
24.2279974,1.416015625
24.2640971,1.3916015625
24.2846709,1.3623046875
24.2912422,1.337890625
24.3350591,1.3134765625
24.3355681,1.298828125
24.3460455,1.2744140625
24.3840179,1.2646484375
24.4168894,1.2548828125
24.417091,1.25
24.430206,1.240234375
24.4507266,1.2353515625
24.4864189,1.2255859375
24.4894101,1.2158203125
24.5261132,1.220703125
24.5547571,1.2060546875
24.5549786,1.201171875
24.5701781,1.1962890625
24.6164893,1.2109375
24.6167291,1.2353515625
24.6296883,1.3037109375
24.6787581,1.3916015625
24.6792177,1.533203125
24.6997225,1.650390625
24.7126422,1.7724609375
24.7280778,1.8603515625
24.7497658,1.9482421875
24.80221,2.0068359375
24.8024102,2.0556640625
24.8106432,2.0849609375
24.8594347,2.109375
24.8596399,2.109375
24.8716972,2.0751953125
24.8901717,2.0361328125
24.9092246,1.9775390625
24.9526764,1.9287109375
24.9530256,1.8701171875
24.9708752,1.826171875
25.0063531,1.77734375
25.0104795,1.7431640625
25.0543421,1.69921875
25.0545375,1.66015625
25.0757445,1.62109375
25.0901195,1.5966796875
25.1400906,1.5625
25.140348,1.5283203125
25.1506667,1.4990234375
25.2015805,1.4599609375
25.2017878,1.42578125
25.2125129,1.3916015625
25.2481875,1.3623046875
25.279364,1.328125
25.2796822,1.26953125
25.2881737,1.2158203125
25.3246875,1.220703125
25.3577219,1.2158203125
25.3583313,1.2158203125
25.3724591,1.2060546875
25.4156041,1.201171875
25.4158133,1.1962890625
25.4324364,1.1962890625
25.4496822,1.1865234375
25.4945729,1.19140625
25.4947856,1.1962890625
25.5142708,1.19140625
25.5315774,1.19140625
25.5519567,1.181640625
25.5729025,1.181640625
25.5937575,1.181640625
25.6129623,1.2060546875
25.6297469,1.2548828125
25.6667553,1.357421875
25.6708161,1.4794921875
25.7127305,1.62109375
25.7129356,1.7333984375
25.7445056,1.8359375
25.7528452,1.9140625
25.7907732,1.982421875
25.7930269,2.0361328125
25.8270361,2.0654296875
25.8293012,2.08984375
25.8634178,2.0849609375
25.8839559,2.0703125
25.8910633,2.03125
25.933437,1.982421875
25.9337192,1.923828125
25.9530035,1.865234375
25.9707663,1.806640625
25.9909274,1.7626953125
26.0267365,1.71875
26.03163,1.6796875
26.0659148,1.6357421875
26.0884384,1.5966796875
26.0925551,1.552734375
26.1354442,1.5234375
26.135701,1.484375
26.1814783,1.4404296875
26.181808,1.4013671875
26.1902159,1.3623046875
26.2128313,1.328125
26.2479518,1.298828125
26.2531085,1.2744140625
26.2959193,1.25
26.2962007,1.2255859375
26.3131739,1.2060546875
26.3351353,1.1865234375
26.3503851,1.1767578125
26.3870688,1.1669921875
26.4090879,1.162109375
26.4093646,1.1572265625
26.4490467,1.1572265625
26.4511309,1.1474609375
26.485728,1.1474609375
26.5116819,1.1376953125
26.5139509,1.1376953125
26.5290128,1.1279296875
26.5648536,1.1328125
26.5852172,1.1279296875
26.59212,1.1376953125
26.6284488,1.1474609375
26.6331965,1.19140625
26.67173,1.2548828125
26.6720265,1.3720703125
26.690233,1.50390625
26.727319,1.650390625
26.7484674,1.767578125
26.7534208,1.8701171875
26.7902051,1.9482421875
26.7904095,1.9970703125
26.8388982,2.041015625
26.8390967,2.0556640625
26.8682425,2.05078125
26.8714982,2.0263671875
26.904538,1.9921875
26.9257571,1.943359375
26.9306072,1.8896484375
26.9673607,1.8310546875
26.992212,1.7822265625
26.9924678,1.73828125
27.024952,1.69921875
27.0468938,1.6552734375
27.0558376,1.6162109375
27.0975326,1.5869140625
27.0978521,1.5478515625
27.1127606,1.5185546875
27.1493843,1.494140625
27.1516213,1.4697265625
27.1863513,1.435546875
27.2060595,1.40625
27.2135934,1.376953125
27.2527453,1.3525390625
27.2529682,1.3232421875
27.2876067,1.3037109375
27.2916438,1.2890625
27.3267854,1.2744140625
27.3474883,1.259765625
27.3543146,1.2451171875
27.3882101,1.23046875
27.4099064,1.2255859375
27.4160906,1.220703125
27.4321474,1.2060546875
27.4706019,1.2060546875
27.4709019,1.201171875
27.5181527,1.2060546875
27.5183581,1.1962890625
27.5346245,1.1962890625
27.5784411,1.19140625
27.5787495,1.2060546875
27.6089093,1.240234375
27.6117776,1.328125
27.6470156,1.4453125
27.66633,1.591796875
27.6716452,1.7138671875
27.7061204,1.8310546875
27.7275311,1.9287109375
27.7349368,1.9970703125
27.7784961,2.05078125
27.7787638,2.0849609375
27.799451,2.0751953125
27.8112864,2.0556640625
27.8469863,2.0654296875
27.8717482,2.041015625
27.8736715,2.001953125
27.9081004,1.953125
27.9366067,1.904296875
27.9368592,1.8505859375
27.9727752,1.806640625
27.9729841,1.7626953125
28.0167642,1.728515625
28.0169676,1.689453125
28.0338002,1.6552734375
28.0690031,1.62109375
28.0941761,1.5771484375
28.0943747,1.54296875
28.1289853,1.50390625
28.1501152,1.46484375
28.1522121,1.4306640625
28.1876645,1.4111328125
28.2178629,1.3916015625
28.2182065,1.3720703125
28.2319343,1.3427734375
28.2800207,1.3232421875
28.2802238,1.2939453125
28.3102546,1.2841796875
28.3104631,1.2646484375
28.3450289,1.2548828125
28.3716889,1.2548828125
28.3736492,1.2451171875
28.4109042,1.2451171875
28.4179834,1.23046875
28.4333519,1.23046875
28.4824533,1.2158203125
28.4826615,1.220703125
28.5139905,1.2060546875
28.5142098,1.2060546875
28.548357,1.1962890625
28.5691259,1.2060546875
28.5744071,1.2158203125
28.6096371,1.259765625
28.6311506,1.3330078125
28.6356236,1.4501953125
28.6706244,1.572265625
28.691364,1.708984375
28.6967434,1.8212890625
28.7136124,1.8994140625
28.7489842,1.9775390625
28.7750413,2.03125
28.7753633,2.0703125
28.8114981,2.08984375
28.8155761,2.099609375
28.8498098,2.0849609375
28.8703172,2.05078125
28.87349,1.9921875
28.9138131,1.943359375
28.9140972,1.884765625
28.9494405,1.826171875
28.9535208,1.77734375
29.0061632,1.7236328125
29.0063895,1.689453125
29.0172672,1.640625
29.0389552,1.6015625
29.0543971,1.552734375
29.0989106,1.5234375
29.0991782,1.4892578125
29.1146653,1.455078125
29.1504596,1.4111328125
29.1758249,1.376953125
29.1761945,1.3427734375
29.2223199,1.318359375
29.2225983,1.2890625
29.2336863,1.279296875
29.270714,1.259765625
29.2994535,1.2451171875
29.2997367,1.2255859375
29.3178992,1.220703125
29.3531505,1.2109375
29.3578877,1.19140625
29.4068134,1.1865234375
29.4070169,1.1767578125
29.4152704,1.1767578125
29.4339821,1.171875
29.467375,1.1669921875
29.4873711,1.162109375
29.495216,1.1572265625
29.5456704,1.15234375
29.5459264,1.1474609375
29.5760099,1.142578125
29.5762242,1.162109375
29.6118479,1.201171875
29.6121744,1.2939453125
29.6479419,1.42578125
29.6693211,1.5576171875
29.675684,1.6943359375
29.7117233,1.8017578125
29.7324017,1.89453125
29.7378965,1.9580078125
29.7721079,2.01171875
29.7934644,2.0361328125
29.7937363,2.060546875
29.8332075,2.0556640625
29.8540958,2.0361328125
29.856822,1.9921875
29.8937566,1.9384765625
29.8982854,1.8798828125
29.918754,1.826171875
29.9337501,1.77734375
29.9745803,1.7431640625
29.9747742,1.7138671875
30.0073886,1.6796875
30.0294931,1.6455078125
30.0373144,1.611328125
30.0740719,1.5771484375
30.0791978,1.54296875
30.1251121,1.513671875
30.1254268,1.4794921875
30.1349683,1.4501953125
30.1721146,1.4208984375
30.1927904,1.3916015625
30.1971146,1.3623046875
30.2373089,1.34765625
30.2375122,1.3232421875
30.2835205,1.3037109375
30.2840103,1.2939453125
30.3001431,1.2744140625
30.3466788,1.23046875
30.3469543,1.23046875
30.3579225,1.2353515625
30.3935264,1.23046875
30.3958173,1.2353515625
30.4300689,1.23046875
30.4499536,1.2255859375
30.4582918,1.2158203125
30.492153,1.2158203125
30.5132056,1.2109375
30.5157626,1.2353515625
30.5519081,1.279296875
30.5559141,1.3671875
30.5986307,1.474609375
30.5991522,1.62109375
30.6345811,1.7431640625
30.6386693,1.8408203125
30.6755733,1.9287109375
30.6759243,1.9873046875
30.7138223,2.0458984375
30.714018,2.0849609375
30.7513667,2.109375
30.7819022,2.1142578125
30.7821827,2.099609375
30.7980181,2.060546875
30.842805,2.01171875
30.8431466,1.953125
30.874811,1.904296875
30.8751069,1.85546875
30.9211043,1.81640625
30.9213165,1.77734375
30.9537462,1.7333984375
30.9599213,1.6943359375
30.9948699,1.66015625
30.9998636,1.62109375
31.0150207,1.58203125
31.0493721,1.552734375
31.0753511,1.513671875
31.0776023,1.4794921875
31.1136201,1.4404296875
31.1323886,1.4111328125
31.1368036,1.3720703125
31.1711354,1.34765625
31.191349,1.3134765625
31.1997092,1.2890625
31.216496,1.259765625
31.2638695,1.2548828125
31.26408,1.25
31.2772758,1.2353515625
31.3260367,1.23046875
31.3262366,1.220703125
31.341299,1.2109375
31.3761416,1.201171875
31.3803376,1.201171875
31.3959798,1.19140625
31.4315112,1.19140625
31.4523829,1.1865234375
31.4586203,1.1865234375
31.4942764,1.181640625
31.4989336,1.1865234375
31.5347981,1.2060546875
31.5662127,1.2646484375
31.5664693,1.3720703125
31.5748075,1.494140625
31.6138508,1.630859375
31.619082,1.7431640625
31.638106,1.8505859375
31.6747257,1.9287109375
31.7069649,1.9921875
31.7071823,2.0361328125
31.7186098,2.0703125
31.7532315,2.080078125
31.7560684,2.08984375
31.7899993,2.0703125
31.8168465,2.0361328125
31.8171594,1.982421875
31.8615953,1.923828125
31.8617937,1.865234375
31.8809121,1.81640625
31.9148182,1.7724609375
31.9214583,1.71875
31.9420308,1.6455078125
31.9569798,1.58203125
32.0028237,1.5673828125
32.003126,1.5380859375
32.0332756,1.513671875
32.0394017,1.4794921875
32.0779817,1.4453125
32.0799429,1.4111328125
32.1151182,1.376953125
32.1351013,1.3427734375
32.1375771,1.3232421875
32.1713792,1.298828125
32.2033734,1.2744140625
32.2035708,1.2646484375
32.2204758,1.2353515625
32.2408946,1.220703125
32.2764612,1.2060546875
32.3050833,1.2060546875
32.3053082,1.201171875
32.3177372,1.1962890625
32.3528285,1.1962890625
32.3827016,1.1962890625
32.3831838,1.19140625
32.430189,1.19140625
32.4303881,1.181640625
32.4424849,1.1767578125
32.4558036,1.171875
32.5009956,1.1767578125
32.5013406,1.1767578125
32.5208952,1.2060546875
32.5403067,1.26953125
32.559867,1.3671875
32.6089125,1.50390625
32.6091844,1.630859375
32.6204228,1.7529296875
32.637256,1.845703125
32.6855792,1.93359375
32.6858564,1.9921875
32.7023659,2.041015625
32.7195952,2.0654296875
32.7632702,2.0751953125
32.7635273,2.0654296875
32.7803147,2.0361328125
32.8013424,1.9921875
32.8407598,1.904296875
32.8410257,1.8603515625
32.8586592,1.806640625
32.9031558,1.7724609375
32.9033599,1.7333984375
32.9328536,1.7041015625
32.9392083,1.6650390625
32.9734045,1.630859375
32.9956754,1.591796875
33.0022392,1.5576171875
33.0191486,1.5185546875
33.0597088,1.4892578125
33.0599148,1.455078125
33.107202,1.4306640625
33.1075119,1.396484375
33.120848,1.3671875
33.1587942,1.328125
33.1632168,1.30859375
33.1976388,1.2939453125
33.197835,1.26953125
33.2313174,1.2548828125
33.2595235,1.240234375
33.2598134,1.2255859375
33.2808708,1.220703125
33.3253717,1.220703125
33.3257208,1.2109375
33.3418226,1.2060546875
33.3586524,1.1962890625
33.398645,1.201171875
33.3988588,1.1962890625
33.4434641,1.201171875
33.4440712,1.19140625
33.4641161,1.201171875
33.4811043,1.23046875
33.5017833,1.2890625
33.5519787,1.396484375
33.5521841,1.5185546875
33.5721975,1.66015625
33.5787732,1.7724609375
33.6289119,1.8798828125
33.6291699,1.953125
33.6488774,2.0166015625
33.6631395,2.0556640625
33.7060504,2.08984375
33.7062494,2.099609375
33.7232332,2.099609375
33.7408891,2.0654296875
33.7855477,2.0263671875
33.785849,1.9775390625
33.8010117,1.93359375
33.8482181,1.884765625
33.8486818,1.8310546875
33.8677594,1.787109375
33.8823506,1.7431640625
33.9253807,1.708984375
33.9255863,1.6650390625
33.9557939,1.6357421875
33.9607806,1.6064453125
33.9961766,1.5673828125
34.0009806,1.533203125
34.0358231,1.494140625
34.0567911,1.4599609375
34.061574,1.42578125
34.0957014,1.38671875
34.0985983,1.3623046875
34.132421,1.337890625
34.1528428,1.30859375
34.1595275,1.2890625
34.1964425,1.2646484375
34.2179588,1.25
34.2222551,1.23046875
34.2700522,1.2158203125
34.2702485,1.201171875
34.3006845,1.201171875
34.3009507,1.201171875
34.3465284,1.2158203125
34.34674,1.2109375
34.3760372,1.2109375
34.3803245,1.201171875
34.4150609,1.19140625
34.4367532,1.1767578125
34.4434786,1.15234375
34.4641733,1.142578125
34.4814325,1.1572265625
34.5320369,1.259765625
34.5323519,1.38671875
34.5425705,1.54296875
34.593678,1.669921875
34.5939538,1.7919921875
34.6026692,1.884765625
34.6409155,1.962890625
34.641118,2.0166015625
34.6711643,2.0654296875
34.682241,2.08984375
34.7022566,2.109375
34.7433063,2.0947265625
34.7435776,2.0703125
34.7925939,2.021484375
34.7927985,1.962890625
34.8026394,1.8994140625
34.8204806,1.8408203125
34.8570712,1.796875
34.8866043,1.7578125
34.8868037,1.71875
34.9028602,1.6748046875
34.9232042,1.630859375
34.962822,1.5869140625
34.9630847,1.552734375
34.9972648,1.5087890625
34.9993285,1.474609375
35.0332832,1.4404296875
35.0537978,1.4013671875
35.0609421,1.3623046875
35.0945706,1.3330078125
35.1153191,1.3037109375
35.123602,1.26953125
35.1597582,1.25
35.1601113,1.220703125
35.2085964,1.2060546875
35.2088115,1.1865234375
35.2383166,1.181640625
35.2424619,1.162109375
35.2781783,1.15234375
35.2820152,1.142578125
35.3191303,1.1328125
35.3483868,1.123046875
35.3485865,1.1279296875
35.3604831,1.1181640625
35.3979887,1.123046875
35.4020289,1.1279296875
35.4363217,1.123046875
35.4570302,1.123046875
35.4636189,1.123046875
35.5062634,1.15234375
35.5064705,1.1962890625
35.5280939,1.2939453125
35.541812,1.4208984375
35.5844164,1.58203125
35.5846288,1.708984375
35.6187761,1.8310546875
35.6229206,1.9140625
35.6561655,1.982421875
35.6786268,2.0263671875
35.6849056,2.0556640625
35.7020408,2.0703125
35.7410522,2.0751953125
35.7412933,2.0556640625
35.7753363,2.01171875
35.8052274,1.9580078125
35.8055832,1.8994140625
35.8253078,1.8359375
35.8597447,1.787109375
35.8648256,1.748046875
35.8803079,1.708984375
35.9141921,1.6748046875
35.9353651,1.6455078125
35.9407767,1.611328125
35.9761027,1.5771484375
36.0042898,1.5478515625
36.0048342,1.513671875
36.0386592,1.474609375
36.0588804,1.4501953125
36.0609068,1.4111328125
36.0970031,1.38671875
36.1179823,1.318359375
36.1227097,1.30859375
36.1578464,1.2890625
36.1785142,1.2744140625
36.182925,1.2548828125
36.2182599,1.2451171875
36.2434242,1.23046875
36.2437719,1.220703125
36.2887204,1.2109375
36.2890947,1.2109375
36.3025649,1.2060546875
36.3389073,1.201171875
36.3661528,1.1865234375
36.3663837,1.201171875
36.4008522,1.1962890625
36.4049607,1.19140625
36.4246644,1.19140625
36.4577745,1.2109375
36.4630922,1.26953125
36.4999395,1.3671875
36.5042965,1.50390625
36.5408063,1.6357421875
36.5448606,1.7578125
36.5858963,1.85546875
36.5861732,1.9384765625
36.6029801,1.9970703125
36.6391886,2.0556640625
36.6415947,2.08984375
36.6771757,2.109375
36.6994729,2.1142578125
36.7037644,2.0849609375
36.7455368,2.041015625
36.7458204,1.9873046875
36.7706277,1.9287109375
36.7817305,1.875
36.8182201,1.8310546875
36.8458748,1.7822265625
36.8463179,1.748046875
36.8898325,1.7041015625
36.8900873,1.6748046875
36.9045957,1.6357421875
36.9412542,1.5966796875
36.9684716,1.5576171875
36.9687319,1.4892578125
36.9841423,1.455078125
37.0212072,1.435546875
37.0252468,1.4111328125
37.0437522,1.3818359375
37.0870679,1.3525390625
37.0875013,1.3232421875
37.108156,1.2939453125
37.1261817,1.26953125
37.1615776,1.25
37.1959393,1.23046875
37.1961405,1.2158203125
37.2031698,1.2060546875
37.2384342,1.1962890625
37.260343,1.1865234375
37.2649055,1.1865234375
37.2985414,1.1767578125
37.3207618,1.1767578125
37.3262398,1.1767578125
37.3427099,1.1669921875
37.3774603,1.171875
37.3983317,1.171875
37.4048417,1.1767578125
37.4490567,1.181640625
37.4492936,1.201171875
37.4675207,1.2451171875
37.4873149,1.3330078125
37.5028078,1.4453125
37.5403478,1.5966796875
37.5430085,1.71875
37.5775661,1.8359375
37.6024253,1.923828125
37.604324,1.9970703125
37.6370956,2.0458984375
37.6590089,2.0947265625
37.6678393,2.1142578125
37.6844887,2.1142578125
37.7207075,2.1044921875
37.7250419,2.0654296875
37.7651577,2.021484375
37.7654514,1.9580078125
37.8097098,1.904296875
37.8100382,1.8408203125
37.8424769,1.7919921875
37.8469023,1.73828125
37.8899895,1.6943359375
37.8902132,1.6455078125
37.9041848,1.611328125
37.9511494,1.572265625
37.9513476,1.5380859375
37.9712492,1.4990234375
37.9865739,1.4599609375
38.0299083,1.4208984375
38.0303239,1.3818359375
38.062695,1.3525390625
38.0629751,1.318359375
38.0964038,1.2939453125
38.1180688,1.2646484375
38.1255366,1.2451171875
38.1603717,1.2255859375
38.1822863,1.2109375
38.1868179,1.19140625
38.2084445,1.181640625
38.2229711,1.1669921875
38.2648056,1.162109375
38.2651479,1.1572265625
38.2841091,1.162109375
38.319667,1.1572265625
38.340844,1.15234375
38.3478562,1.15234375
38.3875337,1.1474609375
38.3877303,1.142578125
38.4211915,1.1376953125
38.4231224,1.15234375
38.4601609,1.162109375
38.4808142,1.1865234375
38.4854206,1.23046875
38.52774,1.318359375
38.5279516,1.4404296875
38.56325,1.591796875
38.5635137,1.7138671875
38.5930729,1.8310546875
38.6111002,1.8896484375
38.6266378,1.923828125
38.6700964,1.9970703125
38.6703996,2.0361328125
38.6875261,2.0703125
38.7297598,2.060546875
38.729962,2.0458984375
38.7480305,1.9921875
38.7929087,1.943359375
38.7931087,1.875
38.8064239,1.826171875
38.8262191,1.7822265625
38.8475351,1.7431640625
38.8864182,1.7041015625
38.8867452,1.669921875
38.9210877,1.630859375
38.9431549,1.6064453125
38.9497433,1.572265625
38.9654456,1.5380859375
39.0089244,1.513671875
39.0092318,1.484375
39.0445534,1.455078125
39.0447941,1.42578125
39.080403,1.4013671875
39.1016964,1.376953125
39.1080819,1.3525390625
39.1257124,1.3330078125
39.1469612,1.3134765625
39.166945,1.3037109375
39.2043984,1.2939453125
39.204595,1.279296875
39.2429053,1.26953125
39.2635148,1.26953125
39.2667059,1.25
39.3035621,1.240234375
39.3038396,1.2255859375
39.3466724,1.23046875
39.3469053,1.220703125
39.3669358,1.220703125
39.4023996,1.2109375
39.4230691,1.2158203125
39.4273493,1.240234375
39.4762332,1.30859375
39.476536,1.4013671875
39.4901335,1.533203125
39.5055791,1.6552734375
39.540368,1.77734375
39.5701459,1.875
39.5703652,1.953125
39.588381,2.0166015625
39.6332772,2.0458984375
39.6335364,2.0751953125
39.6516312,2.0751953125
39.6693547,2.0654296875
39.686538,2.03125
39.7256635,1.9921875
39.725918,1.9384765625
39.7713414,1.884765625
39.7715425,1.8359375
39.7876309,1.7919921875
39.8327306,1.748046875
39.8330251,1.7138671875
39.8541324,1.6748046875
39.8664247,1.6455078125
39.8867589,1.6162109375
39.9232642,1.5771484375
39.9445324,1.5478515625
39.9487072,1.5087890625
39.9908426,1.484375
39.9910659,1.4453125
40.0393901,1.4111328125
40.0396606,1.376953125
40.0461519,1.357421875
40.0667284,1.328125
40.1171886,1.30859375
40.117479,1.2890625
40.1292459,1.26953125
40.171509,1.2548828125
40.1718568,1.2353515625
40.1861073,1.2255859375
40.2340354,1.220703125
40.2342892,1.2255859375
40.2480072,1.2158203125
40.2973678,1.2158203125
40.297572,1.2060546875
40.3089448,1.201171875
40.3438901,1.1962890625
40.3695834,1.19140625
40.369866,1.1865234375
40.4165136,1.1865234375
40.4168672,1.1962890625
40.4465214,1.2548828125
40.4493953,1.337890625
40.4838827,1.474609375
40.4881924,1.6064453125
40.5381402,1.7333984375
40.538984,1.8505859375
40.5514616,1.923828125
40.6020766,1.9921875
40.6022907,2.03125
40.6082913,2.080078125
40.6486646,2.1044921875
40.6489201,2.1142578125
40.6796801,2.0947265625
40.6908118,2.0654296875
40.7411289,2.0166015625
40.7414512,1.9677734375
40.7472073,1.9091796875
40.7876021,1.865234375
40.7879443,1.81640625
40.8323636,1.77734375
40.8325622,1.7333984375
40.8493045,1.69921875
40.8837666,1.66015625
40.9043965,1.6162109375
40.9110749,1.5771484375
40.9263847,1.5380859375
40.9749305,1.50390625
40.9751491,1.4697265625
41.0037313,1.4404296875
41.009076,1.40625
41.0516377,1.3720703125
41.0518483,1.337890625
41.0716859,1.30859375
41.0911933,1.279296875
41.1121087,1.220703125
41.1281977,1.181640625
41.1687845,1.1865234375
41.1691083,1.19140625
41.2168609,1.181640625
41.2170555,1.1767578125
41.2317478,1.171875
41.2682008,1.171875
41.2728388,1.162109375
41.3089641,1.15234375
41.3093123,1.142578125
41.3441536,1.142578125
41.3481767,1.1376953125
41.3831271,1.1376953125
41.4055884,1.1376953125
41.4108983,1.1474609375
41.4478829,1.171875
41.4498487,1.240234375
41.4673245,1.3330078125
41.5020716,1.4892578125
41.5266261,1.6357421875
41.5292701,1.748046875
41.5646544,1.8505859375
41.5970169,1.923828125
41.5972241,1.982421875
41.6120179,2.021484375
41.6327847,2.05078125
41.6484672,2.0556640625
41.6690013,2.0458984375
41.7171265,2.0166015625
41.7173356,1.9677734375
41.7295752,1.9140625
41.7662053,1.85546875
41.7876733,1.8017578125
41.7919372,1.7529296875
41.8120854,1.7138671875
41.828034,1.669921875
41.8648368,1.6357421875
41.8693906,1.5966796875
41.9059981,1.5673828125
41.9101723,1.5283203125
41.9458324,1.4990234375
41.9683881,1.4599609375
41.9736457,1.4306640625
42.0238492,1.4013671875
42.024054,1.3818359375
42.027803,1.3525390625
42.0654721,1.3330078125
42.0693446,1.3134765625
42.1039112,1.2939453125
42.1277307,1.279296875
42.1335401,1.2646484375
42.1685035,1.259765625
42.1704269,1.240234375
42.2061507,1.2255859375
42.2285461,1.2109375
42.2289606,1.2109375
42.2648989,1.2060546875
42.2700221,1.2060546875
42.3089675,1.2060546875
42.3094168,1.201171875
42.3441945,1.1865234375
42.3654785,1.19140625
42.3698012,1.1865234375
42.4067794,1.2109375
42.4114452,1.2548828125
42.4297341,1.34765625
42.4812767,1.474609375
42.4815976,1.6015625
42.4934693,1.71875
42.5405761,1.81640625
42.540931,1.9091796875
42.5478204,1.9677734375
42.5888177,2.0263671875
42.6199682,2.060546875
42.6201698,2.0849609375
42.6305724,2.0751953125
42.6811869,2.0556640625
42.6814566,2.01171875
42.7038243,1.9580078125
42.7101579,1.904296875
42.7454628,1.8603515625
42.7500921,1.77734375
42.7843004,1.7578125
42.8058148,1.7333984375
42.8119707,1.69921875
42.8336936,1.669921875
42.852671,1.6357421875
42.8901794,1.6015625
42.9200935,1.5625
42.9204663,1.5283203125
42.9301068,1.4892578125
42.9655699,1.4599609375
42.972537,1.42578125
42.9915861,1.396484375
43.0297854,1.3671875
43.0302783,1.3427734375
43.0743116,1.3134765625
43.0745154,1.2890625
43.0954578,1.26953125
43.1089583,1.25
43.143451,1.240234375
43.1694611,1.23046875
43.1696652,1.2255859375
43.1923061,1.2158203125
43.2411525,1.2158203125
43.2414336,1.2109375
43.2616405,1.201171875
43.2692223,1.19140625
43.3083367,1.19140625
43.3271104,1.1865234375
43.3313033,1.19140625
43.3711541,1.19140625
43.3714762,1.2109375
43.4177319,1.2451171875
43.4180752,1.3427734375
43.4380987,1.46484375
43.4504863,1.591796875
43.4951994,1.7236328125
43.4953986,1.826171875
43.5108177,1.9189453125
43.5485326,1.9873046875
43.5510692,2.05078125
43.5858674,2.08984375
43.6079036,2.1142578125
43.6140451,2.119140625
43.6476969,2.109375
43.6695459,2.0703125
43.6698094,2.03125
43.6916659,1.982421875
43.7419795,1.9287109375
43.7422517,1.8798828125
43.7529264,1.8359375
43.7874947,1.7919921875
43.8196833,1.7529296875
43.8202111,1.7236328125
43.8314748,1.6796875
43.8669607,1.650390625
43.8717087,1.611328125
43.9121911,1.5771484375
43.9436896,1.54296875
43.9439866,1.513671875
43.9534108,1.474609375
43.9908025,1.4453125
43.991005,1.40625
44.0359763,1.3818359375
44.036492,1.34765625
44.05353,1.328125
44.100358,1.3037109375
44.1006789,1.279296875
44.1136981,1.259765625
44.1628121,1.2353515625
44.1630946,1.220703125
44.1720853,1.201171875
44.2069244,1.1962890625
44.2114153,1.1865234375
44.2543401,1.1865234375
44.2545992,1.1767578125
44.2755426,1.171875
44.2941024,1.162109375
44.3328999,1.1572265625
44.3331678,1.1474609375
44.352321,1.15234375
44.4020575,1.1669921875
44.402396,1.201171875
44.414043,1.279296875
44.4649481,1.38671875
44.465154,1.533203125
44.4741494,1.650390625
44.5103506,1.767578125
44.5305807,1.85546875
44.5345755,1.9287109375
44.5799551,1.9873046875
44.580158,2.0458984375
44.5919723,2.0751953125
44.6264896,2.099609375
44.6478229,2.08984375
44.6552074,2.0654296875
44.6997433,2.01171875
44.7000422,1.962890625
44.7153986,1.9140625
44.7323681,1.8603515625
44.7676319,1.81640625
44.7723455,1.77734375
44.8070605,1.7431640625
44.8273648,1.7041015625
44.8346497,1.6650390625
44.8696478,1.6259765625
44.8900516,1.5869140625
44.8932564,1.5478515625
44.9308949,1.513671875
44.9328251,1.484375
44.9782183,1.4599609375
44.9784966,1.4208984375
44.9957117,1.396484375
45.0137602,1.3671875
45.0535452,1.3330078125
45.0759627,1.30859375
45.0762653,1.279296875
45.093087,1.26953125
45.1133849,1.25
45.1481892,1.2353515625
45.1528462,1.220703125
45.1870883,1.2109375
45.2182339,1.1962890625
45.2186935,1.19140625
45.2347186,1.1767578125
45.2564024,1.1328125
45.276383,1.1083984375
45.2937831,1.1279296875
45.3425438,1.1328125
45.3429318,1.1474609375
45.353978,1.1572265625
45.3894634,1.171875
45.4178698,1.220703125
45.4182155,1.298828125
45.464183,1.42578125
45.46455,1.552734375
45.4742106,1.689453125
45.493181,1.8017578125
45.5413298,1.89453125
45.5415481,1.9580078125
45.5543936,2.01171875
45.5904121,2.041015625
45.6134727,2.0654296875
45.6137504,2.060546875
45.6469939,2.0458984375
45.668785,2.0166015625
45.6752743,1.9677734375
45.721488,1.9189453125
45.7217505,1.865234375
45.7352559,1.8212890625
45.7708021,1.77734375
45.7758239,1.7431640625
45.7926171,1.7041015625
45.8271263,1.669921875
45.8613474,1.6357421875
45.8616819,1.6015625
45.8738709,1.5673828125
45.9096421,1.533203125
45.9376392,1.494140625
45.9379539,1.4599609375
45.9517184,1.4208984375
45.987005,1.4013671875
46.014104,1.3818359375
46.014495,1.34765625
46.0494441,1.3232421875
46.0689557,1.298828125
46.0768562,1.279296875
46.1121159,1.2548828125
46.1389919,1.2451171875
46.1391901,1.2255859375
46.1850953,1.2109375
46.1852924,1.1962890625
46.1935612,1.19140625
46.2299435,1.1865234375
46.234405,1.1865234375
46.2688974,1.1767578125
46.2923099,1.1767578125
46.2966413,1.181640625
46.3321002,1.171875
46.35546,1.1669921875
46.3556551,1.1669921875
46.3739654,1.1962890625
46.4107468,1.2548828125
46.4327226,1.3671875
46.4368823,1.4990234375
46.4795705,1.6357421875
46.4797678,1.7431640625
46.4989741,1.845703125
46.5133983,1.9189453125
46.551402,1.9921875
46.5563885,2.041015625
46.6009709,2.080078125
46.601228,2.0947265625
46.6157774,2.1142578125
46.6624878,2.0947265625
46.6630763,2.060546875
46.6830832,2.01171875
46.6926947,1.953125
46.7269906,1.904296875
46.7533839,1.8603515625
46.75358,1.8212890625
46.7981571,1.787109375
46.7984641,1.748046875
46.8193558,1.708984375
46.8374255,1.6650390625
46.8532238,1.6259765625
46.8919451,1.5966796875
46.8921542,1.5576171875
46.9264708,1.5234375
46.9532062,1.494140625
46.9534712,1.455078125
46.9907273,1.4208984375
47.0162829,1.38671875
47.0165809,1.3525390625
47.0522065,1.318359375
47.0780306,1.2890625
47.0785155,1.2646484375
47.0946733,1.25
47.1370686,1.2255859375
47.1372796,1.2158203125
47.1701109,1.201171875
47.1770407,1.19140625
47.2156547,1.1767578125
47.2367396,1.1669921875
47.2370774,1.1572265625
47.2724536,1.162109375
47.2771076,1.162109375
47.3255672,1.1572265625
47.3258244,1.1474609375
47.3383195,1.142578125
47.3885935,1.142578125
47.3889906,1.1376953125
47.3984961,1.1474609375
47.4155357,1.1767578125
47.4654523,1.2548828125
47.4656547,1.3623046875
47.4749556,1.5087890625
47.5094587,1.630859375
47.5278916,1.748046875
47.5362665,1.8359375
47.5762222,1.9091796875
47.6069271,1.97265625
47.607292,2.0068359375
47.6154886,2.0361328125
47.6511009,2.041015625
47.6849432,2.041015625
47.6855138,2.001953125
47.6959533,1.9580078125
47.7313824,1.89453125
47.7590419,1.8310546875
47.7593538,1.77734375
47.792694,1.7041015625
47.816154,1.6650390625
47.8164517,1.640625
47.8510182,1.6064453125
47.8728771,1.5771484375
47.8776558,1.54296875
47.9284781,1.5087890625
47.9287377,1.4794921875
47.9583321,1.4404296875
47.9585341,1.40625
48.0063811,1.3720703125
48.0065787,1.34765625
48.0171123,1.3232421875
48.0511006,1.30859375
48.0582096,1.2841796875
48.1006238,1.2646484375
48.1009482,1.25
48.1460064,1.2353515625
48.1463299,1.2158203125
48.1567581,1.2109375
48.1927752,1.2060546875
48.1972875,1.201171875
48.232037,1.1962890625
48.2372939,1.1865234375
48.272104,1.1865234375
48.2930733,1.1767578125
48.2995406,1.1767578125
48.3164963,1.1669921875
48.3362656,1.171875
48.3716066,1.171875
48.376152,1.1767578125
48.4111985,1.181640625
48.433315,1.2255859375
48.4395055,1.2939453125
48.4594605,1.4111328125
48.4751123,1.5380859375
48.5262347,1.669921875
48.5264322,1.77734375
48.5559334,1.875
48.556246,1.9482421875
48.602712,1.9921875
48.6030245,2.0263671875
48.6331663,2.041015625
48.6400937,2.041015625
48.6737448,2.0166015625
48.6935995,1.982421875
48.6993491,1.93359375
48.7173339,1.8896484375
48.7394623,1.8408203125
48.7591725,1.796875
48.7937196,1.7626953125
48.7977502,1.7333984375
48.8325471,1.6943359375
48.8529968,1.6552734375
48.8606695,1.6259765625
48.8758719,1.58203125
48.9126683,1.552734375
48.9346902,1.5185546875
48.9389202,1.4892578125
48.979321,1.455078125
48.9795812,1.42578125
49.0007311,1.38671875
49.0205018,1.3623046875
49.0381261,1.328125
49.0568092,1.3134765625
49.0938169,1.2890625
49.1126199,1.2744140625
49.1188832,1.2548828125
49.157819,1.2451171875
49.1885577,1.2255859375
49.1887563,1.2255859375
49.2011434,1.2255859375
49.2176817,1.2109375
49.2369749,1.2158203125
49.2838289,1.2109375
49.2840893,1.2109375
49.3007454,1.201171875
49.3206571,1.201171875
49.3634949,1.19140625
49.3638129,1.19140625
49.3765606,1.19140625
49.4118238,1.220703125
49.4325131,1.240234375
49.4371301,1.357421875
49.4697563,1.4892578125
49.4951115,1.630859375
49.4991357,1.7626953125
49.5420742,1.8603515625
49.5423219,1.9482421875
49.5739748,2.0068359375
49.5807685,2.060546875
49.5982612,2.080078125
49.6336962,2.1044921875
49.6383351,2.1044921875
49.6744434,2.08984375
49.6969761,2.0458984375
49.7005752,2.001953125
49.7361752,1.943359375
49.7610669,1.8896484375
49.7612672,1.8408203125
49.7793043,1.806640625
49.8197703,1.767578125
49.8200298,1.7333984375
49.8538017,1.69921875
49.8830863,1.6552734375
49.8833825,1.62109375
49.9012665,1.58203125
49.9372604,1.54296875
49.9374706,1.50390625
49.9583505,1.4794921875
50.005769,1.4453125
50.0059952,1.416015625
50.0317166,1.3818359375
50.0401744,1.34765625
50.0779637,1.3232421875
50.0985293,1.298828125
50.0987465,1.26953125
50.136635,1.259765625
50.1369606,1.25
50.1870941,1.23046875
50.1874243,1.2158203125
50.2155521,1.201171875
50.2199084,1.1962890625
50.2646358,1.1865234375
50.2648554,1.1767578125
50.2826766,1.171875
50.3177539,1.162109375
50.3179958,1.1572265625
50.3539245,1.1572265625
50.3850242,1.15234375
50.3852184,1.1572265625
50.4010937,1.1572265625
50.4483316,1.181640625
50.4486134,1.23046875
50.4606331,1.3427734375
50.4953254,1.4794921875
50.515242,1.5966796875
50.5177718,1.7236328125
50.5548804,1.8212890625
50.5866022,1.9091796875
50.5869207,1.9677734375
50.6014177,2.0166015625
50.6380507,2.041015625
50.6423741,2.060546875
50.6594355,2.05078125
50.7082991,2.03125
50.708869,1.9921875
50.7195844,1.953125
50.7552205,1.8994140625
50.7592281,1.845703125
50.7933485,1.8017578125
50.8180731,1.7529296875
50.8226443,1.708984375
50.8641236,1.6650390625
50.8644248,1.6357421875
50.8786806,1.5966796875
50.913778,1.5576171875
50.9429262,1.5234375
50.9431602,1.4892578125
50.9903137,1.4501953125
50.9905575,1.4208984375
50.9990705,1.376953125
51.0345122,1.357421875
51.0547782,1.3330078125
51.0587247,1.318359375
51.0933145,1.2890625
51.1150262,1.2744140625
51.1234519,1.2548828125
51.1417333,1.240234375
51.1908086,1.2255859375
51.1910048,1.2158203125
51.2107323,1.201171875
51.2203094,1.19140625
51.2571127,1.19140625
51.2616518,1.19140625
51.2975472,1.1865234375
51.3023261,1.181640625
51.3218947,1.1767578125
51.369776,1.171875
51.3700668,1.1669921875
51.3798743,1.162109375
51.4139883,1.171875
51.4350001,1.2158203125
51.4410996,1.279296875
51.4897561,1.3916015625
51.4900962,1.5185546875
51.510207,1.66015625
51.5210993,1.7626953125
51.5546868,1.865234375
51.5752549,1.9287109375
51.5799731,1.9921875
51.6156481,2.021484375
51.620655,2.05078125
51.6619876,2.0458984375
51.6624262,2.0361328125
51.6822225,1.9970703125
51.7177685,1.9482421875
51.7360529,1.884765625
51.7384221,1.8505859375
51.7724508,1.8115234375
51.7964037,1.77734375
51.8013148,1.73828125
51.840137,1.7041015625
51.840363,1.6650390625
51.8914985,1.630859375
51.8918957,1.591796875
51.9207454,1.5576171875
51.9233058,1.4990234375
51.9402829,1.4453125
51.9751725,1.435546875
51.9962129,1.4208984375
52.0006237,1.40625
52.0367877,1.3818359375
52.062045,1.3623046875
52.0623392,1.3427734375
52.096404,1.318359375
52.1168578,1.298828125
52.1212295,1.279296875
52.1553398,1.2744140625
52.1760029,1.2646484375
52.180434,1.259765625
52.2141593,1.25
52.2352123,1.2451171875
52.2436188,1.2353515625
52.2923218,1.23046875
52.2927238,1.2158203125
52.3018002,1.2158203125
52.3229413,1.2109375
52.358532,1.2109375
52.3608772,1.2060546875
52.4053324,1.2158203125
52.405533,1.25
52.4254314,1.3134765625
52.4446586,1.4208984375
52.4603958,1.5478515625
52.4995632,1.6796875
52.5196422,1.787109375
52.5222661,1.8896484375
52.5589011,1.962890625
52.5940477,2.021484375
52.5942489,2.060546875
52.6049325,2.0849609375
52.6210602,2.08984375
52.6705482,2.099609375
52.6707532,2.0751953125
52.6821166,2.041015625
52.7185911,1.9921875
52.7249895,1.93359375
52.7585138,1.884765625
52.7632247,1.8408203125
52.7975324,1.806640625
52.8196103,1.7724609375
52.8260759,1.73828125
52.842059,1.69921875
52.8894241,1.6650390625
52.8897433,1.6357421875
52.9030874,1.6015625
52.9510205,1.5625
52.9513134,1.533203125
52.9638125,1.4892578125
52.9979077,1.4599609375
53.0179569,1.4208984375
53.0204268,1.396484375
53.0563001,1.3720703125
53.0758312,1.34765625
53.0831869,1.318359375
53.1184162,1.2939453125
53.1232123,1.2744140625
53.1681313,1.259765625
53.1685248,1.2451171875
53.1886404,1.2255859375
53.2013022,1.220703125
53.2363684,1.2158203125
53.2572919,1.2158203125
53.2635921,1.2060546875
53.2976952,1.2060546875
53.3182826,1.1962890625
53.3242569,1.19140625
53.3607057,1.1962890625
53.3822429,1.181640625
53.3825841,1.1865234375
53.4262513,1.1962890625
53.4265015,1.2451171875
53.444317,1.318359375
53.4857938,1.435546875
53.4860628,1.5576171875
53.5072416,1.6845703125
53.5213712,1.787109375
53.557522,1.8896484375
53.5783239,1.9189453125
53.5823886,1.9873046875
53.6180358,2.0263671875
53.64947,2.0654296875
53.6496703,2.0751953125
53.6633808,2.0751953125
53.6982962,2.041015625
53.7268965,1.9970703125
53.7276382,1.943359375
53.7414209,1.8896484375
53.7745156,1.8408203125
53.7969162,1.796875
53.8043191,1.7578125
53.8521731,1.7236328125
53.8523751,1.689453125
53.8653916,1.6455078125
53.9111687,1.6064453125
53.911418,1.5673828125
53.9421637,1.5380859375
53.9423867,1.50390625
53.9765199,1.4697265625
53.9968472,1.4404296875
54.0035338,1.4013671875
54.0415006,1.3720703125
54.0456729,1.337890625
54.0802126,1.30859375
54.101152,1.2744140625
54.1042515,1.2548828125
54.1396106,1.2353515625
54.1438469,1.2255859375
54.1795347,1.201171875
54.1993645,1.19140625
54.2066048,1.1767578125
54.2428211,1.171875
54.2430339,1.162109375
54.2771696,1.162109375
54.2986847,1.1572265625
54.3049596,1.162109375
54.3527459,1.162109375
54.3529432,1.1572265625
54.3644738,1.15234375
54.4014768,1.142578125
54.4306565,1.142578125
54.431004,1.1572265625
54.4468955,1.2060546875
54.4631582,1.2841796875
54.4981684,1.4208984375
54.5228285,1.5576171875
54.5257519,1.689453125
54.5711155,1.7919921875
54.5713826,1.8798828125
54.5878592,1.9384765625
54.635696,1.9873046875
54.6360905,2.021484375
54.644224,2.0361328125
54.678184,2.0361328125
54.7111828,2.0068359375
54.7113885,1.9677734375
54.7303148,1.9091796875
54.7444544,1.8603515625
54.7770887,1.8017578125
54.7978077,1.7578125
54.8037208,1.71875
54.8532676,1.69921875
54.8535772,1.669921875
54.8644869,1.640625
54.8996289,1.6064453125
54.9199745,1.5771484375
54.9248396,1.54296875
54.9617967,1.513671875
54.9809052,1.484375
54.9837738,1.4501953125
55.0241087,1.435546875
55.0243519,1.4111328125
55.055051,1.38671875
55.0664868,1.3623046875
55.1165812,1.337890625
55.1168014,1.318359375
55.1276797,1.298828125
55.1431542,1.2744140625
55.1938231,1.2646484375
55.1941038,1.25
55.2264343,1.2451171875
55.2267748,1.2353515625
55.2715616,1.23046875
55.2719822,1.23046875
55.2870656,1.2158203125
55.3330274,1.2109375
55.3333393,1.1962890625
55.3633195,1.201171875
55.3636027,1.1865234375
55.4118301,1.1962890625
55.4121184,1.2158203125
55.4306615,1.279296875
55.4468954,1.3671875
55.4878979,1.4990234375
55.4881931,1.6259765625
55.521934,1.748046875
55.5475264,1.845703125
55.547818,1.93359375
55.566387,1.9921875
55.6104153,2.0458984375
55.6106875,2.080078125
55.6290433,2.0947265625
55.6477193,2.0947265625
55.6879122,2.0703125
55.6882242,2.0263671875
55.7076552,1.97265625
55.7436006,1.923828125
55.7444865,1.875
55.7932454,1.8310546875
55.7934413,1.7822265625
55.8234249,1.7431640625
55.8277201,1.7041015625
55.8673288,1.669921875
55.8675337,1.630859375
55.8874751,1.5966796875
55.904558,1.5673828125
55.9400999,1.533203125
55.9588296,1.4990234375
55.9661056,1.4599609375
56.0065265,1.4306640625
56.0067616,1.396484375
56.0522606,1.3623046875
56.0526029,1.328125
56.0725151,1.2744140625
56.0862178,1.220703125
56.1222702,1.2255859375
56.1266307,1.220703125
56.1618044,1.2158203125
56.1852076,1.2060546875
56.1854379,1.1962890625
56.234262,1.181640625
56.2345335,1.1865234375
56.25532,1.181640625
56.2657159,1.171875
56.3117813,1.1669921875
56.3121238,1.1669921875
56.3274055,1.162109375
56.3733308,1.162109375
56.3736919,1.162109375
56.3888658,1.162109375
56.4366968,1.162109375
56.4370387,1.1865234375
56.4455844,1.2548828125
56.483808,1.34765625
56.4883707,1.4892578125
56.5314552,1.6162109375
56.5317358,1.7431640625
56.5496854,1.8505859375
56.5842001,1.923828125
56.5891752,1.9921875
56.6054397,2.03125
56.6400956,2.0703125
56.6723311,2.08984375
56.6726295,2.0947265625
56.6875692,2.0703125
56.7272408,2.0361328125
56.7443107,1.9775390625
56.7493156,1.9287109375
56.7648998,1.8701171875
56.8021069,1.826171875
56.8224836,1.7822265625
56.8274742,1.748046875
56.8467465,1.7041015625
56.888744,1.6748046875
56.8890057,1.640625
56.9221251,1.6015625
56.929698,1.5673828125
56.9675965,1.5283203125
56.9677961,1.4892578125
56.9865616,1.455078125
57.0232239,1.42578125
57.044125,1.396484375
57.048327,1.3671875
57.1008656,1.3330078125
57.1010712,1.3037109375
57.1098698,1.2744140625
57.1482187,1.259765625
57.1485266,1.23046875
57.1670326,1.2158203125
57.2085452,1.2060546875
57.2088039,1.19140625
57.2424262,1.181640625
57.2644547,1.171875
57.2695002,1.1669921875
57.3058474,1.1572265625
57.310984,1.15234375
57.3273307,1.142578125
57.3639233,1.1474609375
57.3663465,1.142578125
57.4003724,1.1474609375
57.4221298,1.142578125
57.4269185,1.1474609375
57.4604327,1.162109375
57.4821905,1.2158203125
57.4873474,1.3037109375
57.5227312,1.4501953125
57.5260141,1.6015625
57.566093,1.71875
57.5664583,1.8310546875
57.6094348,1.9091796875
57.6097583,1.9775390625
57.6554489,2.0166015625
57.6557983,2.05078125
57.6677503,2.0556640625
57.7027267,2.0556640625
57.7080396,2.03125
57.743019,1.9921875
57.7471789,1.9384765625
57.7846869,1.884765625
57.8116767,1.8310546875
57.8118878,1.787109375
57.8563153,1.7529296875
57.8565725,1.708984375
57.8719708,1.669921875
57.8898563,1.6357421875
57.9283779,1.611328125
57.9286525,1.5771484375
57.9642005,1.5478515625
57.9709782,1.513671875
58.0119007,1.4892578125
58.0122784,1.455078125
58.0480209,1.42578125
58.0483106,1.396484375
58.0823115,1.376953125
58.0879252,1.357421875
58.1374769,1.337890625
58.13776,1.3134765625
58.150572,1.2939453125
58.1888203,1.279296875
58.1890264,1.259765625
58.2097174,1.2451171875
58.2445718,1.23046875
58.2486708,1.2255859375
58.2994208,1.220703125
58.2996325,1.2158203125
58.310535,1.2060546875
58.3599225,1.201171875
58.3603336,1.1962890625
58.3719132,1.19140625
58.3870861,1.1865234375
58.4377635,1.2060546875
58.4379908,1.240234375
58.4498632,1.318359375
58.4979443,1.4453125
58.4981424,1.5673828125
58.5098886,1.7041015625
58.5604216,1.8017578125
58.5606198,1.89453125
58.5718075,1.9580078125
58.6086351,1.9873046875
58.60886,2.0263671875
58.6279669,2.0654296875
58.6636329,2.0751953125
58.6856033,2.0751953125
58.6898658,2.041015625
58.7337145,2.001953125
58.7339501,1.9482421875
58.7520447,1.89453125
58.7679739,1.845703125
58.8045055,1.806640625
58.8074604,1.7724609375
58.8409384,1.7333984375
58.8629714,1.69921875
58.8720825,1.66015625
58.9139665,1.6259765625
58.9141667,1.591796875
58.9306432,1.5625
58.9652578,1.5283203125
58.9694373,1.4990234375
59.0075164,1.4697265625
59.0295467,1.4404296875
59.0298232,1.4111328125
59.0699528,1.3818359375
59.0892789,1.34765625
59.0912846,1.3232421875
59.1273753,1.3037109375
59.1481343,1.26953125
59.1484525,1.2548828125
59.1828874,1.240234375
59.2035535,1.23046875
59.2103247,1.2158203125
59.2475868,1.2060546875
59.2521435,1.19140625
59.2892978,1.1865234375
59.289511,1.1767578125
59.3363009,1.1767578125
59.3366554,1.171875
59.3494299,1.171875
59.3994628,1.1669921875
59.3997946,1.1669921875
59.4306736,1.171875
59.4309624,1.2158203125
59.4769017,1.2939453125
59.4771307,1.4013671875
59.4935678,1.54296875
59.5108888,1.6650390625
59.5308124,1.7822265625
59.5516524,1.8798828125
59.5910336,1.9580078125
59.5913449,2.0166015625
59.6393327,2.060546875
59.6396837,2.0849609375
59.6694611,2.099609375
59.6698112,2.0849609375
59.7166049,2.0654296875
59.716805,2.0263671875
59.7454439,1.9775390625
59.7525923,1.923828125
59.7701764,1.865234375
59.8074852,1.81640625
59.8364123,1.767578125
59.8366768,1.7236328125
59.8489519,1.6796875
59.9018661,1.640625
59.9021422,1.6064453125
59.9113445,1.572265625
59.9468043,1.5380859375
59.951472,1.50390625
59.9873159,1.46484375
59.9924251,1.4306640625
60.0112219,1.396484375
60.031051,1.3671875
60.07222,1.337890625
60.0726261,1.318359375
60.1059674,1.2939453125
60.1107938,1.2646484375
60.1449647,1.2451171875
60.1701364,1.220703125
60.1704493,1.201171875
60.2155806,1.1865234375
60.2158842,1.142578125
60.2300244,1.1083984375
60.2641781,1.123046875
60.2843949,1.1279296875
60.2911069,1.1376953125
60.3246843,1.1376953125
60.3459204,1.142578125
60.3531167,1.1328125
60.3880887,1.1328125
60.4089777,1.1376953125
60.4092154,1.1328125
60.4423813,1.15234375
60.4631441,1.201171875
60.471449,1.2890625
60.4920579,1.416015625
60.5267633,1.5625
60.5484153,1.6796875
60.5554945,1.7919921875
60.5714456,1.875
60.6083508,1.953125
60.6131902,1.9970703125
60.654912,2.0361328125
60.6552772,2.05078125
60.6891217,2.05078125
60.6936513,2.0263671875
60.7296011,1.9873046875
60.7347063,1.9384765625
60.7499068,1.884765625
60.7854334,1.8359375
60.8054007,1.7919921875
60.8107797,1.748046875
60.8470498,1.708984375
60.8785677,1.669921875
60.8789092,1.630859375
60.8939954,1.5966796875
60.9113172,1.5625
60.9318567,1.5283203125
60.9513166,1.50390625
60.9886992,1.4892578125
60.9939288,1.46484375
61.0139919,1.4453125
61.0330643,1.42578125
61.0811428,1.396484375
61.081514,1.3720703125
61.0949779,1.34765625
61.1440938,1.3330078125
61.1444359,1.3037109375
61.1650792,1.2890625
61.1718457,1.2744140625
61.2096169,1.26953125
61.2119362,1.2548828125
61.2533298,1.2548828125
61.2844353,1.240234375
61.2846515,1.2353515625
61.2922356,1.220703125
61.3277671,1.220703125
61.3328075,1.2060546875
61.3674135,1.2158203125
61.3725701,1.2109375
61.4081259,1.2109375
61.4411652,1.2451171875
61.441361,1.30859375
61.4558581,1.416015625
61.4728259,1.54296875
61.5074605,1.689453125
61.5135246,1.8017578125
61.5490053,1.8994140625
61.553553,1.9677734375
61.5904689,2.021484375
61.5949798,2.05078125
61.6145904,2.080078125
61.6329389,2.0751953125
61.6518175,2.0703125
61.6856769,2.0458984375
61.7173786,1.9921875
61.7176053,1.943359375
61.732645,1.884765625
61.7684702,1.8408203125
61.7744616,1.7919921875
61.812014,1.7529296875
61.8125937,1.7138671875
61.8333108,1.6845703125
61.8753772,1.6455078125
61.8756933,1.6162109375
61.8928271,1.572265625
61.9365784,1.54296875
61.9367815,1.4990234375
61.9729992,1.46484375
61.9733048,1.42578125
62.0131335,1.40625
62.0153141,1.3818359375
62.0324793,1.3525390625
62.0665364,1.328125
62.0875771,1.30859375
62.0949512,1.2890625
62.1385894,1.2646484375
62.1387875,1.25
62.1547945,1.23046875
62.1973655,1.220703125
62.1976228,1.2060546875
62.2128842,1.2060546875
62.259744,1.1962890625
62.260045,1.201171875
62.292155,1.201171875
62.2923676,1.1962890625
62.3360509,1.1962890625
62.3365071,1.181640625
62.3582713,1.1767578125
62.3729989,1.171875
62.424707,1.201171875
62.424908,1.2548828125
62.4330918,1.357421875
62.4720518,1.4794921875
62.5005639,1.62109375
62.5008532,1.73828125
62.5154726,1.8505859375
62.5323432,1.9287109375
62.5811213,2.0068359375
62.5814407,2.0556640625
62.5958812,2.0947265625
62.6424138,2.1142578125
62.6426208,2.1142578125
62.6550606,2.099609375
62.6895142,2.0556640625
62.7107643,2.0068359375
62.717738,1.943359375
62.7362283,1.85546875
62.7530872,1.806640625
62.7907007,1.7822265625
62.8109049,1.748046875
62.813035,1.7138671875
62.8524878,1.6796875
62.8544554,1.640625
62.8883106,1.5966796875
62.9089647,1.5625
62.9138185,1.5185546875
62.9492835,1.484375
62.9533078,1.455078125
62.9916465,1.42578125
62.9935216,1.396484375
63.0282883,1.3720703125
63.0534964,1.3525390625
63.0556971,1.3232421875
63.0910684,1.30859375
63.1117956,1.279296875
63.1120486,1.2646484375
63.1462496,1.2451171875
63.1676742,1.23046875
63.1764244,1.2158203125
63.1979416,1.2060546875
63.2391275,1.1962890625
63.2393245,1.1865234375
63.2545385,1.171875
63.3026654,1.1767578125
63.3028877,1.1767578125
63.3148685,1.171875
63.3645253,1.171875
63.3648042,1.162109375
63.3751368,1.1669921875
63.4273712,1.181640625
63.4275818,1.2451171875
63.4325402,1.337890625
63.4802466,1.484375
63.4805899,1.62109375
63.4953345,1.7431640625
63.5305706,1.8408203125
63.5365122,1.9287109375
63.5710591,1.9873046875
63.5759181,2.03125
63.6121348,2.0654296875
63.6386176,2.0654296875
63.638927,2.0556640625
63.6561378,2.0166015625
63.7009726,1.9775390625
63.701179,1.9189453125
63.7147726,1.865234375
63.7534687,1.806640625
63.7579193,1.7578125
63.7770571,1.71875
63.7994743,1.6845703125
63.815048,1.650390625
63.8354996,1.62109375
63.8852533,1.5869140625
63.8856332,1.552734375
63.8971752,1.5185546875
63.932302,1.4892578125
63.9362891,1.4599609375
63.9700889,1.42578125
63.9912517,1.396484375
63.9932517,1.3671875
64.0277298,1.34765625
64.0546949,1.328125
64.0550276,1.318359375
64.0907115,1.3037109375
64.1115526,1.2890625
64.1187449,1.26953125
64.1623951,1.2548828125
64.1625916,1.240234375
64.1745239,1.240234375
64.1949879,1.23046875
64.2305015,1.220703125
64.2513131,1.2158203125
64.2582578,1.201171875
64.2791283,1.1962890625
64.2967591,1.19140625
64.3357646,1.19140625
64.3375351,1.1865234375
64.3707467,1.1669921875
64.3746101,1.181640625
64.4095901,1.2890625
64.4391574,1.42578125
64.4393818,1.58203125
64.4569033,1.7041015625
64.4917239,1.81640625
64.4978346,1.8994140625
64.5322199,1.9677734375
64.5527809,2.0166015625
64.5555222,2.060546875
64.6000697,2.0947265625
64.600331,2.0947265625
64.6167916,2.080078125
64.6541414,2.041015625
64.6839659,1.9921875
64.6841835,1.9384765625
64.69706,1.8896484375
64.713822,1.8408203125
64.7475583,1.8017578125
64.7701392,1.767578125
64.7770634,1.7333984375
64.8178538,1.6943359375
64.8184031,1.6650390625
64.856668,1.6259765625
64.8568734,1.5869140625
64.8966008,1.552734375
64.8968571,1.5087890625
64.927229,1.4794921875
64.9358299,1.4501953125
64.9572316,1.4208984375
65.0048066,1.3916015625
65.0051062,1.3623046875
65.0240901,1.3330078125
65.0383694,1.3037109375
65.0550321,1.279296875
65.0912079,1.26953125
65.1134667,1.2548828125
65.1184509,1.2451171875
65.1385292,1.23046875
65.1753149,1.220703125
65.1775629,1.2060546875
65.2125366,1.2060546875
65.2337704,1.1962890625
65.2378378,1.181640625
65.2720537,1.1767578125
65.2948015,1.1669921875
65.2974961,1.1669921875
65.3156759,1.1669921875
65.3566534,1.171875
65.3765846,1.1865234375
65.3794882,1.2451171875
65.4142937,1.337890625
65.4192228,1.4697265625
65.435759,1.6015625
65.4693996,1.7333984375
65.4904917,1.8359375
65.4979701,1.923828125
65.544832,1.9970703125
65.5451742,2.0361328125
65.5586239,2.0751953125
65.60843,2.08984375
65.6086501,2.099609375
65.6158286,2.0751953125
65.6544709,2.0458984375
65.6754656,1.9921875
65.6774552,1.9384765625
65.7127871,1.8798828125
65.733767,1.8310546875
65.7383806,1.7822265625
65.7800211,1.748046875
65.7803005,1.708984375
65.801444,1.6748046875
65.8194471,1.6357421875
65.8369411,1.6064453125
65.8731631,1.572265625
65.9042588,1.5283203125
65.9046101,1.494140625
65.9210714,1.455078125
65.970084,1.4208984375
65.9704002,1.3818359375
65.9772987,1.357421875
65.9978169,1.328125
66.0457476,1.3037109375
66.0461302,1.2744140625
66.0577468,1.25
66.0918366,1.2255859375
66.1246454,1.2109375
66.1250991,1.19140625
66.1406559,1.171875
66.1780191,1.15234375
66.1783609,1.1328125
66.2139358,1.123046875
66.2167135,1.11328125
66.2645933,1.11328125
66.264804,1.103515625
66.2840452,1.103515625
66.3007594,1.09375
66.3436292,1.09375
66.343827,1.0888671875
66.3588013,1.1083984375
66.3934983,1.1474609375
66.4000496,1.23046875
66.4335751,1.34765625
66.4389098,1.4990234375
66.4849434,1.6259765625
66.4851958,1.7529296875
66.5149957,1.85546875
66.5169804,1.9189453125
66.5512769,1.9873046875
66.5766228,2.0263671875
66.5787663,2.0458984375
66.6228691,2.05078125
66.6231674,2.0361328125
66.6382675,1.9921875
66.6728208,1.9384765625
66.7021541,1.875
66.7023792,1.8212890625
66.7174059,1.7724609375
66.7639553,1.7333984375
66.764215,1.6943359375
66.778816,1.6552734375
66.8231614,1.62109375
66.8237753,1.58203125
66.841076,1.552734375
66.8622556,1.513671875
66.8826485,1.455078125
66.897767,1.40625
66.9456825,1.396484375
66.9458866,1.376953125
66.9603487,1.3623046875
66.9978039,1.3427734375
67.0037058,1.3232421875
67.02126,1.298828125
67.0597336,1.279296875
67.0599398,1.259765625
67.0957578,1.25
67.0997806,1.2353515625
67.1351498,1.240234375
67.1399737,1.2353515625
67.1857137,1.23046875
67.1859716,1.220703125
67.215476,1.2109375
67.2222157,1.1962890625
67.2382787,1.1865234375
67.2898593,1.19140625
67.2900664,1.1865234375
67.2991907,1.1865234375
67.3343548,1.1865234375
67.3554748,1.2060546875
67.3603987,1.2646484375
67.4001806,1.3720703125
67.4003787,1.50390625
67.4290392,1.6455078125
67.439301,1.77734375
67.4761027,1.875
67.4961713,1.9580078125
67.5004793,2.01171875
67.5349125,2.0556640625
67.5569276,2.080078125
67.5611585,2.08984375
67.5781097,2.0751953125
67.6156193,2.05078125
67.6175242,2.0068359375
67.6516714,1.962890625
67.6720131,1.904296875
67.6784124,1.85546875
67.7211083,1.8017578125
67.7465635,1.7578125
67.746878,1.7138671875
67.7632329,1.6796875
67.8052218,1.6455078125
67.8055213,1.6015625
67.8216907,1.5673828125
67.856038,1.533203125
67.8622942,1.4990234375
67.8964842,1.4697265625
67.9009271,1.435546875
67.9503896,1.4013671875
67.9506491,1.3720703125
67.9817667,1.337890625
67.9820868,1.3134765625
68.0171899,1.2890625
68.0196418,1.2744140625
68.0536893,1.25
68.074616,1.23046875
68.0811529,1.220703125
68.1176324,1.201171875
68.1239251,1.19140625
68.1405502,1.181640625
68.1855916,1.1865234375
68.1858899,1.1865234375
68.2021915,1.1865234375
68.2467986,1.181640625
68.2470165,1.1767578125
68.2628871,1.1669921875
68.3093803,1.1669921875
68.3099182,1.162109375
68.3204453,1.171875
68.3706617,1.2060546875
68.3708622,1.279296875
68.381386,1.3818359375
68.4318252,1.533203125
68.4321669,1.669921875
68.4420902,1.7822265625
68.4792328,1.884765625
68.4842388,1.953125
68.5037735,1.982421875
68.5206152,1.9970703125
68.5707355,2.05078125
68.570942,2.080078125
68.5801989,2.0849609375
68.6154687,2.0654296875
68.6483864,2.0263671875
68.6486468,1.97265625
68.6662998,1.9189453125
68.6794433,1.865234375
68.7147956,1.81640625
68.735592,1.77734375
68.7406003,1.728515625
68.7750795,1.689453125
68.7960779,1.650390625
68.8032071,1.6064453125
68.8522257,1.5625
68.852483,1.5234375
68.8730021,1.484375
68.8809908,1.4501953125
68.9167685,1.416015625
68.9215661,1.38671875
68.9585304,1.3525390625
68.9634969,1.318359375
69.0070283,1.2890625
69.0072995,1.259765625
69.0183229,1.2255859375
69.0556359,1.2158203125
69.0853616,1.1962890625
69.0855923,1.181640625
69.1018377,1.162109375
69.1369377,1.15234375
69.15838,1.142578125
69.1626503,1.1376953125
69.2134218,1.1376953125
69.2136327,1.1376953125
69.2448857,1.142578125
69.245086,1.142578125
69.2622725,1.142578125
69.3076511,1.142578125
69.3079183,1.142578125
69.3246051,1.1376953125
69.3677644,1.1474609375
69.3679607,1.1962890625
69.383845,1.2646484375
69.432272,1.3818359375
69.4325832,1.5185546875
69.4521606,1.6650390625
69.4627203,1.77734375
69.5069944,1.8798828125
69.5073366,1.943359375
69.5245551,2.001953125
69.5680241,2.0263671875
69.5683099,2.0458984375
69.5825342,2.0361328125
69.6312512,2.021484375
69.6315876,1.9775390625
69.6433358,1.9189453125
69.6926753,1.8505859375
69.6930201,1.796875
69.7024977,1.7431640625
69.73604,1.6943359375
69.7575417,1.650390625
69.7616913,1.6064453125
69.8020361,1.572265625
69.8022366,1.5380859375
69.8481225,1.50390625
69.8484939,1.4697265625
69.8682166,1.435546875
69.8845797,1.4013671875
69.9044143,1.3720703125
69.9195473,1.3427734375
69.9541698,1.328125
69.9865783,1.3134765625
69.9870812,1.3037109375
70.0024642,1.2890625
70.0499856,1.2744140625
70.0501823,1.259765625
70.0789096,1.2451171875
70.0832958,1.240234375
70.1250569,1.23046875
70.1254379,1.2255859375
70.1427785,1.220703125
70.1786485,1.2158203125
70.1826699,1.201171875
70.218644,1.201171875
70.2229234,1.1962890625
70.2567781,1.1962890625
70.2772725,1.19140625
70.2847181,1.1865234375
70.3038895,1.181640625
70.3460919,1.2060546875
70.3464312,1.2646484375
70.363705,1.3525390625
70.3844591,1.484375
70.42332,1.611328125
70.4236728,1.73828125
70.4576459,1.8408203125
70.4866165,1.9287109375
70.4870781,1.9873046875
70.503841,2.0361328125
70.5395758,2.060546875
70.5421073,2.0751953125
70.5787634,2.0654296875
70.5986195,2.0361328125
70.6056664,1.9873046875
70.6410089,1.9287109375
70.6463671,1.875
70.6624564,1.81640625
70.7031245,1.7724609375
70.7036789,1.728515625
70.7238094,1.6943359375
70.7591756,1.66015625
70.7913875,1.6259765625
70.7915866,1.5869140625
70.8073847,1.552734375
70.8225981,1.513671875
70.858917,1.4892578125
70.8630541,1.455078125
70.9149924,1.42578125
70.9155741,1.396484375
70.9253337,1.3671875
70.9612757,1.3330078125
70.9633317,1.318359375
70.9995403,1.2939453125
71.0326324,1.26953125
71.0328908,1.2158203125
71.0431176,1.1767578125
71.0805512,1.1865234375
71.1098502,1.1865234375
71.1100819,1.19140625
71.1231785,1.19140625
71.1576787,1.19140625
71.1795168,1.1865234375
71.1865632,1.1865234375
71.2023288,1.181640625
71.2496177,1.1962890625
71.2499359,1.201171875
71.2792005,1.2060546875
71.283524,1.2109375
71.3180792,1.220703125
71.3375017,1.2646484375
71.3460282,1.337890625
71.3844693,1.46484375
71.3848126,1.591796875
71.420668,1.728515625
71.424833,1.8359375
71.4674681,1.93359375
71.4676669,1.9970703125
71.4868012,2.0556640625
71.5290579,2.08984375
71.5293718,2.109375
71.5412973,2.109375
71.5774135,2.099609375
71.6078067,2.060546875
71.6081766,2.0263671875
71.6239323,1.9677734375
71.6691764,1.9091796875
71.6694222,1.85546875
71.6993639,1.8017578125
71.7055599,1.7578125
71.7394341,1.7138671875
71.7414422,1.6796875
71.7796443,1.6455078125
71.8110644,1.6064453125
71.8113259,1.5625
71.8252331,1.5234375
71.8607045,1.484375
71.8819826,1.4501953125
71.8866546,1.4111328125
71.9326452,1.376953125
71.9331462,1.34765625
71.9531441,1.30859375
71.9644661,1.2841796875
71.9999648,1.259765625
72.0269374,1.2451171875
72.0272808,1.2255859375
72.0609795,1.2109375
72.0813834,1.19140625
72.0858898,1.1767578125
72.104831,1.1572265625
72.1268938,1.1572265625
72.1680122,1.15234375
72.1682496,1.15234375
72.1868745,1.142578125
72.2074062,1.142578125
72.227686,1.1328125
72.263043,1.142578125
72.2672317,1.1376953125
72.3019376,1.1376953125
72.3022092,1.1474609375
72.339735,1.1669921875
72.3603213,1.2255859375
72.3653271,1.318359375
72.3992888,1.455078125
72.4200411,1.591796875
72.4268123,1.7236328125
72.4434643,1.8212890625
72.4782277,1.9140625
72.4989294,1.97265625
72.504555,2.021484375
72.540511,2.0458984375
72.5609357,2.060546875
72.5699239,2.0556640625
72.588034,2.0166015625
72.6250962,1.962890625
72.625447,1.904296875
72.6653251,1.845703125
72.6656121,1.7529296875
72.6999643,1.71875
72.7280383,1.6748046875
72.7283833,1.6455078125
72.7468518,1.611328125
72.7830882,1.5869140625
72.8050146,1.552734375
72.8094297,1.5234375
72.8247716,1.484375
72.8653178,1.4599609375
72.8656062,1.4306640625
72.9007515,1.40625
72.9274479,1.3818359375
72.9276457,1.357421875
72.9618637,1.3330078125
72.9907519,1.30859375
72.9909555,1.2890625
73.0043831,1.26953125
73.0439226,1.2646484375
73.0764157,1.2548828125
73.0767112,1.25
73.0885723,1.2353515625
73.1246834,1.23046875
73.1291208,1.2158203125
73.1656557,1.2158203125
73.1658503,1.1962890625
73.208633,1.19140625
73.208831,1.19140625
73.2256975,1.1865234375
73.2592063,1.181640625
73.2863391,1.181640625
73.2867968,1.201171875
73.3352597,1.2353515625
73.3354576,1.318359375
73.3670003,1.42578125
73.3672003,1.572265625
73.4123911,1.6943359375
73.4125905,1.81640625
73.4271728,1.8994140625
73.4627297,1.97265625
73.4942495,2.01171875
73.4945333,2.0458984375
73.5098291,2.05078125
73.54416,2.021484375
73.5482763,2.0068359375
73.5831306,1.97265625
73.5881667,1.923828125
73.6330037,1.8701171875
73.6332318,1.8212890625
73.6471732,1.77734375
73.6961628,1.7333984375
73.696505,1.6943359375
73.7282136,1.66015625
73.7285283,1.62109375
73.7739792,1.591796875
73.7742371,1.5576171875
73.7867728,1.5283203125
73.8081983,1.494140625
73.8434733,1.4599609375
73.8487295,1.4306640625
73.8984499,1.40625
73.8987752,1.376953125
73.9285373,1.3427734375
73.9288124,1.328125
73.9635007,1.30859375
73.9664791,1.2939453125
74.0070915,1.2744140625
74.0073704,1.259765625
74.0436782,1.2451171875
74.0487615,1.240234375
74.0653515,1.2255859375
74.1150429,1.2255859375
74.1153709,1.220703125
74.1362716,1.2255859375
74.1479866,1.2158203125
74.1832635,1.2158203125
74.1880326,1.2109375
74.2245566,1.2060546875
74.2557693,1.1962890625
74.2561114,1.1962890625
74.2646831,1.2109375
74.3021998,1.2548828125
74.3222656,1.3427734375
74.3265557,1.4599609375
74.3609776,1.6015625
74.3824742,1.7236328125
74.3889805,1.8310546875
74.4235159,1.9140625
74.4441474,1.9921875
74.4444881,2.041015625
74.4811204,2.08984375
74.5020809,2.119140625
74.5061277,2.119140625
74.5436123,2.1044921875
74.5479074,2.0654296875
74.5825431,2.021484375
74.6039024,1.9580078125
74.609272,1.904296875
74.6442849,1.845703125
74.6491433,1.8017578125
74.667783,1.7626953125
74.7070307,1.7236328125
74.7373958,1.689453125
74.7377002,1.650390625
74.748756,1.611328125
74.7828218,1.572265625
74.8048306,1.533203125
74.8050458,1.50390625
74.8474764,1.4794921875
74.8477051,1.4453125
74.8689348,1.4111328125
74.9051718,1.376953125
74.9383098,1.34765625
74.9385877,1.318359375
74.9493245,1.2890625
74.9666218,1.259765625
74.9882159,1.240234375
75.022859,1.220703125
75.02936,1.2060546875
75.0792154,1.19140625
75.0794248,1.181640625
75.089172,1.1669921875
75.1254471,1.1572265625
75.1298987,1.1572265625
75.1648376,1.1474609375
75.1713011,1.1083984375
75.1897897,1.0791015625
75.2081159,1.0986328125
75.2438954,1.1083984375
75.2643714,1.123046875
75.2683319,1.1328125
75.305713,1.1767578125
75.3103307,1.25
75.3630337,1.3818359375
75.3632449,1.5185546875
75.3676572,1.669921875
75.4040367,1.7919921875
75.4345484,1.89453125
75.4348671,1.9677734375
75.4505018,2.03125
75.4838425,2.0703125
75.5050354,2.0849609375
75.5117368,2.08984375
75.5304623,2.0703125
75.5755575,2.0361328125
75.5757585,1.982421875
75.5910908,1.923828125
75.609128,1.865234375
75.6550747,1.806640625
75.6553346,1.7529296875
75.6854609,1.7041015625
75.6875573,1.66015625
75.7230207,1.6259765625
75.7462228,1.5869140625
75.7486787,1.552734375
75.784346,1.5185546875
75.8075349,1.4794921875
75.8105815,1.4453125
75.8448397,1.416015625
75.8704093,1.3916015625
75.8707228,1.3623046875
75.8878326,1.34765625
75.9110474,1.3232421875
75.9477546,1.30859375
75.9506677,1.2890625
75.9861034,1.279296875
75.9907768,1.259765625
76.0251396,1.25
76.045969,1.2353515625
76.0503495,1.2255859375
76.0881821,1.2109375
76.0884397,1.220703125
76.1300386,1.220703125
76.130293,1.2158203125
76.1754679,1.2109375
76.1759804,1.201171875
76.1956334,1.19140625
76.2120109,1.1865234375
76.2466561,1.19140625
76.2692586,1.220703125
76.2694666,1.2890625
76.304221,1.3916015625
76.3254824,1.533203125
76.3321473,1.6552734375
76.3666885,1.787109375
76.3716962,1.8701171875
76.4047272,1.9482421875
76.4259165,2.001953125
76.4283705,2.03125
76.462814,2.0556640625
76.486975,2.0556640625
76.4889325,2.041015625
76.5236882,2.001953125
76.5431328,1.9482421875
76.5523122,1.884765625
76.5853508,1.8310546875
76.6070385,1.77734375
76.6073791,1.7431640625
76.6465222,1.7041015625
76.6755945,1.669921875
76.675789,1.630859375
76.6909318,1.591796875
76.7440206,1.552734375
76.7442515,1.5283203125
76.761233,1.4892578125
76.7676744,1.455078125
76.8031856,1.42578125
76.8245213,1.396484375
76.8314302,1.3720703125
76.8659824,1.34765625
76.8727779,1.328125
76.8926291,1.30859375
76.9384525,1.2841796875
76.9387114,1.2646484375
76.9530356,1.240234375
76.969851,1.220703125
77.0061268,1.2109375
77.0315541,1.201171875
77.0318676,1.1962890625
77.0782071,1.19140625
77.078411,1.1767578125
77.0941087,1.171875
77.1344719,1.1669921875
77.1347751,1.1669921875
77.150459,1.1572265625
77.1701351,1.1572265625
77.1914491,1.1572265625
77.2293415,1.1767578125
77.2295822,1.220703125
77.2777274,1.30859375
77.2779873,1.4208984375
77.3059952,1.572265625
77.3081908,1.6943359375
77.3421047,1.8212890625
77.3633231,1.9091796875
77.3717848,2.001953125
77.40799,2.0654296875
77.4123458,2.1044921875
77.4321191,2.12890625
77.4676048,2.1337890625
77.4912593,2.119140625
77.4915362,2.0751953125
77.5326132,2.03125
77.5328698,1.97265625
77.5790711,1.9140625
77.5793285,1.85546875
77.5934789,1.8017578125
77.6304118,1.7529296875
77.6323939,1.71875
77.6538173,1.669921875
77.7018978,1.5966796875
77.7022064,1.572265625
77.730618,1.533203125
77.7309622,1.50390625
77.7651415,1.4697265625
77.7860356,1.4453125
77.7929121,1.4111328125
77.8400097,1.3818359375
77.8403371,1.3525390625
77.853666,1.328125
77.8721096,1.3037109375
77.9067062,1.2890625
77.9113659,1.26953125
77.9451157,1.2548828125
77.977577,1.240234375
77.9778576,1.220703125
77.9932877,1.201171875
78.0294309,1.1962890625
78.0344942,1.1865234375
78.0505284,1.1669921875
78.0928923,1.162109375
78.0931019,1.15234375
78.1303888,1.15234375
78.1306503,1.1474609375
78.1701074,1.142578125
78.1903418,1.1376953125
78.1925257,1.1328125
78.2094898,1.1328125
78.2443055,1.1474609375
78.278088,1.1865234375
78.2783004,1.279296875
78.2927573,1.3916015625
78.3284513,1.533203125
78.356297,1.6796875
78.3565006,1.787109375
78.3912729,1.8798828125
78.391469,1.9482421875
78.4242922,2.01171875
78.4445939,2.0458984375
78.4561161,2.0703125
78.4734489,2.0654296875
78.5105321,2.0458984375
78.5126983,2.001953125
78.5473372,1.9384765625
78.5679166,1.8701171875
78.5754055,1.806640625
78.5907605,1.7431640625
78.6276363,1.69921875
78.6480768,1.6552734375
78.6527382,1.6259765625
78.6900923,1.591796875
78.695257,1.552734375
78.7353479,1.513671875
78.7355451,1.4794921875
78.7732614,1.4404296875
78.7735181,1.4013671875
78.7929487,1.3818359375
78.8299437,1.357421875
78.8346534,1.3330078125
78.8753753,1.3134765625
78.8756943,1.2890625
78.9099842,1.2646484375
78.9145478,1.2548828125
78.9308216,1.2353515625
78.9692534,1.2255859375
79.0011091,1.2255859375
79.0013137,1.2109375
79.0141523,1.201171875
79.0613691,1.1865234375
79.0618393,1.1767578125
79.0763652,1.1669921875
79.1228412,1.162109375
79.1230456,1.15234375
79.1317909,1.15234375
79.1711192,1.1474609375
79.1713211,1.15234375
79.2177379,1.142578125
79.2180674,1.15234375
79.2391758,1.162109375
79.2569961,1.2060546875
79.2714903,1.2841796875
79.3094383,1.42578125
79.3315119,1.5380859375
79.3318598,1.640625
79.3685032,1.7724609375
79.3889067,1.875
79.3981753,1.9482421875
79.4153198,2.001953125
79.4498236,2.041015625
79.4716414,2.0458984375
79.4769545,2.0361328125
79.4938557,1.9970703125
79.5379775,1.953125
79.5383023,1.89453125
79.5558702,1.8408203125
79.5753463,1.787109375
79.6149706,1.7431640625
79.6154203,1.708984375
79.6603235,1.669921875
79.6606166,1.6357421875
79.6804485,1.6015625
79.6934843,1.5771484375
79.7272422,1.552734375
79.7489359,1.5234375
79.7568626,1.494140625
79.800053,1.4697265625
79.8004062,1.4404296875
79.8162605,1.4208984375
79.8331978,1.3916015625
79.8534034,1.376953125
79.8931642,1.3623046875
79.8935579,1.34765625
79.9266993,1.328125
79.9485726,1.3232421875
79.9553007,1.30859375
79.9898319,1.2890625
80.0105191,1.279296875
80.0126582,1.26953125
80.0478451,1.2646484375
80.0802861,1.259765625
80.0808727,1.259765625
80.0938992,1.2548828125
80.130043,1.25
80.157626,1.2548828125
80.1578308,1.25
80.2049426,1.240234375
80.2052323,1.2548828125
80.2133176,1.2841796875
80.2510276,1.357421875
80.2553637,1.474609375
80.2753071,1.5966796875
80.2947264,1.7236328125
80.3450243,1.826171875
80.3452333,1.9189453125
80.3572681,1.9775390625
80.3917716,2.03125
80.3919708,2.060546875
80.4295735,2.08984375
80.4534364,2.08984375
80.4536575,2.08984375
80.4890341,2.0556640625
80.5169013,2.0166015625
80.5171499,1.9580078125
80.562731,1.8994140625
80.5629306,1.8310546875
80.5741633,1.787109375
80.6085261,1.748046875
80.6304137,1.708984375
80.6345568,1.669921875
80.6695773,1.630859375
80.6886491,1.591796875
80.6953435,1.5576171875
80.7297897,1.5283203125
80.7493495,1.4892578125
80.7534142,1.46484375
80.7887583,1.4306640625
80.8198097,1.40625
80.8200261,1.376953125
80.8359735,1.357421875
80.8710894,1.3232421875
80.8751454,1.3037109375
80.9097417,1.2841796875
80.9315733,1.259765625
80.9379502,1.2451171875
80.9554245,1.1962890625
80.9912809,1.2060546875
80.9973815,1.201171875
81.0344202,1.2060546875
81.0363954,1.1962890625
81.0826199,1.1962890625
81.0833225,1.19140625
81.1033354,1.19140625
81.1149767,1.181640625
81.1578589,1.1865234375
81.1582722,1.1865234375
81.1782089,1.19140625
81.2122661,1.2060546875
81.2171958,1.259765625
81.2660657,1.3427734375
81.2663094,1.4404296875
81.2771398,1.5771484375
81.2938918,1.6943359375
81.3288771,1.8115234375
81.3497805,1.89453125
81.3550218,1.97265625
81.3891868,2.021484375
81.4099986,2.0556640625
81.4168532,2.0654296875
81.4519188,2.060546875
81.4824103,2.041015625
81.4826877,2.0166015625
81.4950104,1.9677734375
81.5437949,1.9189453125
81.5442598,1.8701171875
81.5574417,1.81640625
81.6034858,1.7724609375
81.6037218,1.7236328125
81.6182193,1.6845703125
81.6339075,1.640625
81.6680805,1.6064453125
81.6897116,1.572265625
81.6968805,1.54296875
81.732311,1.50390625
81.7376115,1.474609375
81.7718169,1.435546875
81.7937428,1.40625
81.7978713,1.376953125
81.8188276,1.318359375
81.8369516,1.2646484375
81.8849697,1.26953125
81.8852656,1.259765625
81.896777,1.2548828125
81.9338338,1.2451171875
81.9397272,1.2353515625
81.979197,1.220703125
81.9795759,1.2109375
82.0163452,1.2060546875
82.0166346,1.1962890625
82.0546604,1.19140625
82.0549293,1.19140625
82.0910166,1.1865234375
82.1186446,1.181640625
82.1189715,1.1767578125
82.1641834,1.1669921875
82.1644053,1.162109375
82.1783067,1.1669921875
82.1943792,1.162109375
82.2414578,1.19140625
82.2418153,1.2451171875
82.263291,1.357421875
82.2780923,1.474609375
82.3128075,1.611328125
82.3170233,1.7236328125
82.3523649,1.826171875
82.3719176,1.89453125
82.3748636,1.9677734375
82.4106611,2.001953125
82.43751,2.03125
82.4377184,2.021484375
82.4844362,2.0068359375
82.4846319,1.9580078125
82.5044586,1.9091796875
82.5190828,1.8505859375
82.5346232,1.787109375
82.5680338,1.7431640625
82.5893176,1.7041015625
82.5991119,1.6650390625
82.61919,1.630859375
82.6660169,1.5966796875
82.6662759,1.5625
82.6790649,1.5283203125
82.7242076,1.4990234375
82.7245638,1.4697265625
82.7462537,1.435546875
82.7571084,1.4208984375
82.8090879,1.4013671875
82.8095641,1.3818359375
82.818738,1.3671875
82.8668806,1.3427734375
82.86714,1.328125
82.879542,1.30859375
82.9010554,1.298828125
82.9159992,1.279296875
82.9661832,1.26953125
82.9663832,1.259765625
82.9857946,1.2548828125
82.9986777,1.240234375
83.043437,1.2353515625
83.0436984,1.2255859375
83.0610818,1.220703125
83.0762527,1.2158203125
83.119607,1.2158203125
83.1200995,1.2158203125
83.1363456,1.2158203125
83.1737982,1.220703125
83.1985366,1.2353515625
83.198807,1.2939453125
83.233422,1.3720703125
83.255357,1.494140625
83.2556865,1.6162109375
83.3047397,1.7529296875
83.3049385,1.8505859375
83.3173558,1.9384765625
83.3507906,1.9970703125
83.3716035,2.041015625
83.3779912,2.0556640625
83.4125458,2.0654296875
83.4460072,2.0458984375
83.4463185,2.0166015625
83.4596685,1.9384765625
83.4943106,1.85546875
83.4965587,1.8212890625
83.531329,1.7822265625
83.553274,1.7626953125
83.561231,1.728515625
83.6036174,1.69921875
83.603837,1.6650390625
83.6217355,1.6357421875
83.6376334,1.5966796875
83.6789838,1.572265625
83.6793299,1.5380859375
83.7153654,1.513671875
83.7195624,1.4794921875
83.7399687,1.4501953125
83.7777933,1.416015625
83.7825777,1.396484375
83.8176707,1.3720703125
83.8179266,1.3427734375
83.8523597,1.328125
83.8567601,1.3134765625
83.8933299,1.2939453125
83.9285638,1.2744140625
83.9289092,1.259765625
83.9418714,1.2451171875
83.9614112,1.2353515625
83.9768588,1.23046875
84.0215704,1.2255859375
84.0218413,1.2255859375
84.0419392,1.2255859375
84.0766968,1.2255859375
84.0812171,1.220703125
84.1173024,1.2255859375
84.12171,1.2158203125
84.1405198,1.220703125
84.1755059,1.2255859375
84.1757752,1.2744140625
84.2208896,1.34765625
84.22116,1.4697265625
84.2399539,1.5966796875
84.2837508,1.728515625
84.2840528,1.8310546875
84.3015688,1.9287109375
84.3449983,1.982421875
84.3453949,2.0361328125
84.3566986,2.0654296875
84.3930145,2.0947265625
84.4135886,2.08984375
84.418059,2.080078125
84.4534142,2.041015625
84.4859827,1.982421875
84.4862009,1.923828125
84.5020232,1.865234375
84.5358178,1.806640625
84.5555276,1.7578125
84.5581265,1.7236328125
84.5927341,1.689453125
84.6150029,1.650390625
84.6219492,1.6162109375
84.6580015,1.58203125
84.6623768,1.54296875
84.6818761,1.5087890625
84.6973973,1.4697265625
84.7343244,1.4404296875
84.7648569,1.4208984375
84.7652027,1.3916015625
84.7809341,1.3623046875
84.8178622,1.337890625
84.8224034,1.3134765625
84.8576744,1.2890625
84.860483,1.26953125
84.8797118,1.25
84.8990926,1.240234375
84.9501561,1.2255859375
84.9504815,1.2158203125
84.9621878,1.201171875
85.0117131,1.1962890625
85.0119595,1.181640625
85.0223901,1.1767578125
85.039389,1.162109375
85.0608201,1.1669921875
85.0970387,1.171875
85.0972921,1.162109375
85.1462618,1.162109375
85.1468218,1.1572265625
85.1681237,1.171875
85.181522,1.1962890625
85.2169364,1.26953125
85.2413938,1.3671875
85.2415903,1.50390625
85.2590939,1.630859375
85.3013713,1.7529296875
85.3016375,1.8408203125
85.320663,1.923828125
85.3552038,1.9775390625
85.3779208,2.0166015625
85.3862647,2.0361328125
85.4041374,2.0263671875
85.4390822,2.001953125
85.4393127,1.9580078125
85.4724695,1.9091796875
85.493769,1.845703125
85.5003827,1.787109375
85.5364184,1.73828125
85.5572176,1.69921875
85.5626956,1.6552734375
85.5828977,1.630859375
85.5993556,1.5966796875
85.6517205,1.572265625
85.651927,1.5478515625
85.6627124,1.5185546875
85.6980316,1.484375
85.700942,1.455078125
85.7425885,1.42578125
85.7428515,1.396484375
85.7784453,1.3720703125
85.8113079,1.34765625
85.811565,1.3330078125
85.8197594,1.318359375
85.8571327,1.3134765625
85.8781482,1.298828125
85.8812771,1.2939453125
85.9152879,1.279296875
85.9359197,1.2744140625
85.9430915,1.2646484375
85.9648416,1.2255859375
85.9808733,1.1962890625
86.029689,1.2109375
86.0301785,1.2255859375
86.0399029,1.2255859375
86.0765893,1.23046875
86.0971443,1.2255859375
86.1033593,1.2353515625
86.1384875,1.240234375
86.1426674,1.2841796875
86.1762516,1.34765625
86.1809214,1.4697265625
86.2142273,1.5966796875
86.2345658,1.728515625
86.2416038,1.826171875
86.2612752,1.9189453125
86.2963785,1.9775390625
86.3165015,2.0263671875
86.3187067,2.0458984375
86.3569718,2.0703125
86.3618113,2.0654296875
86.3825452,2.041015625
86.4025347,1.9970703125
86.4263945,1.9384765625
86.443599,1.884765625
86.4918022,1.8310546875
86.4922491,1.7822265625
86.4991582,1.73828125
86.5520698,1.7041015625
86.5524216,1.6748046875
86.5609092,1.6455078125
86.5972334,1.6162109375
86.6165098,1.591796875
86.6226988,1.5625
86.6739756,1.5283203125
86.6741753,1.50390625
86.7015748,1.46484375
86.7017674,1.4453125
86.7365737,1.416015625
86.7636641,1.396484375
86.7639545,1.3671875
86.7996121,1.34765625
86.804703,1.318359375
86.8394606,1.3037109375
86.8731146,1.2841796875
86.8734532,1.26953125
86.8810778,1.2548828125
86.9148612,1.2451171875
86.9352089,1.2451171875
86.9433021,1.240234375
86.9785632,1.23046875
86.9825762,1.2255859375
87.0182125,1.2158203125
87.0385961,1.2060546875
87.0455406,1.201171875
87.0618227,1.1962890625
87.0956307,1.2060546875
87.1172021,1.23046875
87.123539,1.2939453125
87.1655512,1.396484375
87.165871,1.5283203125
87.2000988,1.6552734375
87.2290249,1.77734375
87.229237,1.875
87.2430705,1.962890625
87.2892078,2.021484375
87.2895491,2.0654296875
87.3013375,2.1044921875
87.3377565,2.109375
87.366478,2.109375
87.3668543,2.0751953125
87.400994,2.0361328125
87.4012312,1.9775390625
87.4363356,1.93359375
87.4608421,1.8798828125
87.4630305,1.8359375
87.4975899,1.787109375
87.5181416,1.748046875
87.5237498,1.7041015625
87.5631956,1.669921875
87.5635235,1.630859375
87.5987584,1.5966796875
87.6029976,1.5283203125
87.6509379,1.5185546875
87.6511777,1.50390625
87.6656618,1.4794921875
87.7129117,1.455078125
87.71323,1.42578125
87.7253889,1.4013671875
87.7610221,1.376953125
87.7651735,1.3525390625
87.7832534,1.318359375
87.8030096,1.3037109375
87.8395725,1.279296875
87.8695341,1.2646484375
87.8697361,1.25
87.8838345,1.240234375
87.9201453,1.2255859375
87.927378,1.2109375
87.9633744,1.2109375
87.9636461,1.19140625
87.9842732,1.1865234375
88.0039818,1.181640625
88.0435836,1.181640625
88.0437867,1.171875
88.0890611,1.171875
88.0894229,1.171875
88.1101523,1.201171875
88.1216716,1.2548828125
88.1684222,1.3623046875
88.1686786,1.4892578125
88.1885342,1.630859375
88.2040505,1.7431640625
88.2244135,1.8505859375
88.246092,1.9189453125
88.2810904,1.9873046875
88.3129004,2.0263671875
88.3131025,2.0458984375
88.3237575,2.0654296875
88.3596658,2.060546875
88.3651063,2.03125
88.4041601,1.982421875
88.4044647,1.923828125
88.4390537,1.8603515625
88.4606123,1.806640625
88.4674521,1.7578125
88.5109781,1.6845703125
88.511183,1.650390625
88.5226274,1.6259765625
88.5564315,1.5966796875
88.5782886,1.5673828125
88.5850862,1.5380859375
88.6232081,1.50390625
88.625983,1.4697265625
88.6606807,1.4404296875
88.6860869,1.416015625
88.6862827,1.3818359375
88.7048979,1.3623046875
88.7476794,1.3427734375
88.7479115,1.328125
88.7648538,1.3037109375
88.8005635,1.2841796875
88.8213653,1.259765625
88.8262425,1.25
88.8441309,1.2353515625
88.8642435,1.23046875
88.8840718,1.220703125
88.9212151,1.220703125
88.9255402,1.2109375
88.9770605,1.1962890625
88.9772797,1.1865234375
88.9858787,1.1767578125
89.0197782,1.1669921875
89.0409887,1.1572265625
89.0432257,1.162109375
89.084063,1.1669921875
89.0842631,1.19140625
89.1057319,1.2548828125
89.1422286,1.3671875
89.1468461,1.4990234375
89.1834533,1.640625
89.1836587,1.748046875
89.2181782,1.85546875
89.2232179,1.943359375
89.2580919,1.9921875
89.2787299,2.03125
89.2859832,2.041015625
89.3201593,2.0458984375
89.3412332,2.0166015625
89.3455009,1.9775390625
89.3825163,1.9189453125
89.4036815,1.865234375
89.403916,1.8017578125
89.4502956,1.767578125
89.4504936,1.728515625
89.4668519,1.6943359375
89.5020352,1.6552734375
89.5074175,1.6259765625
89.5537571,1.591796875
89.5540867,1.5625
89.5815635,1.5234375
89.5851733,1.4892578125
89.6236413,1.46484375
89.623915,1.4404296875
89.6595971,1.416015625
89.6859397,1.3916015625
89.6861343,1.376953125
89.721403,1.3623046875
89.7415173,1.34765625
89.74368,1.3232421875
89.7799054,1.30859375
89.8105014,1.2939453125
89.8107589,1.2841796875
89.8264193,1.2744140625
89.8727437,1.2646484375
89.8729806,1.2548828125
89.8876846,1.240234375
89.9361923,1.2353515625
89.9363942,1.220703125
89.9657581,1.220703125
89.965959,1.2158203125
90.0123643,1.2158203125
90.0125852,1.220703125
90.0427174,1.259765625
90.0472893,1.3232421875
90.0819233,1.4404296875
90.1044697,1.5673828125
90.1089379,1.669921875
90.1264015,1.7578125
90.1747253,1.8701171875
90.1749427,1.953125
90.1861883,2.0263671875
90.2196402,2.0751953125
90.241195,2.0947265625
90.24739,2.1044921875
90.2861213,2.08984375
90.2863157,2.0556640625
90.3315908,2.0068359375
90.3319467,1.9580078125
90.345593,1.904296875
90.3823943,1.85546875
90.4021131,1.806640625
90.4069787,1.7626953125
90.4415288,1.728515625
90.4633843,1.689453125
90.4636973,1.650390625
90.5011839,1.6162109375
90.5326263,1.5869140625
90.5329159,1.552734375
90.5475195,1.5185546875
90.595392,1.484375
90.595653,1.455078125
90.6119312,1.4208984375
90.6285913,1.3916015625
90.6461651,1.3623046875
90.6653404,1.337890625
90.7065185,1.3232421875
90.706731,1.30859375
90.7371123,1.2841796875
90.7477377,1.26953125
90.7829288,1.25
90.78878,1.2353515625
90.8233031,1.220703125
90.8235016,1.2158203125
90.8603375,1.2109375
90.885779,1.201171875
90.8860349,1.1962890625
90.9209656,1.1865234375
90.9429544,1.1865234375
90.9478472,1.1767578125
90.9954594,1.171875
90.9956863,1.1669921875
91.0245046,1.1962890625
91.0248086,1.2451171875
91.060804,1.357421875
91.0904968,1.4892578125
91.0908,1.630859375
91.1240458,1.7431640625
91.128146,1.845703125
91.1644896,1.93359375
91.184132,1.982421875
91.1911277,2.03125
91.2079058,2.05078125
91.2447116,2.0751953125
91.2452595,2.0703125
91.286494,2.05078125
91.2866938,2.001953125
91.3247252,1.953125
91.3459661,1.8896484375
91.3505467,1.8359375
91.3660827,1.7822265625
91.4179736,1.7431640625
91.4181902,1.7041015625
91.4285188,1.669921875
91.4661898,1.630859375
91.4664056,1.5966796875
91.5123308,1.5625
91.5125487,1.5185546875
91.5428769,1.4892578125
91.5473275,1.4453125
91.5896196,1.416015625
91.5899009,1.3818359375
91.6083706,1.3623046875
91.6501277,1.3330078125
91.650383,1.30859375
91.6835476,1.2841796875
91.7122212,1.2548828125
91.7124406,1.2353515625
91.7305817,1.23046875
91.7477801,1.181640625
91.7919871,1.181640625
91.7921952,1.19140625
91.8087544,1.1865234375
91.8524408,1.1865234375
91.8527436,1.1767578125
91.8878154,1.1767578125
91.8880342,1.162109375
91.9310948,1.162109375
91.9312934,1.15234375
91.9612332,1.162109375
91.9675508,1.15234375
92.004074,1.1669921875
92.0381955,1.1865234375
92.0383916,1.2548828125
92.0497534,1.34765625
92.1005041,1.4892578125
92.1008153,1.611328125
92.1079412,1.7431640625
92.1472154,1.8505859375
92.147494,1.9189453125
92.1905589,1.97265625
92.1909252,2.0068359375
92.2216797,2.03125
92.231568,2.03125
92.2673207,2.0166015625
92.2678761,1.9775390625
92.3050757,1.9287109375
92.3097144,1.875
92.3279014,1.81640625
92.3752956,1.767578125
92.3755658,1.7236328125
92.4050173,1.6845703125
92.4101193,1.6455078125
92.4548874,1.62109375
92.4551709,1.5771484375
92.4846006,1.5478515625
92.488841,1.513671875
92.5311887,1.4892578125
92.5315083,1.455078125
92.5658717,1.42578125
92.5708777,1.396484375
92.6091455,1.3671875
92.6094587,1.337890625
92.6559238,1.318359375
92.6561196,1.298828125
92.6769528,1.2841796875
92.6888147,1.26953125
92.7319456,1.259765625
92.7321585,1.2451171875
92.7791573,1.2451171875
92.7793549,1.240234375
92.7921142,1.23046875
92.8286703,1.23046875
92.8289553,1.2158203125
92.8702636,1.2109375
92.870605,1.2060546875
92.8926661,1.1962890625
92.9111727,1.1865234375
92.9456576,1.181640625
92.9503783,1.1865234375
92.988998,1.220703125
92.9891965,1.2890625
93.0257709,1.416015625
93.031189,1.552734375
93.0490766,1.6796875
93.090396,1.7919921875
93.0907079,1.875
93.1251475,1.943359375
93.1292049,1.9775390625
93.1638021,2.0068359375
93.1953628,2.0166015625
93.195705,2.0263671875
93.2087775,2.001953125
93.2591218,1.9677734375
93.2593484,1.9091796875
93.2888838,1.8603515625
93.2930908,1.8017578125
93.3104356,1.7578125
93.328246,1.71875
93.3672736,1.6845703125
93.367482,1.6455078125
93.4031632,1.6162109375
93.4291662,1.58203125
93.4315026,1.5478515625
93.4661739,1.5234375
93.4778763,1.484375
93.4935824,1.4599609375
93.533249,1.4208984375
93.5337353,1.3916015625
93.5487351,1.357421875
93.5960008,1.3330078125
93.5962173,1.318359375
93.6088066,1.298828125
93.6468142,1.2744140625
93.6740467,1.2548828125
93.6743863,1.2353515625
93.6933045,1.2255859375
93.7105333,1.2158203125
93.7464306,1.201171875
93.7482834,1.1962890625
93.7844626,1.201171875
93.8053695,1.220703125
93.8098898,1.220703125
93.8425433,1.220703125
93.8643979,1.2158203125
93.8733682,1.220703125
93.8909565,1.2158203125
93.9345201,1.23046875
93.934859,1.25
93.9492342,1.30859375
93.9954268,1.4013671875
93.9956417,1.533203125
94.0285821,1.650390625
94.0314138,1.7822265625
94.0727374,1.8896484375
94.0732489,1.9580078125
94.0950227,2.0263671875
94.1101036,2.0703125
94.1311017,2.099609375
94.1825528,2.1142578125
94.1830449,2.109375
94.1916132,2.0947265625
94.2113335,2.041015625
94.2461589,1.9873046875
94.2532221,1.89453125
94.270923,1.81640625
94.3063497,1.796875
94.3109697,1.767578125
94.3442487,1.7431640625
94.365781,1.7138671875
94.3721633,1.6748046875
94.4102242,1.640625
94.4132362,1.6015625
94.4550695,1.572265625
94.4552661,1.5380859375
94.471237,1.5087890625
94.5184219,1.4794921875
94.5186701,1.455078125
94.5319755,1.42578125
94.554021,1.4013671875
94.5726342,1.3720703125
94.612578,1.34765625
94.6127901,1.318359375
94.6578671,1.3037109375
94.6582025,1.279296875
94.6701627,1.2744140625
94.7065822,1.2548828125
94.7382096,1.240234375
94.738492,1.220703125
94.7541978,1.2109375
94.7896133,1.1962890625
94.7898268,1.1865234375
94.8261967,1.19140625
94.8471927,1.1865234375
94.8524096,1.181640625
94.893685,1.171875
94.8940966,1.1669921875
94.9159842,1.1669921875
94.9338411,1.181640625
94.9502569,1.220703125
94.989353,1.30859375
94.9895588,1.4453125
95.0314655,1.5771484375
95.0316642,1.7041015625
95.078726,1.806640625
95.0790271,1.8994140625
95.1097589,1.962890625
95.1118519,2.0166015625
95.146684,2.041015625
95.1674626,2.060546875
95.1695013,2.0556640625
95.2040868,2.0458984375
95.2240207,2.0068359375
95.2325042,1.953125
95.267328,1.8896484375
95.2714371,1.8310546875
95.3064761,1.7724609375
95.3271381,1.7333984375
95.3341841,1.6943359375
95.3499907,1.650390625
95.3889535,1.62109375
95.4093147,1.5869140625
95.4117716,1.552734375
95.4495911,1.513671875
95.4546686,1.484375
95.4739177,1.4453125
95.5162835,1.416015625
95.516601,1.376953125
95.5371493,1.357421875
95.5508429,1.3330078125
95.5847104,1.318359375
95.6069256,1.2939453125
95.6150139,1.279296875
95.6347213,1.2646484375
95.6559634,1.2451171875
95.704002,1.2255859375
95.7043147,1.2060546875
95.7112069,1.201171875
95.7505855,1.1962890625
95.7532153,1.19140625
95.7889557,1.181640625
95.8119302,1.1767578125
95.8142687,1.1669921875
95.849699,1.171875
95.8694928,1.162109375
95.8768156,1.162109375
95.8922583,1.1279296875
95.9371362,1.1474609375
95.9373569,1.181640625
95.9535079,1.2646484375
95.9893865,1.38671875
96.0143859,1.5234375
96.0145885,1.66015625
96.0489243,1.767578125
96.0702777,1.8603515625
96.0704787,1.9189453125
96.1133068,1.982421875
96.1135672,2.0166015625
96.1438249,2.041015625
96.1524786,2.0361328125
96.189474,2.0166015625
96.2222261,1.9677734375
96.2224795,1.9189453125
96.2311366,1.865234375
96.2648875,1.8115234375
96.2850415,1.7724609375
96.2921608,1.7333984375
96.3267741,1.69921875
96.3488358,1.66015625
96.355179,1.6552734375
96.3932927,1.6064453125
96.3935201,1.5625
96.439527,1.5185546875
96.4398198,1.4892578125
96.4523354,1.455078125
96.4999166,1.435546875
96.5002828,1.4013671875
96.5143611,1.3818359375
96.5613367,1.3525390625
96.5617235,1.3330078125
96.5919581,1.3037109375
96.5922954,1.3037109375
96.6286618,1.2890625
96.632583,1.2744140625
96.6699922,1.2548828125
96.7000219,1.2451171875
96.7002211,1.23046875
96.7146816,1.220703125
96.7504056,1.2109375
96.7780915,1.201171875
96.7783122,1.19140625
96.7937745,1.1865234375
96.8387531,1.1865234375
96.8390538,1.181640625
96.8564199,1.1962890625
96.8755213,1.2109375
96.9155474,1.2548828125
96.9158875,1.3427734375
96.9380771,1.4599609375
96.9562701,1.6015625
96.9728813,1.7236328125
97.0075278,1.8408203125
97.028253,1.923828125
97.0357566,1.9970703125
97.0566051,2.041015625
97.1004941,2.080078125
97.1008316,2.08984375
97.1162984,2.099609375
97.1329118,2.0751953125
97.1668207,2.041015625
97.186949,1.9921875
97.195576,1.93359375
97.2391029,1.875
97.2392997,1.8310546875
97.255058,1.787109375
97.3035834,1.7431640625
97.3038087,1.69921875
97.3124467,1.66015625
97.3480675,1.6259765625
97.3534339,1.591796875
97.3895219,1.5625
97.394588,1.533203125
97.4306991,1.4990234375
97.4347404,1.4599609375
97.468215,1.42578125
97.5020583,1.3916015625
97.5023517,1.376953125
97.5145901,1.3525390625
97.5487011,1.328125
97.5686845,1.3037109375
97.5748203,1.279296875
97.6110182,1.2646484375
97.6156018,1.240234375
97.6483892,1.2255859375
97.6702777,1.2060546875
97.6801801,1.19140625
97.6932684,1.181640625
97.7297914,1.181640625
97.7338415,1.171875
97.7673891,1.171875
97.7895432,1.1669921875
97.7967662,1.1669921875
97.8442174,1.1572265625
97.844597,1.15234375
97.8641734,1.142578125
97.8740651,1.171875
97.9235467,1.2158203125
97.9238355,1.2841796875
97.937044,1.4013671875
97.9561163,1.533203125
97.9777487,1.669921875
98.0157832,1.787109375
98.0160439,1.8896484375
98.0516788,1.962890625
98.0519617,2.021484375
98.0890808,2.0703125
98.1088745,2.099609375
98.1157644,2.109375
98.1506227,2.109375
98.1717788,2.0849609375
98.1780798,2.0361328125
98.2167114,1.982421875
98.2169737,1.923828125
98.2504294,1.8701171875
98.25571,1.826171875
98.2952464,1.7822265625
98.2955408,1.73828125
98.3376965,1.69921875
98.3378986,1.6552734375
98.3716345,1.6162109375
98.3922893,1.572265625
98.397306,1.5087890625
98.4144917,1.4453125
98.4652489,1.4306640625
98.4655323,1.40625
98.4769841,1.38671875
98.5268606,1.357421875
98.5270661,1.337890625
98.5393255,1.3232421875
98.574846,1.2939453125
98.5790036,1.2744140625
98.5952944,1.2451171875
98.615599,1.23046875
98.6525487,1.2158203125
98.6567396,1.2060546875
98.6952913,1.19140625
98.6955447,1.181640625
98.7290268,1.171875
98.7499081,1.162109375
98.7540064,1.15234375
98.7906545,1.1474609375
98.7948814,1.15234375
98.8342922,1.1474609375
98.8547203,1.15234375
98.857429,1.142578125
98.8926151,1.1474609375
98.9117348,1.1669921875
98.918489,1.23046875
98.9356397,1.318359375
98.9561531,1.4599609375
98.9757245,1.5966796875
99.0199252,1.728515625
99.0201967,1.8310546875
99.0372778,1.9140625
99.0730616,1.9677734375
99.1054907,2.01171875
99.1056943,2.03125
99.1150841,2.0458984375
99.153496,2.03125
99.1852313,2.001953125
99.185474,1.953125
99.1997168,1.8896484375
99.2182618,1.8310546875
99.2608601,1.77734375
99.2611681,1.728515625
99.2956007,1.6845703125
99.2996661,1.650390625
99.3180211,1.611328125
99.3546012,1.58203125
99.3548238,1.552734375
99.4011467,1.5185546875
99.4016847,1.484375
99.4305849,1.455078125
99.437481,1.4208984375
99.4771065,1.3916015625
99.498114,1.3720703125
99.4983351,1.337890625
99.5479037,1.3232421875
99.548199,1.3037109375
99.559275,1.2890625
99.5787826,1.26953125
99.6235025,1.2548828125
99.6237225,1.240234375
99.6383846,1.23046875
99.6543248,1.2158203125
99.7015081,1.2158203125
99.7017223,1.2109375
99.7230963,1.2109375
99.7384763,1.201171875
99.7781751,1.1962890625
99.7783735,1.1865234375
99.8156029,1.19140625
99.8177156,1.1865234375
99.8512594,1.181640625
99.8555177,1.1962890625
99.8902594,1.23046875
99.9116648,1.30859375
99.9224829,1.4208984375
99.9389514,1.572265625
99.986105,1.6943359375
99.9863038,1.8115234375
99.9958282,1.8994140625
100.0315597,1.97265625
100.0364138,1.9873046875
100.0714647,2.041015625
100.0906529,2.0654296875
100.0974699,2.0751953125
100.1323068,2.0654296875
100.1656859,2.021484375
100.1659614,1.97265625
100.1798361,1.9140625
100.2004242,1.8603515625
100.2177787,1.806640625
100.2666173,1.767578125
100.2669128,1.728515625
100.2797805,1.6943359375
100.3290708,1.66015625
100.3293908,1.630859375
100.3399879,1.5869140625
100.3754612,1.552734375
100.3965524,1.513671875
100.3968943,1.4892578125
100.4377973,1.455078125
100.4382779,1.4404296875
100.474691,1.4111328125
100.4791066,1.376953125
100.5296109,1.3525390625
100.529871,1.3232421875
100.5405263,1.298828125
100.5583835,1.26953125
100.5772178,1.259765625
100.6132876,1.2451171875
100.6176944,1.2353515625
100.6692029,1.220703125
100.6694639,1.2060546875
100.6784433,1.19140625
100.7145222,1.1865234375
100.714756,1.1767578125
100.7387798,1.1767578125
100.7733682,1.1767578125
100.77771,1.1669921875
100.8120392,1.1669921875
100.8325252,1.162109375
100.8390829,1.1669921875
100.8732477,1.1767578125
100.8941488,1.23046875
100.900492,1.3037109375
100.9389571,1.4306640625
100.9391574,1.5625
100.9579074,1.7041015625
100.992948,1.8115234375
101.0182829,1.9140625
101.0184893,1.9775390625
101.055187,2.03125
101.06016,2.0556640625
101.0965267,2.0849609375
101.1268214,2.0849609375
101.1270189,2.0556640625
101.1380056,2.03125
