fs,t,y
50.668416348575555,0.19359789999999988,1.455078125
,0.2137901000000002,1.484375
,0.23256999999999994,1.552734375
,0.2684137,1.6259765625
,0.2730006999999999,1.69921875
,0.3096846000000002,1.748046875
,0.3156243999999999,1.787109375
,0.3334790999999999,1.8115234375
,0.36717900000000014,1.8408203125
,0.37274850000000015,1.8505859375
,0.3929265000000002,1.85546875
,0.41405920000000007,1.8505859375
,0.4513788000000001,1.8310546875
,0.45378810000000014,1.806640625
,0.49047209999999986,1.787109375
,0.4949772000000001,1.767578125
,0.5113599,1.7578125
,0.5483592000000002,1.7529296875
,0.5511149999999998,1.7431640625
,0.5914638999999999,1.7333984375
,0.5922450000000001,1.7236328125
,0.6283484000000001,1.7138671875
,0.6493215000000001,1.69921875
,0.6782933,1.6845703125
,0.6955138000000001,1.669921875
,0.6961583,1.6552734375
,0.7122087000000001,1.640625
,0.7482489999999999,1.630859375
,0.7528527,1.6162109375
,0.8013273000000001,1.6064453125
,0.8016584,1.6015625
,0.8165886000000002,1.591796875
,0.8632607000000001,1.58203125
,0.8639161,1.5771484375
,0.8724500000000002,1.572265625
,0.9103102000000001,1.5673828125
,0.9121896999999999,1.5576171875
,0.9336312000000002,1.5478515625
,0.9699838000000001,1.54296875
,0.9722274999999998,1.5576171875
,1.0090968999999999,1.62109375
,1.0327685999999998,1.6943359375
,1.0647938,1.767578125
,1.0652281000000001,1.8212890625
,1.0725246,1.865234375
,1.1085669,1.8896484375
,1.1140674000000002,1.9189453125
,1.1346675,1.9287109375
,1.1539763,1.93359375
,1.1889337000000002,1.93359375
,1.2093067999999998,1.9189453125
,1.2157996,1.89453125
,1.2315531000000002,1.875
,1.2673947,1.8603515625
,1.2740709,1.8505859375
,1.2943183999999999,1.8408203125
,1.3282929,1.8310546875
,1.3498337,1.8212890625
,1.3549395,1.8115234375
,1.394393,1.8017578125
,1.3949951,1.787109375
,1.4145564,1.77734375
,1.4331296,1.7626953125
,1.4541347999999998,1.748046875
,1.4909947,1.7333984375
,1.4936618,1.7138671875
,1.5317037999999998,1.7041015625
,1.5361030000000002,1.689453125
,1.5543455000000002,1.6748046875
,1.5744064999999998,1.6650390625
,1.6112055,1.66015625
,1.6118434000000001,1.650390625
,1.6499880999999998,1.650390625
,1.6531666999999999,1.640625
,1.6903175,1.630859375
,1.6955087999999998,1.6162109375
,1.7356432000000002,1.6064453125
,1.7362992,1.5966796875
,1.7571075999999999,1.591796875
,1.7968924999999998,1.6162109375
,1.7974937999999998,1.6748046875
,1.813739,1.7578125
,1.8577914999999998,1.8212890625
,1.8584785,1.8798828125
,1.8916577,1.9189453125
,1.8989539,1.953125
,1.9158624,1.97265625
,1.9533432,1.9921875
,1.9538308,1.9970703125
,1.9749116,1.9970703125
,1.9943382,1.982421875
,2.0303075,1.962890625
,2.0341249,1.943359375
,2.0770241,1.93359375
,2.0776861,1.923828125
,2.0965723,1.9189453125
,2.1322286999999998,1.9140625
,2.1330183,1.904296875
,2.1685228,1.8994140625
,2.1730814,1.8896484375
,2.209351,1.875
,2.2329103999999997,1.8603515625
,2.235855,1.845703125
,2.2732336,1.8310546875
,2.2761579999999997,1.81640625
,2.2928808,1.8017578125
,2.3135193000000003,1.7919921875
,2.3358188,1.77734375
,2.3701122999999997,1.767578125
,2.3754283000000003,1.7578125
,2.4095690999999997,1.7529296875
,2.4298495000000004,1.748046875
,2.4382371000000003,1.73828125
,2.4577716,1.728515625
,2.4774065,1.7138671875
,2.515879,1.7041015625
,2.5162927,1.689453125
,2.5573873999999996,1.6796875
,2.5577936,1.6748046875
,2.5771287999999997,1.6796875
,2.5974983,1.71875
,2.6319187,1.796875
,2.6514688,1.865234375
,2.6570335,1.93359375
,2.6731584,1.9775390625
,2.7063772999999998,2.0166015625
,2.7270122,2.05078125
,2.7380502,2.0703125
,2.7566563000000004,2.0849609375
,2.790941,2.08984375
,2.8110668,2.0849609375
,2.8200529000000003,2.0703125
,2.8392048,2.0556640625
,2.8557248,2.0458984375
,2.9010048,2.041015625
,2.9017891999999996,2.041015625
,2.9164277,2.041015625
,2.9369464,2.0361328125
,2.9583699,2.03125
,2.9757985,2.0166015625
,3.0127322000000003,2.0068359375
,3.0131240999999997,1.9921875
,3.0564612,1.982421875
,3.0725138999999997,1.9677734375
,3.0798227000000002,1.9580078125
,3.0967086999999998,1.943359375
,3.1329822,1.9287109375
,3.1347838,1.9140625
,3.1700432000000003,1.904296875
,3.1963992,1.8896484375
,3.1968313999999998,1.8798828125
,3.2349952999999996,1.8701171875
,3.2353750999999997,1.85546875
,3.2720493,1.845703125
,3.2763039999999997,1.8310546875
,3.2980675,1.8212890625
,3.3326851,1.806640625
,3.3380082,1.8017578125
,3.3740007,1.8115234375
,3.3777112999999996,1.85546875
,3.4297826000000002,1.9287109375
,3.4301038000000004,1.9921875
,3.4378795,2.0556640625
,3.4572522,2.099609375
,3.4933078999999996,2.138671875
,3.4990854000000002,2.16796875
,3.5176366000000003,2.1875
,3.5547171000000004,2.2021484375
,3.5599619999999996,2.20703125
,3.5755017000000002,2.2021484375
,3.5958566000000003,2.1875
,3.6168414,2.177734375
,3.6386996,2.1728515625
,3.6570042000000003,2.1630859375
,3.6948040000000004,2.1630859375
,3.6995147,2.158203125
,3.7201060999999997,2.1484375
,3.7389422999999997,2.138671875
,3.7568450999999996,2.1240234375
,3.7766707999999998,2.109375
,3.7967161999999997,2.0947265625
,3.8330667,2.0751953125
,3.8638364000000003,2.060546875
,3.864339,2.041015625
,3.8789285,2.021484375
,3.9148283,2.0068359375
,3.9175743,1.9873046875
,3.9548777,1.97265625
,3.9552781,1.9580078125
,3.9929137,1.943359375
,3.9979361000000004,1.9287109375
,4.0188049,1.9140625
,4.0550932,1.89453125
,4.0569513,1.8798828125
,4.095191,1.8603515625
,4.1005772,1.845703125
,4.1352896,1.8310546875
,4.1358083,1.8408203125
,4.1751106,1.89453125
,4.1757401,1.9677734375
,4.2121897,2.0458984375
,4.232187,2.109375
,4.2371318,2.16796875
,4.2704996,2.2119140625
,4.290864,2.2509765625
,4.2951638,2.2802734375
,4.3322065,2.3095703125
,4.3374001,2.3193359375
,4.3588971,2.3193359375
,4.3782981,2.3095703125
,4.39948,2.2998046875
,4.4211816,2.2900390625
,4.4400562,2.2802734375
,4.4582196,2.275390625
,4.4769783,2.2705078125
,4.4956423,2.265625
,4.5431453,2.2509765625
,4.54355,2.236328125
,4.5562942,2.2216796875
,4.5922004,2.2021484375
,4.6200379,2.1826171875
,4.6204456,2.158203125
,4.6394969,2.138671875
,4.681774,2.119140625
,4.6821666,2.1044921875
,4.6957179,2.0849609375
,4.7301949,2.0654296875
,4.7502718,2.0458984375
,4.7581741,2.0263671875
,4.7972049,2.01171875
,4.7975896,1.9921875
,4.838717,1.97265625
,4.8391031,1.953125
,4.8599213,1.9287109375
,4.8799738,1.9140625
,4.8994984,1.89453125
,4.9186416,1.875
,4.9399932,1.8701171875
,4.9581957,1.9140625
,5.0094006,1.9873046875
,5.0097421,2.0703125
,5.0289457,2.1484375
,5.0384111,2.2119140625
,5.0594398,2.2705078125
,5.0794314,2.3193359375
,5.0996911,2.3583984375
,5.1491475,2.392578125
,5.1498505,2.412109375
,5.1611175,2.4169921875
,5.1964766,2.4072265625
,5.1968582,2.3974609375
,5.2330413,2.3876953125
,5.2385605,2.3779296875
,5.2760945,2.3681640625
,5.27886,2.3583984375
,5.3167821,2.34375
,5.3177341,2.3291015625
,5.3534722,2.3095703125
,5.3748689,2.2900390625
,5.3816975,2.265625
,5.4026741,2.236328125
,5.4195386,2.2119140625
,5.4398175,2.1875
,5.459058,2.158203125
,5.4935613,2.1337890625
,5.5142546,2.109375
,5.5223994,2.0849609375
,5.5409993,2.060546875
,5.5777404,2.0361328125
,5.5781183,2.01171875
,5.6151213,1.9921875
,5.6178131,1.9677734375
,5.6568496,1.943359375
,5.6614949,1.9189453125
,5.6953627,1.8896484375
,5.7007609,1.865234375
,5.7371527,1.845703125
,5.7682815,1.8408203125
,5.768679,1.8798828125
,5.7800628,1.9580078125
,5.7999116,2.041015625
,5.8361201,2.119140625
,5.8416885,2.1875
,5.862244,2.24609375
,5.8818193,2.294921875
,5.9025262,2.333984375
,5.9374802,2.36328125
,5.9566341,2.3779296875
,5.9570277,2.3828125
,5.9956638,2.373046875
,6.0007546000000005,2.3583984375
,6.0202676,2.3486328125
,6.0407286,2.333984375
,6.0621119,2.32421875
,6.082084099999999,2.314453125
,6.1201066,2.2998046875
,6.1245803,2.2802734375
,6.138698099999999,2.2607421875
,6.161675000000001,2.236328125
,6.1804407,2.2119140625
,6.2022645,2.1826171875
,6.222364300000001,2.1533203125
,6.2413945,2.1240234375
,6.278378,2.08984375
,6.2834202,2.060546875
,6.3032802,2.03125
,6.3184319,1.9970703125
,6.3530458,1.9677734375
,6.3732234000000005,1.943359375
,6.3803418,1.9140625
,6.4143474000000005,1.884765625
,6.434522599999999,1.85546875
,6.443057700000001,1.826171875
,6.4637262,1.796875
,6.4798808,1.7724609375
,6.514071700000001,1.7529296875
,6.521693300000001,1.73828125
,6.560192600000001,1.7626953125
,6.5607196000000005,1.8359375
,6.594457200000001,1.9189453125
,6.6144543,2.01171875
,6.622009800000001,2.0849609375
,6.6696191,2.1533203125
,6.6700514,2.2021484375
,6.680017100000001,2.255859375
,6.7011787,2.2900390625
,6.721882300000001,2.314453125
,6.741658599999999,2.3193359375
,6.761419,2.314453125
,6.798494399999999,2.2998046875
,6.8026876000000005,2.28515625
,6.8399654000000005,2.275390625
,6.842378200000001,2.265625
,6.858929,2.2509765625
,6.902958099999999,2.236328125
,6.9034417999999995,2.2216796875
,6.9219209,2.197265625
,6.9574476999999995,2.1728515625
,6.9624872,2.1435546875
,6.9994867,2.1142578125
,7.0042147,2.0849609375
,7.025361500000001,2.0556640625
,7.039805100000001,2.0263671875
,7.0786234,1.9970703125
,7.086660999999999,1.9677734375
,7.102943700000001,1.9384765625
,7.150011599999999,1.9091796875
,7.1505232,1.8798828125
,7.163600499999999,1.8505859375
,7.1991704,1.8212890625
,7.2041308,1.7919921875
,7.2211791000000005,1.7626953125
,7.256969700000001,1.7431640625
,7.2615514,1.7236328125
,7.2979020000000006,1.71875
,7.3006586,1.7529296875
,7.336457299999999,1.8310546875
,7.3656972,1.9189453125
,7.3660836,2.0068359375
,7.3822256,2.080078125
,7.417818199999999,2.1533203125
,7.422605000000001,2.2119140625
,7.442539,2.2607421875
,7.4626000999999995,2.294921875
,7.483652599999999,2.3193359375
,7.504474399999999,2.32421875
,7.5524986,2.3193359375
,7.552888299999999,2.3095703125
,7.564767,2.2998046875
,7.6004281,2.28515625
,7.600828399999999,2.275390625
,7.638427,2.265625
,7.644131399999999,2.24609375
,7.663307,2.2265625
,7.683426300000001,2.2021484375
,7.7201054,2.1728515625
,7.7252025,2.1435546875
,7.745077800000001,2.109375
,7.760843100000001,2.0751953125
,7.7811802,2.0458984375
,7.817756899999999,2.01171875
,7.822968100000001,1.9775390625
,7.8594031,1.943359375
,7.8640972,1.9091796875
,7.884745199999999,1.8798828125
,7.905006,1.845703125
,7.9266334,1.81640625
,7.9407298,1.7822265625
,7.988505099999999,1.7529296875
,7.9888846000000004,1.71875
,8.0076357,1.6943359375
,8.0250222,1.689453125
,8.045164,1.7333984375
,8.0632671,1.8115234375
,8.1011684,1.9140625
,8.1018743,2.0068359375
,8.1207284,2.0947265625
,8.1562516,2.16796875
,8.1766213,2.2412109375
,8.1842264,2.2998046875
,8.2197665,2.34375
,8.2225661,2.373046875
,8.2577363,2.3876953125
,8.2780527,2.3828125
,8.2857417,2.373046875
,8.3052918,2.3681640625
,8.3230181,2.3583984375
,8.3573075,2.3486328125
,8.3645696,2.333984375
,8.4044941,2.314453125
,8.4050808,2.2900390625
,8.43882,2.2607421875
,8.4440404,2.2314453125
,8.4798577,2.1923828125
,8.4863388,2.1533203125
,8.5019556,2.1142578125
,8.5368059,2.0751953125
,8.5573416,2.0361328125
,8.5660602,2.001953125
,8.5840068,1.9677734375
,8.621304,1.9287109375
,8.6239215,1.89453125
,8.6608509,1.8603515625
,8.6612453,1.826171875
,8.6966032,1.796875
,8.7174904,1.7578125
,8.7233345,1.7236328125
,8.7761763,1.6943359375
,8.7767718,1.669921875
,8.7851942,1.6845703125
,8.8062329,1.7529296875
,8.8417741,1.85546875
,8.8421311,1.953125
,8.8765472,2.0556640625
,8.8970599,2.1435546875
,8.9039505,2.2265625
,8.9243155,2.294921875
,8.9621525,2.3583984375
,8.9650403,2.40234375
,8.9996663,2.4267578125
,9.0196034,2.4365234375
,9.026302,2.4267578125
,9.041988,2.4169921875
,9.0790114,2.4072265625
,9.0852466,2.392578125
,9.1195729,2.3779296875
,9.1252519,2.3583984375
,9.1623818,2.333984375
,9.1641609,2.3046875
,9.2114529,2.2705078125
,9.2118725,2.236328125
,9.2228393,2.197265625
,9.2604276,2.158203125
,9.2623587,2.1142578125
,9.299052,2.0751953125
,9.3218166,2.0361328125
,9.3265107,1.9921875
,9.346583,1.9482421875
,9.3687736,1.9140625
,9.38368,1.875
,9.4045436,1.8359375
,9.4244629,1.8017578125
,9.4579346,1.7626953125
,9.4781026,1.7236328125
,9.4850257,1.6845703125
,9.5077775,1.650390625
,9.5423047,1.630859375
,9.5483731,1.6552734375
,9.5650068,1.728515625
,9.5851324,1.8359375
,9.6065016,1.9384765625
,9.6272234,2.041015625
,9.6450183,2.1240234375
,9.6661994,2.20703125
,9.7000557,2.2705078125
,9.7212232,2.3291015625
,9.7283312,2.36328125
,9.7488381,2.3828125
,9.7860417,2.3828125
,9.7866921,2.3681640625
,9.803107,2.3583984375
,9.8475676,2.3388671875
,9.8479892,2.32421875
,9.8685281,2.3046875
,9.8871195,2.275390625
,9.9081171,2.24609375
,9.928773,2.2119140625
,9.9443705,2.1728515625
,9.9647879,2.1337890625
,9.9849546,2.08984375
,10.0056892,2.0458984375
,10.0275657,2.001953125
,10.0627276,1.953125
,10.0653277,1.9091796875
,10.1007888,1.865234375
,10.1224841,1.8212890625
,10.1244292,1.7822265625
,10.1429994,1.748046875
,10.1801336,1.708984375
,10.2027032,1.669921875
,10.2085307,1.630859375
,10.2280109,1.5966796875
,10.2488514,1.5625
,10.2675416,1.54296875
,10.2851668,1.572265625
,10.3188728,1.6552734375
,10.3391645,1.7578125
,10.345775,1.875
,10.3802908,1.9677734375
,10.3855248,2.060546875
,10.4208771,2.1435546875
,10.4410587,2.20703125
,10.4490463,2.2607421875
,10.4845827,2.2900390625
,10.4891273,2.3046875
,10.5052545,2.2998046875
,10.5265455,2.2900390625
,10.5772317,2.275390625
,10.5778801,2.255859375
,10.5871321,2.2412109375
,10.636936,2.2216796875
,10.6373453,2.1923828125
,10.6483088,2.1630859375
,10.66503,2.12890625
,10.7021126,2.0947265625
,10.7068715,2.05078125
,10.7285082,2.01171875
,10.7475476,1.9677734375
,10.7686962,1.923828125
,10.7871811,1.8798828125
,10.8243549,1.8359375
,10.828676,1.796875
,10.8456964,1.7529296875
,10.8664133,1.71875
,10.8865062,1.6845703125
,10.907191,1.640625
,10.9278861,1.6015625
,10.9653949,1.5576171875
,10.9659108,1.5234375
,11.0029638,1.4990234375
,11.023399,1.5087890625
,11.0238256,1.58203125
,11.0602861,1.6943359375
,11.0807931,1.8017578125
,11.0858695,1.923828125
,11.1237246,2.0263671875
,11.129259,2.1240234375
,11.1635474,2.2021484375
,11.1713699,2.275390625
,11.1905515,2.32421875
,11.2090871,2.353515625
,11.2260984,2.3583984375
,11.2468852,2.353515625
,11.281712,2.3388671875
,11.2868352,2.32421875
,11.3227018,2.3046875
,11.3273284,2.28515625
,11.3637062,2.2607421875
,11.3697371,2.2314453125
,11.3915169,2.197265625
,11.4060693,2.158203125
,11.4435056,2.119140625
,11.4460715,2.080078125
,11.4842063,2.0361328125
,11.4890258,1.9873046875
,11.5400467,1.9384765625
,11.5406943,1.8896484375
,11.550114,1.845703125
,11.5675867,1.8017578125
,11.588221,1.7626953125
,11.6069229,1.7236328125
,11.6440568,1.6845703125
,11.649008,1.6455078125
,11.6703515,1.6064453125
,11.6885286,1.5625
,11.7255669,1.5234375
,11.7299261,1.4892578125
,11.7458741,1.4794921875
,11.7828386,1.533203125
,11.7860791,1.62109375
,11.8228422,1.7529296875
,11.8285702,1.8798828125
,11.8481445,2.001953125
,11.8697839,2.1044921875
,11.8909107,2.2021484375
,11.9255636,2.28515625
,11.9300077,2.353515625
,11.9475493,2.4072265625
,11.9668304,2.4365234375
,12.0022462,2.44140625
,12.0362146,2.4365234375
,12.0366947,2.421875
,12.0508944,2.40234375
,12.0717439,2.3876953125
,12.1072048,2.36328125
,12.1098607,2.3388671875
,12.1272374,2.3046875
,12.1771866,2.275390625
,12.1778175,2.236328125
,12.1893949,2.1923828125
,12.2116215,2.1484375
,12.2312271,2.099609375
,12.2502868,2.05078125
,12.2873258,1.9970703125
,12.2879521,1.9482421875
,12.3253756,1.8994140625
,12.3258143,1.85546875
,12.3490591,1.8115234375
,12.3832957,1.767578125
,12.3904009,1.7236328125
,12.4247569,1.6845703125
,12.4301147,1.640625
,12.4670264,1.5966796875
,12.467778,1.552734375
,12.5040076,1.5185546875
,12.5069448,1.4794921875
,12.5434426,1.4990234375
,12.5492979,1.5771484375
,12.5847382,1.69921875
,12.5913239,1.8212890625
,12.6107736,1.9482421875
,12.6308508,2.0556640625
,12.6680211,2.1630859375
,12.6705738,2.255859375
,12.6875264,2.3291015625
,12.7227291,2.392578125
,12.7530871,2.4267578125
,12.7534941,2.44140625
,12.771731,2.431640625
,12.7916324,2.4169921875
,12.8116529,2.3974609375
,12.8322994,2.3779296875
,12.8473073,2.353515625
,12.8836816,2.333984375
,12.9035094,2.2998046875
,12.9078552,2.265625
,12.9446761,2.2265625
,12.9655734,2.1826171875
,12.9725314,2.138671875
,12.9918506,2.08984375
,13.0276236,2.041015625
,13.0280649,1.9921875
,13.064217,1.943359375
,13.0936646,1.8994140625
,13.0941653,1.8505859375
,13.1097247,1.806640625
,13.147692,1.767578125
,13.1540527,1.728515625
,13.1717467,1.689453125
,13.1868874,1.6455078125
,13.2239121,1.6064453125
,13.2441459,1.5625
,13.2497206,1.5234375
,13.2701831,1.4990234375
,13.2916655,1.5185546875
,13.3123366,1.5966796875
,13.3319611,1.708984375
,13.3540883,1.8408203125
,13.3725029,1.9580078125
,13.3930897,2.0654296875
,13.4093549,2.158203125
,13.4491842,2.24609375
,13.4497685,2.314453125
,13.4858991,2.3681640625
,13.4901072,2.3974609375
,13.5253691,2.3974609375
,13.5321829,2.3876953125
,13.5540101,2.373046875
,13.5687837,2.353515625
,13.6187243,2.3388671875
,13.6191955,2.32421875
,13.6506754,2.2998046875
,13.6510334,2.2705078125
,13.6889336,2.236328125
,13.6916916,2.197265625
,13.7289896,2.1533203125
,13.7323047,2.109375
,13.7482863,2.0654296875
,13.7830297,2.0166015625
,13.8049905,1.9677734375
,13.8121866,1.923828125
,13.8529896,1.8798828125
,13.8535004,1.8408203125
,13.8890127,1.796875
,13.8941851,1.7529296875
,13.9085723,1.7138671875
,13.9454969,1.6748046875
,13.9556644,1.6259765625
,13.9708185,1.5771484375
,13.9922195,1.552734375
,14.027657900000001,1.552734375
,14.032590200000001,1.6162109375
,14.051513799999999,1.7138671875
,14.089117900000002,1.845703125
,14.0946195,1.962890625
,14.1146435,2.0849609375
,14.131407500000002,2.1826171875
,14.1511663,2.275390625
,14.1715701,2.3583984375
,14.2107594,2.421875
,14.2111415,2.4609375
,14.230981,2.470703125
,14.265564099999999,2.4658203125
,14.2854162,2.4462890625
,14.2923234,2.421875
,14.325504599999999,2.3974609375
,14.329308300000001,2.373046875
,14.365138300000002,2.34375
,14.398640100000001,2.3095703125
,14.3992486,2.275390625
,14.413811800000001,2.2265625
,14.432030999999998,2.1826171875
,14.4763886,2.1337890625
,14.476855700000002,2.080078125
,14.4897016,2.03125
,14.5391388,1.9775390625
,14.5396334,1.923828125
,14.5687748,1.8701171875
,14.5735563,1.8212890625
,14.593511800000002,1.7724609375
,14.615005400000001,1.7236328125
,14.6355201,1.6748046875
,14.6495447,1.6357421875
,14.676071799999999,1.5966796875
,14.691605299999999,1.54296875
,14.7295774,1.5087890625
,14.7301121,1.4697265625
,14.765727300000002,1.4453125
,14.7876023,1.46484375
,14.7948071,1.552734375
,14.8292666,1.6748046875
,14.8499275,1.8212890625
,14.850362400000002,1.953125
,14.889442800000001,2.080078125
,14.8899796,2.1923828125
,14.9277345,2.2802734375
,14.9577852,2.36328125
,14.958163500000001,2.4267578125
,14.9735914,2.4658203125
,15.0077343,2.4755859375
,15.0280664,2.470703125
,15.0303945,2.451171875
,15.051171700000001,2.431640625
,15.087823,2.412109375
,15.092845,2.3828125
,15.130041899999998,2.353515625
,15.1333075,2.314453125
,15.1757177,2.2705078125
,15.176418000000002,2.2265625
,15.205854599999999,2.177734375
,15.2109248,2.1240234375
,15.2474855,2.0703125
,15.268163000000001,2.021484375
,15.2712209,1.962890625
,15.3087637,1.9091796875
,15.3307395,1.85546875
,15.3329612,1.806640625
,15.368997,1.7578125
,15.369506000000001,1.708984375
,15.406563899999998,1.6650390625
,15.410794,1.611328125
,15.455383600000001,1.5673828125
,15.455798300000001,1.5234375
,15.4734822,1.4794921875
,15.493393099999999,1.4404296875
,15.514838099999999,1.4111328125
,15.549364099999998,1.416015625
,15.556121099999999,1.484375
,15.5763855,1.6064453125
,15.5933472,1.73828125
,15.626871300000001,1.8798828125
,15.631518799999998,2.001953125
,15.667971600000001,2.1142578125
,15.688472699999998,2.2119140625
,15.693153899999999,2.2998046875
,15.7273824,2.3681640625
,15.7479549,2.4169921875
,15.752158900000001,2.431640625
,15.789106199999999,2.431640625
,15.794485000000002,2.4169921875
,15.8150422,2.40234375
,15.833801699999999,2.3779296875
,15.870036200000001,2.353515625
,15.8747346,2.32421875
,15.911334400000001,2.28515625
,15.9143361,2.24609375
,15.933278000000001,2.2021484375
,15.952466099999999,2.1533203125
,15.9961628,2.1044921875
,15.996535900000001,2.05078125
,16.0167325,1.9970703125
,16.0356828,1.943359375
,16.0561515,1.8896484375
,16.0757202,1.8359375
,16.0938412,1.7822265625
,16.1289362,1.73828125
,16.1316964,1.6796875
,16.1678658,1.640625
,16.1995439,1.5966796875
,16.2001952,1.5478515625
,16.2148008,1.50390625
,16.2614127,1.4599609375
,16.2617809,1.42578125
,16.2810788,1.396484375
,16.2964131,1.4013671875
,16.3126521,1.4697265625
,16.3466443,1.591796875
,16.3686948,1.71875
,16.3764157,1.8505859375
,16.3957246,1.962890625
,16.4304865,2.0703125
,16.4352502,2.1533203125
,16.4773319,2.2314453125
,16.4777554,2.28515625
,16.4927677,2.32421875
,16.5153632,2.333984375
,16.5352386,2.32421875
,16.5551543,2.314453125
,16.5768674,2.294921875
,16.6111872,2.275390625
,16.6159772,2.255859375
,16.6378891,2.2314453125
,16.6533526,2.197265625
,16.689568,2.1630859375
,16.6951155,2.1240234375
,16.7154393,2.080078125
,16.735974,2.0361328125
,16.7560934,1.9873046875
,16.7767797,1.9384765625
,16.7973708,1.884765625
,16.8322751,1.8359375
,16.8371017,1.7822265625
,16.8586575,1.728515625
,16.8738878,1.6748046875
,16.9132996,1.6357421875
,16.9139007,1.5966796875
,16.9518346,1.5576171875
,16.9564014,1.513671875
,16.9943516,1.474609375
,16.9973274,1.4404296875
,17.0336858,1.40625
,17.0340537,1.3818359375
,17.0706741,1.40625
,17.0736798,1.4892578125
,17.111449,1.62109375
,17.1144793,1.7578125
,17.1509884,1.8994140625
,17.1562712,2.0263671875
,17.1933179,2.1240234375
,17.1979642,2.2216796875
,17.2141026,2.2998046875
,17.2351704,2.36328125
,17.2559838,2.40234375
,17.2766829,2.4169921875
,17.2972932,2.412109375
,17.3176012,2.3974609375
,17.3371423,2.3779296875
,17.3575882,2.353515625
,17.3754767,2.3291015625
,17.3958511,2.3046875
,17.4150345,2.2705078125
,17.4583978,2.2265625
,17.4587704,2.1875
,17.4768003,2.138671875
,17.5115688,2.08984375
,17.5185887,2.041015625
,17.5553265,1.9873046875
,17.5579029,1.93359375
,17.5793289,1.875
,17.5928747,1.8212890625
,17.6311522,1.7822265625
,17.6338779,1.7431640625
,17.6692012,1.7041015625
,17.6909201,1.66015625
,17.6974941,1.62109375
,17.7171838,1.5771484375
,17.7520291,1.5380859375
,17.7726817,1.50390625
,17.7759585,1.484375
,17.7947098,1.5087890625
,17.829734,1.5869140625
,17.8611234,1.7138671875
,17.8615064,1.8408203125
,17.8783642,1.97265625
,17.9124238,2.080078125
,17.9200259,2.1875
,17.9363492,2.275390625
,17.9715769,2.353515625
,17.9757118,2.412109375
,18.0106,2.4462890625
,18.030123,2.4462890625
,18.0369603,2.4365234375
,18.072549,2.412109375
,18.0967557,2.3876953125
,18.0971336,2.36328125
,18.1147596,2.3388671875
,18.1496166,2.3095703125
,18.1699766,2.2705078125
,18.175042,2.2314453125
,18.2107594,2.1826171875
,18.2306948,2.1337890625
,18.237371,2.080078125
,18.2829072,2.0263671875
,18.2833299,1.9677734375
,18.3140657,1.9091796875
,18.3144648,1.8505859375
,18.3482954,1.8017578125
,18.3692596,1.7578125
,18.3777821,1.7138671875
,18.4165212,1.6650390625
,18.4169153,1.62109375
,18.4523147,1.5771484375
,18.4720841,1.533203125
,18.4785354,1.4892578125
,18.4945931,1.4453125
,18.5305416,1.4013671875
,18.5505307,1.3720703125
,18.5575464,1.3818359375
,18.592722,1.4501953125
,18.5977118,1.5771484375
,18.6327307,1.7138671875
,18.6532005,1.8603515625
,18.6548692,1.9921875
,18.702085,2.1142578125
,18.7024673,2.216796875
,18.7177881,2.314453125
,18.7380045,2.392578125
,18.7743611,2.44140625
,18.7775058,2.4658203125
,18.8121489,2.4658203125
,18.8340005,2.4462890625
,18.8345584,2.4267578125
,18.8699511,2.4072265625
,18.9013022,2.3828125
,18.9019299,2.353515625
,18.9181174,2.3193359375
,18.9385209,2.2802734375
,18.9734678,2.236328125
,18.9780528,2.1826171875
,19.0019918,2.1337890625
,19.0200623,2.0703125
,19.0385984,2.0068359375
,19.0856847,1.962890625
,19.0860672,1.9091796875
,19.0985784,1.85546875
,19.1360867,1.796875
,19.1389033,1.748046875
,19.174678,1.69921875
,19.179318,1.650390625
,19.2149251,1.6015625
,19.217611,1.552734375
,19.2530916,1.50390625
,19.2604489,1.4599609375
,19.2775423,1.416015625
,19.3108767,1.376953125
,19.3318017,1.337890625
,19.3408538,1.318359375
,19.3760904,1.337890625
,19.3806378,1.435546875
,19.3954988,1.5625
,19.4320942,1.71875
,19.4515215,1.85546875
,19.4599762,1.9873046875
,19.4800926,2.08984375
,19.5151777,2.1923828125
,19.5359412,2.275390625
,19.5406766,2.34375
,19.5566355,2.3779296875
,19.5912039,2.392578125
,19.6117705,2.3876953125
,19.6175969,2.373046875
,19.6543864,2.353515625
,19.6594207,2.3291015625
,19.6959937,2.3046875
,19.6989872,2.2802734375
,19.7362609,2.24609375
,19.741256,2.20703125
,19.7772105,2.1533203125
,19.7777416,2.109375
,19.8274428,2.060546875
,19.827843,2.01171875
,19.838966,1.9580078125
,19.8737604,1.904296875
,19.8954163,1.845703125
,19.9000348,1.7919921875
,19.9335447,1.73828125
,19.9536145,1.6845703125
,19.9580422,1.6357421875
,19.9939603,1.591796875
,20.0155551,1.5478515625
,20.0179724,1.5087890625
,20.0531659,1.46484375
,20.0734419,1.4208984375
,20.0794092,1.3818359375
,20.1170678,1.3427734375
,20.1412993,1.30859375
,20.141673,1.30859375
,20.1602501,1.3623046875
,20.1796135,1.484375
,20.2147468,1.6259765625
,20.2219379,1.7724609375
,20.241227,1.8994140625
,20.2770326,2.021484375
,20.2776613,2.119140625
,20.297645,2.2119140625
,20.3355418,2.2802734375
,20.3406933,2.333984375
,20.3596577,2.3583984375
,20.4017989,2.3583984375
,20.4023391,2.3486328125
,20.4380704,2.333984375
,20.4403407,2.3193359375
,20.4803418,2.2998046875
,20.48072,2.2705078125
,20.515306,2.236328125
,20.5215399,2.2119140625
,20.5408774,2.177734375
,20.5739464,2.1337890625
,20.6073506,2.08984375
,20.6077273,2.0361328125
,20.6235867,1.9873046875
,20.6436732,1.9384765625
,20.6848019,1.884765625
,20.685191,1.8310546875
,20.6999611,1.77734375
,20.7344904,1.7333984375
,20.7541405,1.689453125
,20.7608804,1.6455078125
,20.8079838,1.6015625
,20.8083738,1.5625
,20.8209097,1.5185546875
,20.8701706,1.4794921875
,20.8707835,1.4404296875
,20.8788435,1.4111328125
,20.914897,1.4111328125
,20.9202944,1.4697265625
,20.96144,1.5869140625
,20.9618075,1.71875
,20.9815843,1.8603515625
,21.0184347,1.9921875
,21.0415415,2.0947265625
,21.0420306,2.197265625
,21.0770805,2.2802734375
,21.0795142,2.353515625
,21.1188244,2.392578125
,21.1192276,2.412109375
,21.1546676,2.412109375
,21.1748614,2.3974609375
,21.1828125,2.3779296875
,21.2182273,2.353515625
,21.2463877,2.333984375
,21.2468793,2.314453125
,21.2619906,2.28515625
,21.3096511,2.2509765625
,21.3102976,2.2119140625
,21.3228157,2.16796875
,21.3587788,2.119140625
,21.3871059,2.0703125
,21.3874897,2.021484375
,21.4015873,1.9677734375
,21.4373669,1.9189453125
,21.442335,1.8701171875
,21.4766036,1.8212890625
,21.4815145,1.77734375
,21.5185629,1.7333984375
,21.5227377,1.689453125
,21.5577403,1.640625
,21.5784851,1.591796875
,21.5789569,1.5478515625
,21.6208599,1.4990234375
,21.6214094,1.4599609375
,21.6560497,1.42578125
,21.6631422,1.42578125
,21.6967707,1.4892578125
,21.7022556,1.6015625
,21.7366237,1.7431640625
,21.7591156,1.875
,21.7598841,2.0068359375
,21.7937393,2.1142578125
,21.8169781,2.216796875
,21.8200907,2.294921875
,21.85372,2.36328125
,21.8739038,2.4072265625
,21.8848382,2.431640625
,21.9028906,2.4267578125
,21.9239423,2.4072265625
,21.9577333,2.3828125
,21.9781679,2.3681640625
,21.9808543,2.353515625
,22.0168857,2.333984375
,22.0224341,2.3046875
,22.0594157,2.2705078125
,22.061772,2.2265625
,22.0963885,2.177734375
,22.116414,2.12890625
,22.1204907,2.080078125
,22.1567706,2.03125
,22.1613988,1.9775390625
,22.2105178,1.9287109375
,22.2111048,1.875
,22.2410848,1.826171875
,22.2416152,1.77734375
,22.2766439,1.7333984375
,22.2964427,1.689453125
,22.2988885,1.6455078125
,22.3360045,1.6064453125
,22.3695906,1.5625
,22.3699787,1.5234375
,22.3839085,1.484375
,22.41887,1.4453125
,22.4239595,1.416015625
,22.4591196,1.4208984375
,22.4883272,1.4892578125
,22.4889257,1.611328125
,22.5031566,1.7529296875
,22.5220456,1.8994140625
,22.55801,2.0263671875
,22.5776668,2.1435546875
,22.5845987,2.24609375
,22.6051789,2.333984375
,22.6392475,2.40234375
,22.6444293,2.451171875
,22.6806387,2.4658203125
,22.6810165,2.470703125
,22.7154776,2.4609375
,22.7353877,2.44140625
,22.7417126,2.421875
,22.7754889,2.3974609375
,22.7955373,2.373046875
,22.8048109,2.3388671875
,22.8383381,2.2998046875
,22.8597399,2.255859375
,22.8601457,2.20703125
,22.8963872,2.1533203125
,22.9166414,2.1044921875
,22.9236484,2.05078125
,22.9695888,1.9921875
,22.9701985,1.9384765625
,22.9850719,1.884765625
,23.0304869,1.8310546875
,23.0309685,1.7822265625
,23.0501781,1.73828125
,23.0635833,1.6943359375
,23.0984637,1.650390625
,23.1041271,1.6015625
,23.1411355,1.5576171875
,23.1439267,1.513671875
,23.1776877,1.4697265625
,23.1982856,1.4306640625
,23.2012575,1.4208984375
,23.2464714,1.4697265625
,23.2467695,1.5625
,23.2682375,1.69921875
,23.2852874,1.8310546875
,23.3193593,1.9580078125
,23.326399,2.060546875
,23.3447522,2.1630859375
,23.3664038,2.236328125
,23.4027618,2.2998046875
,23.4031278,2.34375
,23.4230856,2.373046875
,23.4580961,2.3681640625
,23.4781105,2.3583984375
,23.4853671,2.34375
,23.5276329,2.3291015625
,23.5280057,2.3046875
,23.5480725,2.28515625
,23.5903221,2.255859375
,23.5909863,2.2216796875
,23.6033545,2.1826171875
,23.6524828,2.1435546875
,23.6531472,2.0947265625
,23.6645559,2.0458984375
,23.7013861,1.9921875
,23.729416,1.943359375
,23.7297857,1.89453125
,23.7425003,1.845703125
,23.7925276,1.8017578125
,23.7928999,1.7578125
,23.8047851,1.7138671875
,23.8418989,1.669921875
,23.8439472,1.6259765625
,23.8784234,1.58203125
,23.8982984,1.5380859375
,23.9052467,1.4990234375
,23.9226642,1.46484375
,23.9579332,1.455078125
,23.9780402,1.4892578125
,23.9835897,1.5869140625
,24.0173713,1.708984375
,24.0373748,1.8505859375
,24.0468206,1.9677734375
,24.0830849,2.0849609375
,24.087698,2.177734375
,24.1069693,2.2607421875
,24.124727,2.3291015625
,24.165739,2.3876953125
,24.1662212,2.412109375
,24.2128884,2.4169921875
,24.2135044,2.4072265625
,24.225594,2.392578125
,24.2751304,2.373046875
,24.2755827,2.353515625
,24.3057275,2.333984375
,24.3061042,2.3046875
,24.3402071,2.2705078125
,24.3442001,2.2314453125
,24.3797413,2.1875
,24.3998922,2.138671875
,24.4062907,2.0849609375
,24.4444015,2.0361328125
,24.4474663,1.982421875
,24.4640128,1.9287109375
,24.4975474,1.875
,24.5180381,1.826171875
,24.5250466,1.7724609375
,24.5590411,1.728515625
,24.5790737,1.6796875
,24.5867114,1.6357421875
,24.632119,1.5869140625
,24.632484,1.54296875
,24.6514812,1.4990234375
,24.6654366,1.4599609375
,24.6997756,1.4404296875
,24.7051351,1.4697265625
,24.7262065,1.5576171875
,24.7471233,1.689453125
,24.7673181,1.8212890625
,24.8047892,1.9580078125
,24.8066036,2.0703125
,24.8502315,2.1728515625
,24.8506918,2.2705078125
,24.8653984,2.3486328125
,24.8839259,2.412109375
,24.9198462,2.451171875
,24.9399201,2.4658203125
,24.9459408,2.4560546875
,24.9879905,2.44140625
,24.9885824,2.421875
,25.0190588,2.3974609375
,25.0253451,2.3681640625
,25.0596167,2.333984375
,25.0644749,2.2998046875
,25.1002733,2.255859375
,25.1197506,2.20703125
,25.1272251,2.1533203125
,25.1614205,2.099609375
,25.1835981,2.0458984375
,25.1879975,1.9921875
,25.2044897,1.93359375
,25.2389397,1.884765625
,25.2600373,1.8359375
,25.2677373,1.7822265625
,25.2873756,1.73828125
,25.3229241,1.6943359375
,25.3277258,1.6455078125
,25.3642687,1.6015625
,25.3646336,1.552734375
,25.4067127,1.5087890625
,25.4076393,1.46484375
,25.4255836,1.42578125
,25.460065,1.40625
,25.4804525,1.435546875
,25.4871325,1.5234375
,25.5287866,1.650390625
,25.5291965,1.796875
,25.5633071,1.923828125
,25.5688582,2.0458984375
,25.5854025,2.1484375
,25.6235379,2.24609375
,25.6259762,2.32421875
,25.662334,2.392578125
,25.6674283,2.4267578125
,25.7034005,2.44140625
,25.7235747,2.431640625
,25.7277139,2.4169921875
,25.7624192,2.392578125
,25.7655582,2.373046875
,25.808166,2.3486328125
,25.8085685,2.314453125
,25.8284503,2.275390625
,25.8633105,2.236328125
,25.8685237,2.1875
,25.9169027,2.138671875
,25.9172911,2.0849609375
,25.9262354,2.03125
,25.9605717,1.9775390625
,25.9821514,1.9287109375
,25.9893099,1.875
,26.0070735,1.826171875
,26.0418341,1.77734375
,26.0618192,1.7333984375
,26.0711173,1.689453125
,26.0874639,1.6455078125
,26.1226272,1.6064453125
,26.1283189,1.5625
,26.1472323,1.5185546875
,26.1849136,1.4794921875
,26.1879355,1.4404296875
,26.2236139,1.4208984375
,26.2461753,1.4404296875
,26.2507848,1.5283203125
,26.2868356,1.6455078125
,26.2905362,1.787109375
,26.3070247,1.9140625
,26.3407945,2.0361328125
,26.3485336,2.1337890625
,26.3830554,2.2216796875
,26.3876127,2.2900390625
,26.4320297,2.3486328125
,26.4327574,2.3779296875
,26.4493721,2.3828125
,26.4868982,2.373046875
,26.4874925,2.3583984375
,26.5254533,2.34375
,26.5259178,2.3291015625
,26.5599986,2.3095703125
,26.5802755,2.2802734375
,26.5910792,2.24609375
,26.6095184,2.2119140625
,26.6499947,2.16796875
,26.6505821,2.1240234375
,26.6794645,2.0751953125
,26.6889762,2.021484375
,26.7261759,1.9677734375
,26.7289638,1.9189453125
,26.7632058,1.865234375
,26.782017,1.81640625
,26.7894046,1.7724609375
,26.8259653,1.7333984375
,26.826683,1.689453125
,26.8618,1.6455078125
,26.8691415,1.6064453125
,26.9042547,1.5673828125
,26.9086802,1.5283203125
,26.9454854,1.4892578125
,26.9496109,1.46484375
,26.9838247,1.4892578125
,27.0053553,1.5673828125
,27.0116795,1.69921875
,27.0282392,1.826171875
,27.0650028,1.9580078125
,27.0700529,2.0751953125
,27.0890918,2.16796875
,27.1231779,2.2607421875
,27.1425541,2.3291015625
,27.1501027,2.3876953125
,27.1901261,2.4169921875
,27.1905044,2.421875
,27.2088077,2.4072265625
,27.2290134,2.3876953125
,27.2674595,2.3681640625
,27.2678324,2.3486328125
,27.3030846,2.3193359375
,27.3297082,2.2900390625
,27.3302043,2.2509765625
,27.3661098,2.20703125
,27.3665367,2.158203125
,27.4060494,2.109375
,27.4091594,2.0556640625
,27.444017,2.001953125
,27.4498225,1.943359375
,27.4844284,1.8896484375
,27.5163311,1.8310546875
,27.5167801,1.7822265625
,27.5313553,1.73828125
,27.5480608,1.69921875
,27.5924417,1.66015625
,27.5929214,1.62109375
,27.6121361,1.5771484375
,27.6460545,1.533203125
,27.6486838,1.4892578125
,27.683289,1.4453125
,27.7031794,1.40625
,27.7101552,1.4013671875
,27.7449737,1.4453125
,27.7644529,1.5576171875
,27.7672106,1.689453125
,27.8023382,1.8310546875
,27.8229459,1.9580078125
,27.8310074,2.0751953125
,27.851311,2.1728515625
,27.88676,2.2607421875
,27.8915377,2.32421875
,27.9267899,2.3779296875
,27.9274058,2.40234375
,27.9623828,2.412109375
,27.9817634,2.40234375
,27.9896097,2.3828125
,28.0274898,2.36328125
,28.0292183,2.34375
,28.0642682,2.314453125
,28.0859042,2.28515625
,28.0919746,2.24609375
,28.108908,2.2021484375
,28.1446915,2.158203125
,28.1512824,2.1142578125
,28.18631,2.060546875
,28.1889472,2.0068359375
,28.2247848,1.9482421875
,28.2578523,1.89453125
,28.2584553,1.8408203125
,28.2675184,1.7919921875
,28.3018058,1.7431640625
,28.3223713,1.69921875
,28.3311007,1.6552734375
,28.3681396,1.611328125
,28.3687457,1.5673828125
,28.4043511,1.5185546875
,28.4250691,1.474609375
,28.434028,1.4306640625
,28.4528593,1.38671875
,28.4912308,1.357421875
,28.491689,1.357421875
,28.5377222,1.4306640625
,28.5383318,1.5478515625
,28.5508503,1.69921875
,28.5867186,1.8310546875
,28.5917439,1.9580078125
,28.630496,2.0654296875
,28.6599835,2.1630859375
,28.6603833,2.236328125
,28.6700526,2.314453125
,28.7076617,2.3583984375
,28.7123824,2.3779296875
,28.7329125,2.3779296875
,28.7684198,2.36328125
,28.7713394,2.3486328125
,28.8059008,2.3291015625
,28.8268722,2.3046875
,28.8292494,2.275390625
,28.8616693,2.24609375
,28.8836964,2.2119140625
,28.8911145,2.16796875
,28.9389109,2.1240234375
,28.9393505,2.0751953125
,28.9547856,2.0263671875
,28.9891906,1.9677734375
,28.9948282,1.9189453125
,29.0099101,1.865234375
,29.0441848,1.81640625
,29.0651452,1.767578125
,29.0712199,1.7236328125
,29.1105848,1.6796875
,29.1427526,1.640625
,29.1433548,1.6015625
,29.1530457,1.5576171875
,29.1889682,1.5185546875
,29.1935056,1.474609375
,29.2131158,1.435546875
,29.2308583,1.40625
,29.2661282,1.4013671875
,29.2860311,1.4501953125
,29.2929424,1.552734375
,29.3288727,1.689453125
,29.3335962,1.826171875
,29.3753298,1.9482421875
,29.3759679,2.0556640625
,29.3902571,2.138671875
,29.4386534,2.2216796875
,29.4391388,2.2802734375
,29.4685006,2.32421875
,29.47592,2.3388671875
,29.516692,2.3388671875
,29.5173148,2.3193359375
,29.5355656,2.2998046875
,29.5526813,2.2802734375
,29.58879,2.265625
,29.5915997,2.24609375
,29.6262121,2.2216796875
,29.6459468,2.1875
,29.6532407,2.1435546875
,29.686715,2.099609375
,29.7069936,2.05078125
,29.7142486,2.001953125
,29.7319394,1.953125
,29.7652628,1.904296875
,29.7861793,1.85546875
,29.7911998,1.8115234375
,29.8259879,1.767578125
,29.8457778,1.7236328125
,29.8519585,1.6845703125
,29.8874191,1.6455078125
,29.9079106,1.6064453125
,29.9146768,1.5625
,29.9324427,1.5185546875
,29.9677515,1.484375
,29.9722404,1.4501953125
,30.0107024,1.435546875
,30.011294,1.4794921875
,30.0478691,1.572265625
,30.067694600000003,1.7041015625
,30.0756211,1.8359375
,30.109903799999998,1.962890625
,30.1385085,2.0654296875
,30.1389218,2.158203125
,30.153258,2.236328125
,30.172723599999998,2.2998046875
,30.208323300000004,2.34375
,30.2309797,2.36328125
,30.233812899999997,2.3583984375
,30.2694185,2.34375
,30.2758786,2.32421875
,30.2919128,2.2998046875
,30.3261458,2.2802734375
,30.346668899999997,2.255859375
,30.3535283,2.2265625
,30.4037248,2.1923828125
,30.4042643,2.1533203125
,30.414025799999997,2.1142578125
,30.447811899999998,2.0654296875
,30.4677358,2.0166015625
,30.470441800000003,1.97265625
,30.4923218,1.923828125
,30.542035300000002,1.875
,30.5424019,1.8310546875
,30.5621218,1.7822265625
,30.575291300000004,1.73828125
,30.6211992,1.69921875
,30.6217051,1.66015625
,30.6513999,1.62109375
,30.6563936,1.5771484375
,30.672839699999997,1.533203125
,30.707485400000003,1.494140625
,30.727741299999998,1.4599609375
,30.734512799999997,1.435546875
,30.7701437,1.435546875
,30.775671199999998,1.50390625
,30.8115927,1.611328125
,30.815824300000003,1.7529296875
,30.8322145,1.8798828125
,30.865786900000003,2.0068359375
,30.8870469,2.109375
,30.894416200000002,2.2021484375
,30.928919399999998,2.28515625
,30.9337254,2.34375
,30.9791218,2.3828125
,30.979487,2.3974609375
,30.999744800000002,2.392578125
,31.0136374,2.3779296875
,31.049701300000002,2.3583984375
,31.051921299999997,2.3388671875
,31.0907635,2.314453125
,31.0961394,2.2900390625
,31.1382372,2.255859375
,31.138707500000002,2.2216796875
,31.155155299999997,2.177734375
,31.173088399999997,2.138671875
,31.215905399999997,2.08984375
,31.2164492,2.041015625
,31.235478200000003,1.9921875
,31.277819800000003,1.9384765625
,31.2781996,1.8896484375
,31.294562399999997,1.8359375
,31.330818200000003,1.7919921875
,31.334952199999996,1.7431640625
,31.370881599999997,1.69921875
,31.3914306,1.66015625
,31.394054500000003,1.6162109375
,31.431384799999996,1.5771484375
,31.4321537,1.533203125
,31.4690985,1.494140625
,31.493775,1.455078125
,31.4946165,1.42578125
,31.540769500000003,1.416015625
,31.541398700000002,1.46484375
,31.556832800000002,1.572265625
,31.5733071,1.7041015625
,31.6104556,1.8505859375
,31.6145372,1.9775390625
,31.6505657,2.0947265625
,31.655754100000003,2.1875
,31.6928719,2.275390625
,31.697227400000003,2.34375
,31.7421536,2.392578125
,31.742741100000003,2.4169921875
,31.7539176,2.421875
,31.788322700000002,2.412109375
,31.808220400000003,2.3974609375
,31.815162700000002,2.3779296875
,31.849266399999998,2.353515625
,31.8694317,2.3291015625
,31.8790891,2.3046875
,31.8984673,2.2705078125
,31.9141445,2.2265625
,31.948700799999997,2.1875
,31.9689154,2.1435546875
,31.9764804,2.08984375
,32.0124557,2.041015625
,32.015524,1.9921875
,32.0514246,1.9384765625
,32.0572493,1.8896484375
,32.0771418,1.8408203125
,32.1184052,1.7919921875
,32.1187757,1.748046875
,32.1352497,1.708984375
,32.1702492,1.669921875
,32.1757758,1.6259765625
,32.2145153,1.58203125
,32.2149119,1.5380859375
,32.2550083,1.494140625
,32.275274,1.455078125
,32.2776096,1.4306640625
,32.2963309,1.435546875
,32.3332411,1.50390625
,32.3338369,1.62109375
,32.3708056,1.7529296875
,32.3910454,1.8798828125
,32.3968551,1.9970703125
,32.4409778,2.08984375
,32.4414291,2.177734375
,32.4549898,2.24609375
,32.4902948,2.3046875
,32.4952706,2.3388671875
,32.5150496,2.3486328125
,32.5522178,2.34375
,32.5715901,2.3291015625
,32.5769143,2.314453125
,32.5978492,2.2998046875
,32.6337325,2.2802734375
,32.6343122,2.255859375
,32.669987,2.2314453125
,32.6908311,2.2021484375
,32.69629,2.1630859375
,32.7338102,2.1240234375
,32.7385463,2.0751953125
,32.7857903,2.03125
,32.7862185,1.982421875
,32.7995622,1.9384765625
,32.8477237,1.8896484375
,32.8481209,1.845703125
,32.8556867,1.8017578125
,32.8916969,1.7626953125
,32.8969267,1.7236328125
,32.9345232,1.689453125
,32.9395056,1.650390625
,32.9740048,1.6064453125
,32.9793207,1.572265625
,32.9986332,1.5380859375
,33.0162304,1.5087890625
,33.0656038,1.513671875
,33.0661907,1.572265625
,33.0956595,1.6796875
,33.0962687,1.806640625
,33.1321965,1.9384765625
,33.152133,2.0458984375
,33.1565928,2.1484375
,33.190549,2.2314453125
,33.2105351,2.3046875
,33.2172265,2.3681640625
,33.2533657,2.4072265625
,33.2558931,2.4169921875
,33.2952868,2.412109375
,33.3002204,2.3974609375
,33.3189289,2.3828125
,33.3563345,2.36328125
,33.356924,2.34375
,33.3938213,2.3193359375
,33.394473,2.2900390625
,33.4320681,2.255859375
,33.4556982,2.216796875
,33.4560925,2.16796875
,33.4908896,2.119140625
,33.5127379,2.0654296875
,33.5187326,2.01171875
,33.5523846,1.962890625
,33.5743181,1.9091796875
,33.5746819,1.8603515625
,33.6094024,1.81640625
,33.6302715,1.77734375
,33.6395817,1.7431640625
,33.6749737,1.7041015625
,33.6795004,1.669921875
,33.6991457,1.6259765625
,33.7361974,1.5869140625
,33.7367865,1.5478515625
,33.7661501,1.5087890625
,33.7777529,1.50390625
,33.8124622,1.552734375
,33.8339992,1.66015625
,33.8394897,1.7822265625
,33.8903483,1.9091796875
,33.8907195,2.021484375
,33.9011305,2.119140625
,33.9167708,2.2021484375
,33.95312,2.2802734375
,33.9581893,2.3388671875
,33.9931208,2.3779296875
,33.9990673,2.392578125
,34.0362503,2.392578125
,34.0394758,2.373046875
,34.0738401,2.353515625
,34.093889,2.333984375
,34.0974678,2.3095703125
,34.1154029,2.2900390625
,34.1560598,2.2607421875
,34.1860829,2.2265625
,34.1866245,2.1875
,34.2004719,2.1435546875
,34.2354985,2.099609375
,34.2397572,2.05078125
,34.2747332,2.001953125
,34.2953164,1.9482421875
,34.2989353,1.8994140625
,34.3335166,1.85546875
,34.3394881,1.8115234375
,34.3763978,1.767578125
,34.3769887,1.728515625
,34.4125638,1.689453125
,34.4330231,1.650390625
,34.4398639,1.611328125
,34.4761485,1.5625
,34.4765166,1.5234375
,34.4965412,1.484375
,34.5319064,1.46484375
,34.561075,1.4794921875
,34.5616764,1.5576171875
,34.5801117,1.6845703125
,34.6158296,1.8115234375
,34.6384648,1.9384765625
,34.6388287,2.0458984375
,34.6587677,2.1484375
,34.7008581,2.2314453125
,34.7014355,2.314453125
,34.7352197,2.3681640625
,34.7403455,2.40234375
,34.7598105,2.4169921875
,34.7946665,2.4072265625
,34.8156123,2.3876953125
,34.8178486,2.3681640625
,34.852839,2.353515625
,34.8578297,2.3291015625
,34.8937079,2.2998046875
,34.9006628,2.2705078125
,34.9360167,2.2314453125
,34.9390178,2.1875
,34.9750532,2.1435546875
,34.997613,2.08984375
,35.0029674,2.041015625
,35.0204272,1.9873046875
,35.040427,1.93359375
,35.0760244,1.884765625
,35.078977,1.8310546875
,35.1131264,1.787109375
,35.1343042,1.7431640625
,35.1415632,1.69921875
,35.1777739,1.650390625
,35.1828758,1.6015625
,35.2002913,1.5576171875
,35.2414213,1.513671875
,35.2422174,1.4697265625
,35.2621052,1.4404296875
,35.296548,1.4306640625
,35.3010521,1.4794921875
,35.3500001,1.58203125
,35.3504267,1.71875
,35.3706328,1.845703125
,35.3822705,1.9677734375
,35.399056,2.0703125
,35.440109,2.1533203125
,35.4405935,2.2314453125
,35.460366,2.2900390625
,35.4946033,2.3291015625
,35.5149172,2.3388671875
,35.5223363,2.333984375
,35.5384461,2.3193359375
,35.5602805,2.3046875
,35.6119045,2.2900390625
,35.6126165,2.2705078125
,35.6206365,2.24609375
,35.6563565,2.216796875
,35.6639993,2.1826171875
,35.6814347,2.1435546875
,35.716001,2.1044921875
,35.7377646,2.0654296875
,35.7430613,2.021484375
,35.7609326,1.97265625
,35.7956776,1.9287109375
,35.8007995,1.8896484375
,35.8346099,1.8505859375
,35.8567194,1.8115234375
,35.8637642,1.77734375
,35.9045924,1.73828125
,35.905142,1.69921875
,35.9198612,1.66015625
,35.9674066,1.62109375
,35.9679219,1.591796875
,35.9809683,1.5625
,36.0160958,1.552734375
,36.0369876,1.6015625
,36.0421229,1.7041015625
,36.0769834,1.8212890625
,36.1052143,1.9482421875
,36.1057152,2.05078125
,36.1208089,2.1533203125
,36.1555547,2.236328125
,36.1614374,2.314453125
,36.1954625,2.3681640625
,36.2151803,2.40234375
,36.2228849,2.412109375
,36.2574759,2.4072265625
,36.2786379,2.392578125
,36.2791236,2.373046875
,36.313842,2.353515625
,36.3353478,2.3291015625
,36.3415952,2.3046875
,36.375628,2.275390625
,36.3955638,2.236328125
,36.4017268,2.197265625
,36.4351483,2.1484375
,36.4558021,2.099609375
,36.4624451,2.05078125
,36.4808745,2.001953125
,36.516751,1.9580078125
,36.5216072,1.9140625
,36.5552585,1.8701171875
,36.5873631,1.826171875
,36.5876693,1.7822265625
,36.6031632,1.7431640625
,36.6398526,1.7041015625
,36.6581391,1.6552734375
,36.6598304,1.6162109375
,36.7022402,1.572265625
,36.7026119,1.533203125
,36.7239032,1.513671875
,36.7424832,1.552734375
,36.7769615,1.650390625
,36.796476,1.7724609375
,36.8034624,1.904296875
,36.8225105,2.0166015625
,36.8591281,2.12890625
,36.8596341,2.216796875
,36.8938755,2.3046875
,36.9156695,2.3681640625
,36.9234608,2.4169921875
,36.9579171,2.4365234375
,36.9780125,2.4365234375
,36.9784635,2.421875
,37.0174261,2.4072265625
,37.0193579,2.3876953125
,37.0531571,2.36328125
,37.0748109,2.3388671875
,37.0840073,2.3095703125
,37.1208847,2.275390625
,37.1213223,2.236328125
,37.1552634,2.1875
,37.1766797,2.138671875
,37.185061,2.08984375
,37.2025666,2.041015625
,37.249696,1.9921875
,37.2502411,1.943359375
,37.2626579,1.904296875
,37.2989379,1.8603515625
,37.3040919,1.81640625
,37.3256887,1.77734375
,37.3615684,1.7333984375
,37.3635628,1.689453125
,37.3990266,1.6455078125
,37.4035448,1.5966796875
,37.4227263,1.552734375
,37.4593686,1.513671875
,37.4646476,1.4892578125
,37.4994415,1.513671875
,37.5054564,1.5966796875
,37.5421355,1.7236328125
,37.5427117,1.8505859375
,37.5764941,1.9775390625
,37.582066,2.0849609375
,37.6312087,2.1875
,37.6317997,2.2705078125
,37.6627699,2.3486328125
,37.6634062,2.4072265625
,37.6998365,2.4365234375
,37.7051989,2.4462890625
,37.7219406,2.4365234375
,37.7570137,2.421875
,37.7761679,2.4072265625
,37.7825992,2.3876953125
,37.8175929,2.3681640625
,37.8372581,2.3388671875
,37.8432185,2.3046875
,37.8787693,2.2607421875
,37.9090024,2.216796875
,37.9095684,2.16796875
,37.9221871,2.1142578125
,37.9562255,2.060546875
,37.9766204,2.0068359375
,37.9844783,1.953125
,38.0199097,1.8994140625
,38.0244601,1.8505859375
,38.0627918,1.806640625
,38.0655615,1.767578125
,38.1016303,1.728515625
,38.1020814,1.6845703125
,38.1410487,1.640625
,38.1437255,1.591796875
,38.1789857,1.5478515625
,38.183104,1.50390625
,38.2173924,1.4697265625
,38.2392374,1.4599609375
,38.2464213,1.5087890625
,38.2635225,1.6064453125
,38.3000204,1.73828125
,38.3042894,1.8701171875
,38.3395238,1.9775390625
,38.3445397,2.080078125
,38.3922952,2.158203125
,38.3927183,2.2314453125
,38.4057419,2.2900390625
,38.4401863,2.32421875
,38.4603455,2.3291015625
,38.4626897,2.32421875
,38.4984853,2.3095703125
,38.5031452,2.2900390625
,38.5401888,2.275390625
,38.5641429,2.255859375
,38.5647625,2.2314453125
,38.6110984,2.197265625
,38.6120763,2.158203125
,38.6413168,2.109375
,38.6462929,2.060546875
,38.6619092,2.01171875
,38.6975467,1.9677734375
,38.7199031,1.9140625
,38.7244355,1.865234375
,38.7607702,1.8115234375
,38.7662237,1.767578125
,38.801341,1.7236328125
,38.8068842,1.6845703125
,38.8246319,1.640625
,38.8445372,1.6015625
,38.8809713,1.5576171875
,38.8835204,1.5185546875
,38.9188578,1.484375
,38.9400675,1.4599609375
,38.9454948,1.4697265625
,38.9788245,1.533203125
,38.9996637,1.650390625
,39.0027411,1.7724609375
,39.0369892,1.904296875
,39.0574098,2.01171875
,39.0647228,2.1142578125
,39.0851996,2.197265625
,39.120299,2.2705078125
,39.1432062,2.32421875
,39.1483679,2.353515625
,39.1645683,2.353515625
,39.2025294,2.34375
,39.2029855,2.3291015625
,39.2393101,2.3095703125
,39.2588792,2.28515625
,39.2639415,2.2607421875
,39.2989901,2.2314453125
,39.3190714,2.2021484375
,39.3289308,2.1630859375
,39.3730838,2.1240234375
,39.3735415,2.080078125
,39.3856769,2.03125
,39.4064661,1.9873046875
,39.4523788,1.9384765625
,39.4529254,1.89453125
,39.4676353,1.8505859375
,39.5143818,1.806640625
,39.5148759,1.767578125
,39.5295395,1.728515625
,39.5453991,1.6845703125
,39.565273,1.6455078125
,39.6000122,1.6015625
,39.6043723,1.5576171875
,39.6398083,1.513671875
,39.6605205,1.4990234375
,39.6687458,1.54296875
,39.6870817,1.6357421875
,39.7247916,1.7626953125
,39.7251959,1.8896484375
,39.758472,2.01171875
,39.7792292,2.1142578125
,39.7869872,2.20703125
,39.8343956,2.2900390625
,39.8347735,2.36328125
,39.8480152,2.4072265625
,39.881815,2.4267578125
,39.9026401,2.4267578125
,39.9046655,2.4072265625
,39.9436825,2.3828125
,39.9441223,2.353515625
,39.9912299,2.3291015625
,39.9917093,2.294921875
,40.0060617,2.2607421875
,40.0525336,2.216796875
,40.0529253,2.1728515625
,40.0729885,2.1240234375
,40.0885134,2.0703125
,40.1060298,2.0166015625
,40.1413027,1.962890625
,40.1475083,1.9140625
,40.185994,1.8603515625
,40.1863668,1.806640625
,40.2232145,1.7626953125
,40.2280456,1.7138671875
,40.2631351,1.669921875
,40.2844363,1.630859375
,40.2850399,1.5869140625
,40.3253939,1.54296875
,40.325788,1.4990234375
,40.3731048,1.4599609375
,40.3735937,1.42578125
,40.3886743,1.4208984375
,40.4238359,1.474609375
,40.4283557,1.5869140625
,40.4614196,1.71875
,40.46458,1.865234375
,40.4989742,1.9873046875
,40.5194156,2.099609375
,40.5266907,2.2021484375
,40.5617618,2.28515625
,40.5818913,2.3583984375
,40.5879722,2.4072265625
,40.6256238,2.431640625
,40.654245,2.4267578125
,40.6553231,2.4169921875
,40.668045,2.3974609375
,40.6874878,2.373046875
,40.7218184,2.34375
,40.728593,2.314453125
,40.7634768,2.275390625
,40.7683275,2.236328125
,40.8032171,2.1923828125
,40.8241643,2.138671875
,40.8271204,2.0849609375
,40.8752374,2.03125
,40.8758266,1.9775390625
,40.8887936,1.9189453125
,40.9234533,1.8603515625
,40.9283121,1.806640625
,40.9480982,1.7529296875
,40.9862667,1.7041015625
,40.9883159,1.6552734375
,41.0317184,1.6064453125
,41.0320968,1.5625
,41.0466065,1.5185546875
,41.0821159,1.46484375
,41.087809,1.4208984375
,41.1387878,1.3720703125
,41.1391499,1.337890625
,41.1509988,1.3427734375
,41.200198,1.4208984375
,41.2005808,1.5380859375
,41.2056571,1.6845703125
,41.2412606,1.8212890625
,41.2613546,1.9482421875
,41.2693084,2.05078125
,41.3103429,2.1484375
,41.3109305,2.2265625
,41.3445341,2.2900390625
,41.3647023,2.3291015625
,41.3671324,2.3486328125
,41.4012845,2.34375
,41.4229354,2.3291015625
,41.4279193,2.3095703125
,41.4661042,2.28515625
,41.4688735,2.265625
,41.5038247,2.236328125
,41.5234155,2.20703125
,41.5309199,2.16796875
,41.5763511,2.1240234375
,41.5767124,2.0703125
,41.5880263,2.021484375
,41.6104908,1.9677734375
,41.6446465,1.9140625
,41.6502291,1.865234375
,41.700184,1.8115234375
,41.7009829,1.767578125
,41.7309162,1.71875
,41.7312848,1.6748046875
,41.7485413,1.6357421875
,41.78419,1.591796875
,41.7893978,1.5478515625
,41.8265363,1.50390625
,41.8305777,1.46484375
,41.8660304,1.4306640625
,41.8705903,1.4208984375
,41.9049892,1.4697265625
,41.9261352,1.5625
,41.9265235,1.69921875
,41.9654532,1.826171875
,41.9701008,1.953125
,42.0058356,2.05078125
,42.0102039,2.1484375
,42.0596723,2.2216796875
,42.0601198,2.28515625
,42.0671824,2.32421875
,42.1022833,2.34375
,42.109268,2.333984375
,42.1309085,2.3193359375
,42.148982,2.294921875
,42.1841838,2.275390625
,42.2145403,2.24609375
,42.215109,2.2216796875
,42.2334832,2.1875
,42.2515404,2.1484375
,42.2863807,2.1044921875
,42.2892917,2.060546875
,42.3247941,2.0068359375
,42.3291286,1.9580078125
,42.368439,1.8994140625
,42.369053,1.845703125
,42.391507,1.796875
,42.425492,1.748046875
,42.4466306,1.69921875
,42.4523406,1.650390625
,42.4694292,1.6064453125
,42.5056479,1.5625
,42.5101473,1.5185546875
,42.5305439,1.474609375
,42.5646882,1.4306640625
,42.5849515,1.3916015625
,42.5927111,1.3720703125
,42.6265946,1.4013671875
,42.6270019,1.4892578125
,42.6619903,1.6259765625
,42.6827004,1.7626953125
,42.6894124,1.89453125
,42.7244456,2.001953125
,42.7457282,2.099609375
,42.7528174,2.1826171875
,42.7716885,2.2509765625
,42.8079284,2.3046875
,42.8082917,2.32421875
,42.845205,2.32421875
,42.8497511,2.3095703125
,42.8842532,2.2900390625
,42.8904954,2.265625
,42.9256884,2.24609375
,42.9601947,2.216796875
,42.9607011,2.1875
,42.9719705,2.1533203125
,43.0058577,2.109375
,43.0273465,2.0654296875
,43.0277737,2.021484375
,43.0706356,1.97265625
,43.0712504,1.923828125
,43.0908312,1.8701171875
,43.1103725,1.81640625
,43.1482418,1.767578125
,43.1703527,1.7236328125
,43.1708124,1.6796875
,43.1897937,1.6357421875
,43.2251904,1.6015625
,43.2579548,1.5625
,43.2583534,1.5185546875
,43.2705262,1.4794921875
,43.3051773,1.435546875
,43.3250108,1.396484375
,43.334329,1.3720703125
,43.3502858,1.3720703125
,43.3836899,1.4501953125
,43.4050872,1.5673828125
,43.4127907,1.7138671875
,43.4322193,1.85546875
,43.4512957,1.97265625
,43.4851232,2.0849609375
,43.5066257,2.177734375
,43.5135154,2.2607421875
,43.5293184,2.32421875
,43.5682191,2.373046875
,43.6004723,2.3779296875
,43.6008616,2.3779296875
,43.6126706,2.3681640625
,43.6325208,2.3486328125
,43.6775634,2.3291015625
,43.6779389,2.3046875
,43.6943939,2.2802734375
,43.7295077,2.24609375
,43.7359233,2.20703125
,43.7517413,2.16796875
,43.7718536,2.119140625
,43.8099235,2.0751953125
,43.8102866,2.021484375
,43.8442507,1.97265625
,43.8647019,1.923828125
,43.8750433,1.8701171875
,43.911053,1.8212890625
,43.9116655,1.7724609375
,43.9464369,1.7333984375
,43.975579,1.6943359375
,43.9759507,1.6552734375
,43.9916366,1.611328125
,44.0387823,1.5673828125
,44.0393338,1.5185546875
,44.0515411,1.474609375
,44.0875976,1.435546875
,44.110155,1.4208984375
,44.1106056,1.4697265625
,44.1436375,1.5673828125
,44.1652054,1.69921875
,44.1705849,1.8310546875
,44.2087647,1.953125
,44.215398,2.060546875
,44.2506894,2.1533203125
,44.2514034,2.236328125
,44.2884146,2.3095703125
,44.3084247,2.353515625
,44.3130764,2.3779296875
,44.3486485,2.3779296875
,44.3532684,2.3681640625
,44.3897083,2.3486328125
,44.3952633,2.3291015625
,44.4144296,2.3095703125
,44.4484959,2.28515625
,44.4762294,2.255859375
,44.4766008,2.216796875
,44.4910362,2.177734375
,44.5252377,2.138671875
,44.54531,2.08984375
,44.552283,2.0361328125
,44.5875178,1.982421875
,44.6076319,1.9287109375
,44.6163054,1.875
,44.6306995,1.826171875
,44.680224,1.7822265625
,44.6808325,1.73828125
,44.6916163,1.6943359375
,44.7258213,1.6455078125
,44.7471668,1.6015625
,44.7520475,1.5576171875
,44.7898769,1.5087890625
,44.8211994,1.4599609375
,44.8217829,1.4306640625
,44.8312279,1.4404296875
,44.8663594,1.5087890625
,44.8854845,1.6259765625
,44.8927029,1.7529296875
,44.9286655,1.875
,44.9329219,1.982421875
,44.9674007,2.080078125
,44.9882903,2.158203125
,44.9914907,2.2265625
,45.0172233,2.28515625
,45.033995,2.2998046875
,45.0682436,2.3095703125
,45.0735055,2.294921875
,45.1093168,2.2802734375
,45.1142216,2.265625
,45.1495266,2.24609375
,45.1565626,2.2216796875
,45.203293,2.197265625
,45.2037231,2.16796875
,45.2134393,2.1337890625
,45.2495011,2.08984375
,45.2536813,2.0458984375
,45.2897777,2.001953125
,45.2938989,1.9482421875
,45.3306731,1.8994140625
,45.3600436,1.8505859375
,45.3606357,1.806640625
,45.3732192,1.7578125
,45.4246347,1.71875
,45.4250997,1.6796875
,45.4334158,1.640625
,45.4712841,1.5966796875
,45.5011213,1.5576171875
,45.5017891,1.513671875
,45.5156668,1.474609375
,45.5320903,1.4404296875
,45.5653114,1.435546875
,45.585214,1.484375
,45.5933565,1.591796875
,45.6294606,1.7138671875
,45.6343266,1.8408203125
,45.6695594,1.9580078125
,45.6745125,2.05078125
,45.7118024,2.138671875
,45.7122804,2.20703125
,45.7475849,2.265625
,45.754398,2.28515625
,45.7746167,2.294921875
,45.8080264,2.28515625
,45.8297662,2.2705078125
,45.8372101,2.2509765625
,45.8750364,2.236328125
,45.8756393,2.2119140625
,45.9093029,2.1875
,45.9294005,2.1533203125
,45.9320484,2.119140625
,45.9681944,2.0849609375
,45.9886571,2.041015625
,45.9966487,1.9970703125
,46.015815,1.9482421875
,46.0511209,1.89453125
,46.071252,1.845703125
,46.0764653,1.7919921875
,46.0941391,1.748046875
,46.1299384,1.708984375
,46.1342965,1.669921875
,46.1714793,1.6259765625
,46.2027112,1.5869140625
,46.203318,1.54296875
,46.2149796,1.50390625
,46.2638958,1.4697265625
,46.2645071,1.4404296875
,46.2847005,1.455078125
,46.2949104,1.533203125
,46.329681,1.6455078125
,46.3592806,1.77734375
,46.3596685,1.8896484375
,46.3759648,1.9970703125
,46.4115194,2.080078125
,46.4185969,2.158203125
,46.4343776,2.2119140625
,46.4689094,2.2607421875
,46.4741501,2.2705078125
,46.5089074,2.2705078125
,46.5142624,2.2607421875
,46.548393,2.24609375
,46.5701183,2.2265625
,46.5771774,2.2119140625
,46.6241514,2.1875
,46.6245302,2.1630859375
,46.6399481,2.12890625
,46.6554513,2.08984375
,46.6751252,2.05078125
,46.7108516,2.0068359375
,46.71559,1.9580078125
,46.7519133,1.9091796875
,46.7567731,1.85546875
,46.7927434,1.806640625
,46.7966666,1.7578125
,46.8155609,1.7138671875
,46.8563355,1.6748046875
,46.8569089,1.630859375
,46.9046693,1.591796875
,46.9053059,1.552734375
,46.9154139,1.5087890625
,46.9488488,1.46484375
,46.9689843,1.4306640625
,46.9769159,1.4111328125
,46.9945229,1.4404296875
,47.0297386,1.5380859375
,47.0346098,1.66015625
,47.0703217,1.7919921875
,47.0895949,1.9091796875
,47.0970497,2.01171875
,47.1319132,2.0947265625
,47.1370178,2.1630859375
,47.1533762,2.2119140625
,47.1897771,2.24609375
,47.1966366,2.24609375
,47.2474258,2.2412109375
,47.2477913,2.2216796875
,47.2547876,2.20703125
,47.2897752,2.1923828125
,47.3103507,2.1728515625
,47.3174238,2.1533203125
,47.3511218,2.1240234375
,47.37117,2.08984375
,47.3743077,2.05078125
,47.4107018,2.01171875
,47.4147963,1.9677734375
,47.4510297,1.9189453125
,47.4561154,1.875
,47.4920231,1.826171875
,47.4980995,1.77734375
,47.5331986,1.7333984375
,47.5598221,1.6943359375
,47.5603235,1.6650390625
,47.576156,1.6357421875
,47.6121516,1.6015625
,47.6378433,1.5673828125
,47.6383276,1.5283203125
,47.6841716,1.494140625
,47.684714,1.4599609375
,47.7013944,1.435546875
,47.716803,1.4453125
,47.7505892,1.5185546875
,47.7552852,1.6357421875
,47.7931748,1.7724609375
,47.7976059,1.8896484375
,47.8321872,1.9970703125
,47.8368294,2.0849609375
,47.8723481,2.1630859375
,47.8919015,2.2216796875
,47.9004788,2.265625
,47.920544,2.2705078125
,47.9370223,2.2607421875
,47.9816362,2.2509765625
,47.9820599,2.2412109375
,47.9972639,2.2314453125
,48.0320545,2.216796875
,48.0520828,2.2021484375
,48.059691,2.1826171875
,48.1054742,2.1533203125
,48.1058533,2.1240234375
,48.1170681,2.08984375
,48.1529371,2.05078125
,48.1576165,2.01171875
,48.1923516,1.9677734375
,48.1969484,1.923828125
,48.2313931,1.8798828125
,48.2515077,1.8408203125
,48.2597435,1.806640625
,48.2783477,1.7724609375
,48.2968044,1.73828125
,48.3384641,1.7041015625
,48.3388393,1.669921875
,48.3580508,1.6357421875
,48.3939506,1.6015625
,48.4158771,1.5771484375
,48.4208024,1.58203125
,48.437286,1.630859375
,48.4771078,1.7431640625
,48.4776989,1.865234375
,48.510499,1.9873046875
,48.5321652,2.08984375
,48.5387436,2.1923828125
,48.5728371,2.2802734375
,48.5776031,2.34375
,48.6122007,2.3974609375
,48.6352296,2.4267578125
,48.6425194,2.4267578125
,48.6586107,2.4072265625
,48.7099301,2.392578125
,48.7105881,2.373046875
,48.7196593,2.3486328125
,48.753978,2.32421875
,48.7587847,2.294921875
,48.7960123,2.2607421875
,48.8012484,2.2216796875
,48.8180649,2.1728515625
,48.853594,2.1240234375
,48.859015,2.080078125
,48.895615,2.03125
,48.8974753,1.982421875
,48.9328117,1.93359375
,48.9536502,1.884765625
,48.9617691,1.8408203125
,48.9988519,1.8017578125
,48.9992134,1.7578125
,49.0174729,1.7236328125
,49.0524908,1.6796875
,49.0579248,1.640625
,49.0926142,1.6015625
,49.112858,1.5673828125
,49.1185002,1.5625
,49.1535162,1.611328125
,49.1725347,1.7041015625
,49.1769094,1.8310546875
,49.2137117,1.9580078125
,49.2181415,2.0654296875
,49.2544117,2.1630859375
,49.2604905,2.24609375
,49.2975058,2.314453125
,49.3012349,2.3681640625
,49.3386633,2.40234375
,49.3393186,2.412109375
,49.3621042,2.3876953125
,49.3789343,2.3583984375
,49.4134659,2.3388671875
,49.4184629,2.314453125
,49.4541634,2.294921875
,49.45873,2.265625
,49.4954859,2.2265625
,49.5165412,2.1875
,49.5224382,2.1435546875
,49.5420083,2.0947265625
,49.5588692,2.0458984375
,49.5937679,1.9970703125
,49.5987193,1.943359375
,49.6456616,1.89453125
,49.6461418,1.845703125
,49.6744782,1.8017578125
,49.6820483,1.7529296875
,49.7176829,1.7041015625
,49.7181567,1.6552734375
,49.753245,1.6064453125
,49.7733268,1.5625
,49.7798216,1.5185546875
,49.8155895,1.484375
,49.8204577,1.494140625
,49.8547111,1.5625
,49.8749669,1.6650390625
,49.8804314,1.7919921875
,49.9149752,1.9091796875
,49.9177839,2.021484375
,49.9546056,2.109375
,49.9858668,2.197265625
,49.9862394,2.265625
,50.0001254,2.3193359375
,50.0348857,2.3486328125
,50.0550893,2.3583984375
,50.0617015,2.3486328125
,50.082769,2.32421875
,50.1002272,2.2998046875
,50.1427245,2.28515625
,50.1432297,2.265625
,50.1606888,2.2412109375
,50.1956481,2.20703125
,50.2022442,2.1728515625
,50.2378718,2.12890625
,50.2443979,2.0849609375
,50.2623235,2.0361328125
,50.2810812,1.9873046875
,50.3158357,1.9384765625
,50.3185455,1.8896484375
,50.3576842,1.845703125
,50.3794014,1.8017578125
,50.379845,1.7578125
,50.4207603,1.7138671875
,50.4517365,1.6650390625
,50.4524393,1.62109375
,50.459529,1.5771484375
,50.4956098,1.5380859375
,50.5006477,1.4990234375
,50.5359986,1.494140625
,50.5614747,1.5380859375
,50.5619321,1.6357421875
,50.5966826,1.7529296875
,50.6175826,1.8798828125
,50.6180437,1.9873046875
,50.6563494,2.08984375
,50.6605091,2.1728515625
,50.6985615,2.255859375
,50.7214637,2.314453125
,50.7219223,2.3583984375
,50.7612103,2.373046875
,50.7616074,2.36328125
,50.7824881,2.34375
,50.8049175,2.32421875
,50.82548,2.2900390625
,50.841535,2.2607421875
,50.8773179,2.2412109375
,50.8799439,2.2119140625
,50.9170745,2.1728515625
,50.9214031,2.1337890625
,50.9575297,2.08984375
,50.9613836,2.041015625
,51.000597,1.9921875
,51.0009921,1.943359375
,51.0379648,1.8896484375
,51.0432805,1.8408203125
,51.0626693,1.7919921875
,51.0974031,1.7431640625
,51.1016319,1.69921875
,51.1375479,1.66015625
,51.1684153,1.6162109375
,51.1688176,1.572265625
,51.1801882,1.5283203125
,51.2307382,1.484375
,51.2310502,1.4404296875
,51.2611116,1.4111328125
,51.2615496,1.396484375
,51.3084562,1.4453125
,51.3087881,1.54296875
,51.3405483,1.669921875
,51.3409511,1.7919921875
,51.3783302,1.9140625
,51.3787,2.01171875
,51.4178487,2.099609375
,51.4477968,2.177734375
,51.4481106,2.2314453125
,51.4635532,2.2705078125
,51.4989349,2.2802734375
,51.5240244,2.2705078125
,51.524545,2.2509765625
,51.5462482,2.2265625
,51.5613869,2.197265625
,51.6028151,2.1826171875
,51.6032908,2.1630859375
,51.6223944,2.138671875
,51.6579869,2.1044921875
,51.6782317,2.0654296875
,51.6830833,2.0263671875
,51.7170049,1.9775390625
,51.7387899,1.93359375
,51.7392048,1.884765625
,51.7732377,1.8359375
,51.7950448,1.7919921875
,51.8039038,1.748046875
,51.8393461,1.708984375
,51.8660836,1.669921875
,51.8664526,1.630859375
,51.8858149,1.591796875
,51.9024746,1.5478515625
,51.9213153,1.5087890625
,51.9556295,1.474609375
,51.975928,1.455078125
,51.9832783,1.474609375
,52.0213289,1.5576171875
,52.0218703,1.6650390625
,52.0596888,1.796875
,52.0844316,1.9189453125
,52.0849368,2.0166015625
,52.1176165,2.109375
,52.121712,2.1826171875
,52.1544623,2.255859375
,52.1758448,2.2998046875
,52.1831428,2.3291015625
,52.2175542,2.32421875
,52.2383202,2.3095703125
,52.2435811,2.2900390625
,52.2647805,2.265625
,52.2841674,2.2412109375
,52.3031443,2.2265625
,52.3501292,2.2021484375
,52.3505784,2.1728515625
,52.3666913,2.138671875
,52.3866326,2.099609375
,52.4047921,2.05078125
,52.442249,2.0068359375
,52.4441026,1.9580078125
,52.4775781,1.9091796875
,52.4816182,1.865234375
,52.5165358,1.8212890625
,52.5374117,1.77734375
,52.5452484,1.73828125
,52.5830044,1.6943359375
,52.5834505,1.650390625
,52.6207805,1.6064453125
,52.6448336,1.5673828125
,52.6451653,1.5283203125
,52.6650706,1.50390625
,52.6836679,1.513671875
,52.7237492,1.58203125
,52.7241339,1.689453125
,52.7595217,1.8212890625
,52.7645466,1.9384765625
,52.800928,2.05078125
,52.8039566,2.1484375
,52.8239385,2.2412109375
,52.8444261,2.314453125
,52.8648872,2.3828125
,52.9095122,2.4169921875
,52.9098821,2.431640625
,52.9255613,2.421875
,52.9616878,2.412109375
,52.9672918,2.392578125
,52.9876679,2.3583984375
,53.0033051,2.3291015625
,53.0523201,2.3046875
,53.0526914,2.2705078125
,53.0663419,2.236328125
,53.0857506,2.1875
,53.1223072,2.138671875
,53.1265794,2.0849609375
,53.1612008,2.03125
,53.1672931,1.9775390625
,53.1839232,1.9189453125
,53.2247562,1.865234375
,53.2252375,1.81640625
,53.2453021,1.767578125
,53.2868601,1.7236328125
,53.287403,1.6748046875
,53.3350752,1.6259765625
,53.3354608,1.5771484375
,53.3470194,1.5283203125
,53.3635673,1.4794921875
,53.4123457,1.4404296875
,53.4128898,1.42578125
,53.4348565,1.46484375
,53.4465114,1.5576171875
,53.4661778,1.689453125
,53.5064653,1.81640625
,53.5069041,1.943359375
,53.5237797,2.05078125
,53.568198,2.158203125
,53.5686518,2.24609375
,53.5866576,2.3291015625
,53.6051375,2.3876953125
,53.6461986,2.4267578125
,53.6468348,2.431640625
,53.6939396,2.4267578125
,53.6945133,2.4072265625
,53.7070591,2.3828125
,53.7402614,2.353515625
,53.7623762,2.333984375
,53.7628649,2.3046875
,53.8004631,2.2705078125
,53.8295789,2.2314453125
,53.8305036,2.1875
,53.8457133,2.138671875
,53.8915728,2.0849609375
,53.8922962,2.03125
,53.9051232,1.97265625
,53.9555101,1.9189453125
,53.9558496,1.8701171875
,53.9668901,1.81640625
,54.0168351,1.767578125
,54.0173385,1.71875
,54.026167,1.6748046875
,54.0632891,1.630859375
,54.0673539,1.5869140625
,54.1007128,1.5380859375
,54.1027349,1.4892578125
,54.1539638,1.4453125
,54.1543738,1.4111328125
,54.174989,1.4111328125
,54.1846176,1.474609375
,54.2195376,1.58203125
,54.2411631,1.7138671875
,54.2415558,1.8408203125
,54.2798274,1.9677734375
,54.3090684,2.0703125
,54.3094676,2.16796875
,54.3260258,2.255859375
,54.3627764,2.3193359375
,54.3657156,2.373046875
,54.4160509,2.392578125
,54.4166299,2.3876953125
,54.436264,2.373046875
,54.4477975,2.34375
,54.4655658,2.3193359375
,54.5029634,2.294921875
,54.5053659,2.2705078125
,54.5562875,2.2412109375
,54.5567566,2.197265625
,54.5874674,2.1533203125
,54.5881294,2.1044921875
,54.6237182,2.0556640625
,54.6489026,2.0068359375
,54.6496647,1.9482421875
,54.6649894,1.8994140625
,54.7025934,1.8505859375
,54.7079087,1.796875
,54.7285126,1.748046875
,54.7474516,1.7041015625
,54.7875846,1.6552734375
,54.7880545,1.6162109375
,54.8059697,1.5673828125
,54.8431062,1.5234375
,54.8441758,1.4794921875
,54.8804974,1.435546875
,54.9012115,1.40625
,54.9073915,1.40625
,54.9435201,1.4599609375
,54.9480441,1.5673828125
,54.9831461,1.6943359375
,55.0050575,1.8115234375
,55.0054289,1.923828125
,55.0412553,2.021484375
,55.0663274,2.1044921875
,55.0669474,2.1728515625
,55.1133496,2.2314453125
,55.1137322,2.2607421875
,55.1267244,2.265625
,55.1503457,2.24609375
,55.1711059,2.2216796875
,55.18606,2.2021484375
,55.2235739,2.1875
,55.22783,2.16796875
,55.2629858,2.1484375
,55.2700852,2.119140625
,55.3174089,2.0849609375
,55.3177819,2.041015625
,55.3283274,2.001953125
,55.3659291,1.953125
,55.3664984,1.8994140625
,55.402839,1.8505859375
,55.407366,1.8017578125
,55.4434047,1.7529296875
,55.4476325,1.7041015625
,55.4832935,1.6650390625
,55.4905518,1.62109375
,55.5248601,1.5771484375
,55.5537063,1.5380859375
,55.5540495,1.4990234375
,55.5666214,1.46484375
,55.6153412,1.42578125
,55.6156943,1.40625
,55.6296667,1.4306640625
,55.648741,1.513671875
,55.6847849,1.630859375
,55.6894467,1.7626953125
,55.7064048,1.8798828125
,55.7273302,1.9970703125
,55.7468455,2.08984375
,55.7677467,2.1826171875
,55.8064723,2.2509765625
,55.8070397,2.3095703125
,55.8428464,2.333984375
,55.8643696,2.34375
,55.8717008,2.32421875
,55.8904465,2.2998046875
,55.9396523,2.2802734375
,55.940228,2.2607421875
,55.9475927,2.2412109375
,55.9834621,2.216796875
,56.01884,2.1826171875
,56.0192281,2.1484375
,56.0301593,2.1044921875
,56.0795938,2.060546875
,56.0800637,2.0166015625
,56.0866425,1.9677734375
,56.1222687,1.923828125
,56.1564148,1.8798828125
,56.1570084,1.8359375
,56.170508,1.787109375
,56.1892984,1.748046875
,56.2330756,1.7041015625
,56.2334676,1.6650390625
,56.2519461,1.6259765625
,56.268095,1.5869140625
,56.2891266,1.5478515625
,56.3245884,1.5185546875
,56.3285898,1.50390625
,56.3623614,1.5380859375
,56.3840351,1.630859375
,56.3904474,1.748046875
,56.4256952,1.8798828125
,56.4261253,1.9970703125
,56.46208,2.109375
,56.4837943,2.20703125
,56.4883871,2.294921875
,56.5298867,2.373046875
,56.5302477,2.4267578125
,56.5783202,2.4560546875
,56.5786938,2.4560546875
,56.6081762,2.4365234375
,56.6112822,2.4169921875
,56.63117,2.3974609375
,56.6474277,2.373046875
,56.6850641,2.353515625
,56.6896277,2.3193359375
,56.7346422,2.2802734375
,56.7350017,2.2412109375
,56.7502629,2.1923828125
,56.7852183,2.138671875
,56.8069787,2.0849609375
,56.8077179,2.03125
,56.8561489,1.9775390625
,56.8565896,1.923828125
,56.877263,1.875
,56.8902655,1.8212890625
,56.9335377,1.77734375
,56.9342608,1.73828125
,56.9505564,1.6943359375
,56.994774,1.650390625
,56.9952824,1.6064453125
,57.0156989,1.5625
,57.0295243,1.5234375
,57.0723961,1.484375
,57.0727841,1.4599609375
,57.1058768,1.484375
,57.1100784,1.5576171875
,57.1453985,1.6796875
,57.166461,1.806640625
,57.1669817,1.943359375
,57.2024525,2.060546875
,57.222716,2.1630859375
,57.2289439,2.255859375
,57.2746192,2.3388671875
,57.2750286,2.40234375
,57.2951696,2.44140625
,57.31117,2.451171875
,57.3469225,2.44140625
,57.368748,2.421875
,57.3691793,2.40234375
,57.4010955,2.3828125
,57.4220518,2.353515625
,57.430273,2.3291015625
,57.4781669,2.2900390625
,57.4785395,2.2509765625
,57.4919506,2.20703125
,57.5262813,2.1533203125
,57.5469527,2.099609375
,57.5473875,2.0458984375
,57.5822411,1.9921875
,57.6021555,1.943359375
,57.6113559,1.8896484375
,57.6463287,1.8408203125
,57.6522848,1.7919921875
,57.6721253,1.748046875
,57.7059897,1.708984375
,57.7267905,1.6650390625
,57.7293958,1.62109375
,57.7719663,1.58203125
,57.7726142,1.5380859375
,57.8059056,1.4990234375
,57.8110145,1.4599609375
,57.845704,1.4404296875
,57.8687272,1.474609375
,57.8736523,1.5673828125
,57.8902189,1.6845703125
,57.9108244,1.8212890625
,57.9452315,1.9384765625
,57.9493746,2.0556640625
,57.9835561,2.1533203125
,58.0059635,2.2509765625
,58.0131209,2.32421875
,58.0482145,2.3828125
,58.0530083,2.412109375
,58.088494,2.4169921875
,58.0890252,2.40234375
,58.1297435,2.3828125
,58.1604742,2.36328125
,58.1610707,2.34375
,58.1723859,2.3193359375
,58.2211966,2.2900390625
,58.2216592,2.2509765625
,58.2316472,2.2119140625
,58.2830681,2.158203125
,58.2838052,2.109375
,58.2914758,2.060546875
,58.3278849,2.01171875
,58.3309421,1.953125
,58.3653728,1.8994140625
,58.3862951,1.845703125
,58.3957493,1.796875
,58.4139617,1.748046875
,58.429095,1.708984375
,58.4690656,1.6650390625
,58.4983762,1.6259765625
,58.4988322,1.5771484375
,58.5131029,1.533203125
,58.5477139,1.4892578125
,58.5532235,1.4501953125
,58.5891808,1.4111328125
,58.5936964,1.4111328125
,58.6111218,1.4599609375
,58.6481525,1.572265625
,58.651187,1.6943359375
,58.689586,1.826171875
,58.6899528,1.943359375
,58.7268033,2.05078125
,58.7475838,2.138671875
,58.7538136,2.216796875
,58.7737742,2.2802734375
,58.8082389,2.314453125
,58.8288165,2.3291015625
,58.831558,2.32421875
,58.8506549,2.314453125
,58.8846134,2.2998046875
,58.9064294,2.28515625
,58.9115303,2.265625
,58.9443889,2.2412109375
,58.9667658,2.2119140625
,58.9752233,2.177734375
,58.9922937,2.138671875
,59.0270402,2.0947265625
,59.0317957,2.05078125
,59.0675679,2.001953125
,59.0716272,1.953125
,59.1074542,1.8994140625
,59.1275116,1.8505859375
,59.1342112,1.8017578125
,59.1692601,1.7578125
,59.1696339,1.7138671875
,59.1932869,1.6748046875
,59.2282104,1.6357421875
,59.2334251,1.591796875
,59.2539435,1.552734375
,59.2903648,1.5087890625
,59.2950764,1.4697265625
,59.3140265,1.4404296875
,59.3306206,1.435546875
,59.3721377,1.4892578125
,59.3724987,1.591796875
,59.3974307,1.7236328125
,59.4134281,1.8505859375
,59.4489327,1.97265625
,59.4541175,2.080078125
,59.4891653,2.16796875
,59.5107845,2.2509765625
,59.5152949,2.3193359375
,59.5520397,2.36328125
,59.5524062,2.3779296875
,59.5890696,2.3779296875
,59.5931221,2.36328125
,59.6285328,2.34375
,59.6334191,2.3291015625
,59.6696821,2.3046875
,59.6756688,2.2802734375
,59.6953336,2.2509765625
,59.7116313,2.2119140625
,59.7590361,2.1728515625
,59.7594131,2.1337890625
,59.7719187,2.0849609375
,59.8084733,2.0361328125
,59.8152193,1.982421875
,59.8516821,1.93359375
,59.8545615,1.8798828125
,59.8908132,1.8310546875
,59.891179,1.7822265625
,59.9257675,1.7431640625
,59.9474707,1.69921875
,59.9534535,1.66015625
,59.9888673,1.6162109375
,59.9955483,1.572265625
,60.0307189,1.533203125
,60.0355533,1.4892578125
,60.0503169,1.4501953125
,60.0855979,1.4208984375
,60.1061309,1.4208984375
,60.1151511,1.484375
,60.1331293,1.5966796875
,60.1679658,1.7236328125
,60.1886718,1.865234375
,60.1956285,1.982421875
,60.2401344,2.099609375
,60.2405196,2.1923828125
,60.2564098,2.28515625
,60.2736894,2.3583984375
,60.3088487,2.412109375
,60.3154811,2.4365234375
,60.3515452,2.4462890625
,60.3544376,2.431640625
,60.3896293,2.4169921875
,60.4104369,2.3974609375
,60.4156836,2.373046875
,60.4512738,2.3486328125
,60.4517273,2.314453125
,60.4870282,2.2802734375
,60.5058776,2.2412109375
,60.5144726,2.1923828125
,60.5496947,2.1435546875
,60.5542943,2.0849609375
,60.5905395,2.03125
,60.6118934,1.9775390625
,60.6122807,1.923828125
,60.6601284,1.8701171875
,60.660491,1.8212890625
,60.6907532,1.7724609375
,60.6949668,1.728515625
,60.7300642,1.6845703125
,60.7512709,1.640625
,60.7574353,1.5966796875
,60.7980894,1.5478515625
,60.79846,1.50390625
,60.812124,1.4599609375
,60.8611961,1.4208984375
,60.8615688,1.38671875
,60.8772881,1.3671875
,60.9100547,1.396484375
,60.9148935,1.4892578125
,60.951388,1.6259765625
,60.9851088,1.7626953125
,60.9854157,1.904296875
,60.9935134,2.0263671875
,61.0275126,2.138671875
,61.0489934,2.24609375
,61.0548456,2.3291015625
,61.0904565,2.40234375
,61.0961154,2.4462890625
,61.1160996,2.4609375
,61.1498147,2.4609375
,61.1730363,2.4462890625
,61.1734036,2.4267578125
,61.2092968,2.412109375
,61.2294885,2.3828125
,61.2345075,2.3583984375
,61.2708226,2.3193359375
,61.2776626,2.2802734375
,61.3235362,2.2314453125
,61.324194,2.1826171875
,61.335134,2.12890625
,61.3698204,2.0751953125
,61.3744118,2.0263671875
,61.4165409,1.97265625
,61.4171336,1.9189453125
,61.4376602,1.865234375
,61.4795329,1.8115234375
,61.4801558,1.7626953125
,61.4986679,1.71875
,61.5133998,1.6748046875
,61.546784,1.6357421875
,61.56736,1.591796875
,61.5750083,1.5478515625
,61.6127717,1.5087890625
,61.6174501,1.4697265625
,61.6525014,1.4306640625
,61.6576336,1.3916015625
,61.6969178,1.3720703125
,61.6972978,1.4013671875
,61.7179027,1.494140625
,61.7355208,1.6162109375
,61.7718876,1.7578125
,61.7747371,1.8896484375
,61.8115846,2.01171875
,61.8165726,2.1142578125
,61.853287,2.2119140625
,61.8578115,2.2900390625
,61.8926719,2.353515625
,61.8930378,2.3876953125
,61.9142349,2.40234375
,61.9500686,2.392578125
,61.9552425,2.3828125
,61.9916907,2.36328125
,62.0126879,2.3486328125
,62.0178717,2.32421875
,62.0391465,2.2998046875
,62.075769300000005,2.265625
,62.0763714,2.2265625
,62.11139420000001,2.1875
,62.115781600000005,2.1435546875
,62.16646299999999,2.0947265625
,62.1669517,2.0458984375
,62.1773182,1.9921875
,62.212595199999996,1.943359375
,62.2175175,1.89453125
,62.2361343,1.8505859375
,62.2553231,1.8115234375
,62.289044000000004,1.7724609375
,62.3093123,1.7333984375
,62.316693099999995,1.6943359375
,62.352350099999995,1.650390625
,62.3566881,1.611328125
,62.391592,1.572265625
,62.412298899999996,1.5380859375
,62.420181400000004,1.50390625
,62.456894199999994,1.484375
,62.457491399999995,1.5087890625
,62.5083245,1.5966796875
,62.50874,1.7138671875
,62.5189489,1.8505859375
,62.5553994,1.9677734375
,62.5586316,2.0849609375
,62.59299969999999,2.1875
,62.5981824,2.2802734375
,62.614867000000004,2.353515625
,62.6518157,2.4169921875
,62.656853600000005,2.4560546875
,62.677310399999996,2.4609375
,62.696928299999996,2.4462890625
,62.731497899999994,2.4267578125
,62.7523513,2.4072265625
,62.760654,2.3828125
,62.7972532,2.353515625
,62.797614300000006,2.32421875
,62.816688,2.28515625
,62.852353300000004,2.24609375
,62.8577049,2.197265625
,62.895849600000005,2.1435546875
,62.896433,2.0947265625
,62.9471578,2.041015625
,62.947537,1.982421875
,62.96307349999999,1.9287109375
,62.9767569,1.875
,63.0109724,1.8212890625
,63.031259899999995,1.7724609375
,63.039393200000006,1.7236328125
,63.0731868,1.6748046875
,63.07792379999999,1.630859375
,63.11199379999999,1.5869140625
,63.1320551,1.5380859375
,63.13953909999999,1.494140625
,63.1756944,1.4501953125
,63.1760549,1.40625
,63.2108183,1.3720703125
,63.2313137,1.3671875
,63.23818850000001,1.4306640625
,63.273278700000006,1.533203125
,63.280871399999995,1.6748046875
,63.299170700000005,1.81640625
,63.3342315,1.943359375
,63.3547894,2.060546875
,63.356959200000006,2.1630859375
,63.379266900000005,2.2607421875
,63.398929800000005,2.3388671875
,63.449572599999996,2.40234375
,63.44994440000001,2.431640625
,63.460594900000004,2.44140625
,63.4956222,2.431640625
,63.50051740000001,2.412109375
,63.515664900000004,2.3876953125
,63.5494475,2.3681640625
,63.569143,2.34375
,63.579066100000006,2.3095703125
,63.6214351,2.2705078125
,63.621919000000005,2.2265625
,63.65762960000001,2.177734375
,63.6582178,2.12890625
,63.6984078,2.0751953125
,63.698775499999996,2.0166015625
,63.7204198,1.962890625
,63.7387057,1.9091796875
,63.7749766,1.85546875
,63.77999199999999,1.8017578125
,63.815161,1.748046875
,63.819474400000004,1.6943359375
,63.8552784,1.6455078125
,63.8759883,1.5966796875
,63.88119639999999,1.552734375
,63.8975746,1.50390625
,63.9347408,1.46484375
,63.9395131,1.4208984375
,63.979363199999995,1.376953125
,63.98032499999999,1.3330078125
,64.000062,1.2939453125
,64.0419818,1.2646484375
,64.0423627,1.2939453125
,64.0629726,1.3916015625
,64.0773837,1.5234375
,64.1130178,1.6748046875
,64.1194148,1.81640625
,64.1571287,1.9482421875
,64.1577222,2.060546875
,64.1954781,2.16796875
,64.2296349,2.2607421875
,64.2302338,2.3388671875
,64.2421908,2.3876953125
,64.2599402,2.40234375
,64.2961124,2.40234375
,64.2966509,2.392578125
,64.3328196,2.373046875
,64.3528193,2.353515625
,64.3605545,2.333984375
,64.3968307,2.3046875
,64.4021398,2.2705078125
,64.417298,2.236328125
,64.452402,2.197265625
,64.4742497,2.1484375
,64.4782646,2.099609375
,64.5255148,2.0458984375
,64.5259232,1.9873046875
,64.5453548,1.93359375
,64.5633131,1.884765625
,64.5996279,1.8310546875
,64.6000393,1.77734375
,64.6399065,1.728515625
,64.6403153,1.6796875
,64.6757647,1.630859375
,64.6797149,1.591796875
,64.7133355,1.5478515625
,64.7400458,1.5087890625
,64.7406172,1.46484375
,64.7762119,1.42578125
,64.7971442,1.3916015625
,64.7977764,1.3623046875
,64.8325076,1.3818359375
,64.8528635,1.455078125
,64.8588162,1.5771484375
,64.8955449,1.7236328125
,64.9162794,1.85546875
,64.9213274,1.9775390625
,64.9554234,2.0849609375
,64.9755882,2.1826171875
,64.978012,2.265625
,65.0142565,2.333984375
,65.0193537,2.3779296875
,65.0555116,2.392578125
,65.0611568,2.3876953125
,65.0959241,2.373046875
,65.1012222,2.3583984375
,65.1467519,2.34375
,65.1470759,2.3193359375
,65.1665626,2.294921875
,65.1799689,2.265625
,65.2251082,2.2314453125
,65.2254757,2.1875
,65.2411661,2.1435546875
,65.2857055,2.0947265625
,65.2860826,2.041015625
,65.302975,1.9873046875
,65.3242496,1.93359375
,65.3438707,1.8798828125
,65.3587865,1.8310546875
,65.3940396,1.7822265625
,65.4142764,1.73828125
,65.4222343,1.6943359375
,65.4597397,1.650390625
,65.4603156,1.611328125
,65.4980786,1.5673828125
,65.5190291,1.5185546875
,65.5218905,1.474609375
,65.5408733,1.435546875
,65.5780223,1.40625
,65.5823489,1.4208984375
,65.6020822,1.4990234375
,65.6436035,1.611328125
,65.6440006,1.748046875
,65.6633016,1.875
,65.6993377,1.9921875
,65.6998002,2.0947265625
,65.7348509,2.1923828125
,65.75503,2.2705078125
,65.7620145,2.3388671875
,65.7982556,2.3828125
,65.8007007,2.3974609375
,65.8363792,2.3876953125
,65.8638406,2.3779296875
,65.8642912,2.3583984375
,65.8817606,2.333984375
,65.9012174,2.314453125
,65.9364725,2.28515625
,65.9569534,2.2509765625
,65.9614616,2.2119140625
,65.9977672,2.16796875
,66.0027539,2.119140625
,66.040392,2.0654296875
,66.0449923,2.01171875
,66.0808978,1.953125
,66.081385,1.8994140625
,66.1293192,1.845703125
,66.1297776,1.796875
,66.1428364,1.748046875
,66.1753333,1.708984375
,66.1979404,1.6650390625
,66.2049946,1.62109375
,66.2408403,1.5771484375
,66.2453248,1.533203125
,66.2609918,1.4892578125
,66.298206,1.4501953125
,66.3000506,1.4111328125
,66.3465782,1.3720703125
,66.3471267,1.3671875
,66.3766275,1.416015625
,66.3844503,1.5185546875
,66.4194774,1.6552734375
,66.4198494,1.7919921875
,66.4561087,1.9287109375
,66.4756023,2.041015625
,66.4809708,2.1533203125
,66.5166058,2.24609375
,66.5362719,2.3193359375
,66.5430332,2.3779296875
,66.579177,2.4072265625
,66.599026,2.412109375
,66.5993998,2.40234375
,66.6343811,2.3828125
,66.6543272,2.36328125
,66.6623781,2.34375
,66.6970897,2.3193359375
,66.702212,2.28515625
,66.7362293,2.2509765625
,66.7562323,2.20703125
,66.7647486,2.1630859375
,66.7990098,2.109375
,66.8185939,2.0556640625
,66.8221202,2.001953125
,66.8580603,1.9482421875
,66.8628761,1.8994140625
,66.8984098,1.845703125
,66.9034275,1.7919921875
,66.9375141,1.7431640625
,66.9572482,1.6943359375
,66.9644814,1.6455078125
,66.9821939,1.6015625
,67.0177037,1.5625
,67.0226891,1.5185546875
,67.0611382,1.4794921875
,67.0622077,1.4404296875
,67.0976412,1.4013671875
,67.1177852,1.3623046875
,67.1247637,1.34765625
,67.1609646,1.3916015625
,67.1615669,1.4892578125
,67.195997,1.6259765625
,67.2164939,1.7578125
,67.2243678,1.8896484375
,67.2594261,2.001953125
,67.2645622,2.1044921875
,67.3026317,2.1923828125
,67.3030583,2.265625
,67.3479744,2.3193359375
,67.3483381,2.353515625
,67.362888,2.3583984375
,67.4086099,2.3486328125
,67.409054,2.333984375
,67.4252344,2.3193359375
,67.4617647,2.2998046875
,67.4642938,2.2802734375
,67.5008259,2.255859375
,67.5060398,2.2216796875
,67.5412903,2.1875
,67.541646,2.1484375
,67.5621867,2.099609375
,67.6104197,2.0556640625
,67.6107837,2.0068359375
,67.6325596,1.9580078125
,67.6468818,1.9091796875
,67.6663542,1.8603515625
,67.7022071,1.81640625
,67.7029355,1.7724609375
,67.7511241,1.73828125
,67.7514891,1.69921875
,67.7641145,1.66015625
,67.7982759,1.62109375
,67.8186915,1.58203125
,67.8248606,1.54296875
,67.86108,1.5087890625
,67.8815854,1.484375
,67.8820833,1.5087890625
,67.923162,1.591796875
,67.9534777,1.708984375
,67.9541152,1.8359375
,67.9656009,1.953125
,68.0022497,2.0654296875
,68.0038622,2.158203125
,68.0399697,2.2509765625
,68.060505,2.32421875
,68.0660337,2.3828125
,68.0832279,2.421875
,68.1196463,2.4267578125
,68.1394409,2.421875
,68.145225,2.4072265625
,68.1795794,2.392578125
,68.2015424,2.3681640625
,68.205754,2.34375
,68.2412949,2.314453125
,68.2469757,2.2802734375
,68.2639953,2.236328125
,68.2994152,2.197265625
,68.3040655,2.1484375
,68.3396623,2.099609375
,68.3452406,2.05078125
,68.3897277,1.9970703125
,68.3901662,1.9482421875
,68.4051018,1.89453125
,68.4406726,1.845703125
,68.4674678,1.796875
,68.4679713,1.7529296875
,68.4848535,1.7138671875
,68.5313841,1.669921875
,68.5318668,1.630859375
,68.5470468,1.5869140625
,68.5814993,1.5478515625
,68.5886301,1.50390625
,68.6033197,1.4697265625
,68.6405503,1.474609375
,68.6433003,1.533203125
,68.6876813,1.6455078125
,68.6880547,1.767578125
,68.7074127,1.8994140625
,68.7424806,2.0166015625
,68.7478816,2.119140625
,68.7983762,2.2216796875
,68.7989233,2.3046875
,68.807387,2.3876953125
,68.8264121,2.4365234375
,68.8620057,2.4609375
,68.8660852,2.4658203125
,68.9003312,2.4560546875
,68.9205457,2.4365234375
,68.9286241,2.4169921875
,68.9492981,2.392578125
,68.9686868,2.36328125
,68.9854745,2.3291015625
,69.020045,2.28515625
,69.0256892,2.2412109375
,69.0608357,2.1923828125
,69.066256,2.1435546875
,69.1042807,2.08984375
,69.1049961,2.0361328125
,69.1499798,1.9775390625
,69.1504936,1.923828125
,69.171687,1.8701171875
,69.1846783,1.8212890625
,69.2279794,1.7724609375
,69.2285601,1.728515625
,69.2616086,1.6796875
,69.2666399,1.6357421875
,69.3013704,1.591796875
,69.3218756,1.5478515625
,69.3225492,1.50390625
,69.3583499,1.4599609375
,69.3783881,1.416015625
,69.3854988,1.3818359375
,69.4300889,1.3671875
,69.4307049,1.40625
,69.4489724,1.513671875
,69.4845284,1.640625
,69.4897381,1.7822265625
,69.5057824,1.9091796875
,69.5417888,2.0361328125
,69.5474683,2.1435546875
,69.5672119,2.24609375
,69.601223,2.3291015625
,69.622784,2.40234375
,69.627265,2.4365234375
,69.666969,2.451171875
,69.6981409,2.44140625
,69.698744,2.421875
,69.7108729,2.40234375
,69.7276073,2.3779296875
,69.7471769,2.353515625
,69.782433,2.3193359375
,69.7876346,2.28515625
,69.8227031,2.2412109375
,69.8502746,2.1923828125
,69.850644,2.1435546875
,69.8684205,2.08984375
,69.9017424,2.03125
,69.9059845,1.9775390625
,69.9494561,1.923828125
,69.9500664,1.8701171875
,69.9671572,1.81640625
,70.0026627,1.7626953125
,70.0106075,1.7138671875
,70.0288787,1.6650390625
,70.0500703,1.62109375
,70.0646256,1.58203125
,70.0986064,1.54296875
,70.1191083,1.5087890625
,70.1280101,1.46484375
,70.1660117,1.42578125
,70.1664811,1.38671875
,70.2031771,1.34765625
,70.2241154,1.318359375
,70.2245877,1.30859375
,70.2595657,1.357421875
,70.2798617,1.4599609375
,70.287001,1.6015625
,70.325024,1.7333984375
,70.3278194,1.8701171875
,70.3621373,1.9921875
,70.3824106,2.0947265625
,70.3893217,2.1875
,70.425068,2.2607421875
,70.4305918,2.3193359375
,70.4476349,2.3486328125
,70.48325,2.3583984375
,70.4862042,2.353515625
,70.5219228,2.3388671875
,70.5418914,2.32421875
,70.5490569,2.3046875
,70.6008285,2.2802734375
,70.6012596,2.255859375
,70.6079173,2.2265625
,70.6479845,2.1875
,70.6483584,2.1435546875
,70.6815615,2.0947265625
,70.7020369,2.0458984375
,70.7089909,1.9970703125
,70.7461499,1.943359375
,70.7481165,1.8896484375
,70.7836828,1.8408203125
,70.8177873,1.7919921875
,70.8183909,1.748046875
,70.8282944,1.708984375
,70.8669391,1.6650390625
,70.8675479,1.6259765625
,70.9111772,1.5869140625
,70.9117687,1.54296875
,70.9310246,1.4990234375
,70.9475387,1.455078125
,70.967606,1.4208984375
,71.003184,1.3916015625
,71.0328758,1.3916015625
,71.0332801,1.4501953125
,71.0500972,1.5576171875
,71.0959868,1.689453125
,71.0965323,1.81640625
,71.1101487,1.943359375
,71.1582025,2.0458984375
,71.1585824,2.138671875
,71.16819,2.216796875
,71.2025322,2.2900390625
,71.2076157,2.3388671875
,71.241546,2.3583984375
,71.2632485,2.353515625
,71.2709559,2.34375
,71.3061119,2.32421875
,71.3093238,2.3046875
,71.3442196,2.2802734375
,71.364914,2.255859375
,71.3676937,2.2265625
,71.4021008,2.1923828125
,71.4245349,2.1484375
,71.4291133,2.1044921875
,71.4687423,2.0556640625
,71.4691345,2.001953125
,71.4892964,1.953125
,71.507893,1.89453125
,71.5288107,1.845703125
,71.5633401,1.796875
,71.5851684,1.7431640625
,71.5898987,1.6943359375
,71.6263411,1.650390625
,71.6291822,1.6064453125
,71.6643928,1.5625
,71.6861119,1.5185546875
,71.6864961,1.474609375
,71.7226597,1.42578125
,71.742054,1.38671875
,71.7494069,1.34765625
,71.7850263,1.318359375
,71.7910407,1.328125
,71.8274453,1.396484375
,71.8296415,1.5185546875
,71.8648435,1.6552734375
,71.8870511,1.8017578125
,71.8878021,1.923828125
,71.9358555,2.041015625
,71.9362229,2.1435546875
,71.9497939,2.2314453125
,71.9852018,2.3046875
,72.0046979,2.3583984375
,72.0089669,2.3876953125
,72.04557,2.392578125
,72.0661878,2.3828125
,72.0688345,2.36328125
,72.106941,2.3486328125
,72.1075469,2.3291015625
,72.1431139,2.3095703125
,72.1698943,2.2802734375
,72.1704889,2.24609375
,72.206413,2.2021484375
,72.2306329,2.158203125
,72.2310154,2.109375
,72.2470274,2.0556640625
,72.2826061,2.0068359375
,72.30287,1.953125
,72.3094799,1.904296875
,72.3451789,1.8505859375
,72.3502354,1.8017578125
,72.3858457,1.7529296875
,72.4066028,1.7041015625
,72.4096491,1.66015625
,72.4299484,1.62109375
,72.4654272,1.58203125
,72.492014,1.5380859375
,72.4923782,1.494140625
,72.5115082,1.4501953125
,72.5321775,1.4111328125
,72.5710079,1.3671875
,72.5714051,1.337890625
,72.5908697,1.34765625
,72.6251749,1.42578125
,72.6455853,1.54296875
,72.6505213,1.6943359375
,72.6868208,1.8310546875
,72.6919112,1.962890625
,72.7295863,2.0703125
,72.7301864,2.1728515625
,72.7672525,2.2607421875
,72.7723771,2.3388671875
,72.8077414,2.392578125
,72.8082247,2.4267578125
,72.843068,2.4267578125
,72.8638773,2.4169921875
,72.8697291,2.3974609375
,72.9165493,2.3828125
,72.9169148,2.3583984375
,72.9363252,2.333984375
,72.9535039,2.3046875
,72.9702424,2.2705078125
,73.0055244,2.2265625
,73.0400533,2.1826171875
,73.0405357,2.12890625
,73.052594,2.0751953125
,73.0892731,2.021484375
,73.0923818,1.9677734375
,73.1277258,1.9091796875
,73.1280899,1.85546875
,73.1645417,1.806640625
,73.1846389,1.7626953125
,73.1914863,1.7138671875
,73.2281792,1.669921875
,73.2299353,1.6259765625
,73.2719546,1.5869140625
,73.301359,1.54296875
,73.3018,1.4990234375
,73.3134969,1.455078125
,73.36349,1.4111328125
,73.3638612,1.3720703125
,73.3847164,1.3427734375
,73.3923825,1.337890625
,73.4281912,1.396484375
,73.4298276,1.50390625
,73.4656475,1.6455078125
,73.4860838,1.77734375
,73.4940576,1.904296875
,73.5106534,2.01171875
,73.5454374,2.109375
,73.5517452,2.1923828125
,73.5882657,2.2607421875
,73.5923856,2.3095703125
,73.6286987,2.3291015625
,73.6345266,2.3291015625
,73.6710969,2.314453125
,73.6754447,2.2998046875
,73.691728,2.28515625
,73.7264711,2.2705078125
,73.7311718,2.2509765625
,73.7648908,2.2265625
,73.7921311,2.197265625
,73.7926792,2.1630859375
,73.8400132,2.1240234375
,73.8404375,2.0751953125
,73.853523,2.03125
,73.8705138,1.982421875
,73.9040633,1.93359375
,73.9250276,1.875
,73.9328314,1.8310546875
,73.9676166,1.787109375
,73.9723263,1.748046875
,74.0075368,1.708984375
,74.0271724,1.669921875
,74.0360437,1.630859375
,74.0699975,1.5869140625
,74.0703788,1.5478515625
,74.1100136,1.5087890625
,74.1106106,1.4697265625
,74.1448544,1.435546875
,74.1667256,1.4306640625
,74.1735354,1.484375
,74.2086372,1.591796875
,74.2149851,1.7138671875
,74.252056,1.845703125
,74.2524469,1.9580078125
,74.289751,2.0654296875
,74.2941331,2.1533203125
,74.3364487,2.2314453125
,74.3370425,2.2998046875
,74.3554265,2.3486328125
,74.3983209,2.3681640625
,74.3987125,2.36328125
,74.4126187,2.3486328125
,74.4316645,2.3291015625
,74.4669203,2.314453125
,74.4873014,2.2900390625
,74.4923806,2.2705078125
,74.5280925,2.2412109375
,74.5481331,2.20703125
,74.5556991,2.16796875
,74.5909243,2.1240234375
,74.5916332,2.0751953125
,74.6278599,2.03125
,74.6327085,1.97265625
,74.6758508,1.923828125
,74.6764738,1.8798828125
,74.7110575,1.8359375
,74.7154773,1.7919921875
,74.7542141,1.748046875
,74.7547672,1.708984375
,74.7930533,1.6650390625
,74.7935222,1.6259765625
,74.8122817,1.5869140625
,74.8475058,1.5478515625
,74.8674059,1.50390625
,74.8743215,1.46484375
,74.9093455,1.42578125
,74.9153895,1.3916015625
,74.9494216,1.38671875
,74.9716398,1.4404296875
,74.9722151,1.552734375
,75.0174901,1.69921875
,75.01809,1.8310546875
,75.0335584,1.962890625
,75.0702357,2.0703125
,75.0752819,2.1728515625
,75.112994,2.255859375
,75.115715,2.3291015625
,75.1527386,2.3876953125
,75.1531433,2.4169921875
,75.2033181,2.421875
,75.2040376,2.412109375
,75.2151875,2.3974609375
,75.2667121,2.3779296875
,75.2672086,2.3583984375
,75.2752311,2.333984375
,75.3104282,2.3046875
,75.3302175,2.2705078125
,75.336499,2.236328125
,75.3533093,2.1826171875
,75.3903012,2.138671875
,75.392484,2.0947265625
,75.4358227,2.0458984375
,75.4361869,1.9970703125
,75.4572067,1.953125
,75.4775427,1.904296875
,75.5123456,1.85546875
,75.5176023,1.806640625
,75.5353137,1.7626953125
,75.5782613,1.7236328125
,75.5787745,1.6796875
,75.5962923,1.640625
,75.6412055,1.5966796875
,75.6418342,1.552734375
,75.6561553,1.5087890625
,75.7005317,1.4697265625
,75.7009065,1.4306640625
,75.7128466,1.4208984375
,75.7494408,1.455078125
,75.7786925,1.5576171875
,75.779126,1.6943359375
,75.7968114,1.8310546875
,75.8405029,1.9580078125
,75.84088,2.0654296875
,75.8565285,2.1728515625
,75.8752627,2.2607421875
,75.8944356,2.34375
,75.9143769,2.40234375
,75.9354952,2.4462890625
,75.9789167,2.4560546875
,75.9794759,2.451171875
,75.9990395,2.4365234375
,76.0166672,2.4169921875
,76.0336652,2.3974609375
,76.071747,2.3779296875
,76.0766154,2.3388671875
,76.0954926,2.314453125
,76.1300917,2.275390625
,76.135358,2.236328125
,76.1723664,2.1875
,76.1757734,2.138671875
,76.2125469,2.08984375
,76.2323265,2.0361328125
,76.2391479,1.9873046875
,76.2549291,1.93359375
,76.2901576,1.884765625
,76.2950689,1.8408203125
,76.3303701,1.796875
,76.3371628,1.7578125
,76.38725,1.7138671875
,76.3878408,1.6748046875
,76.3971399,1.630859375
,76.4325532,1.5869140625
,76.4525976,1.54296875
,76.4554744,1.50390625
,76.4916699,1.474609375
,76.4963208,1.4794921875
,76.5347196,1.5478515625
,76.5353132,1.66015625
,76.5714045,1.7822265625
,76.5917886,1.9091796875
,76.5949403,2.01171875
,76.6154777,2.1142578125
,76.650118,2.1923828125
,76.6558021,2.2705078125
,76.6921103,2.32421875
,76.69669,2.36328125
,76.732761,2.373046875
,76.7383884,2.3681640625
,76.7728718,2.353515625
,76.7780932,2.333984375
,76.8003655,2.3095703125
,76.8171075,2.2802734375
,76.8528585,2.265625
,76.8553219,2.236328125
,76.889416,2.2021484375
,76.9094085,2.1630859375
,76.9199426,2.119140625
,76.956121,2.0751953125
,76.9589899,2.0263671875
,76.9770607,1.9775390625
,76.9957587,1.9287109375
,77.0309515,1.8798828125
,77.0512359,1.8359375
,77.0562834,1.796875
,77.1024145,1.7529296875
,77.1027834,1.708984375
,77.1230541,1.669921875
,77.1386859,1.6259765625
,77.1559241,1.58203125
,77.1906689,1.5380859375
,77.1977805,1.4990234375
,77.2326007,1.4697265625
,77.2376802,1.4599609375
,77.2735261,1.513671875
,77.2775622,1.6064453125
,77.320581,1.73828125
,77.321067,1.8603515625
,77.3346171,1.982421875
,77.3693937,2.080078125
,77.3903347,2.1728515625
,77.3987132,2.2509765625
,77.4337778,2.314453125
,77.4369763,2.3583984375
,77.4735921,2.3828125
,77.4779619,2.3779296875
,77.496747,2.3583984375
,77.5364157,2.34375
,77.5371276,2.314453125
,77.5753909,2.2998046875
,77.5757918,2.2802734375
,77.612126,2.2509765625
,77.6326626,2.216796875
,77.6370693,2.177734375
,77.6719339,2.1337890625
,77.6919528,2.0849609375
,77.701756,2.0361328125
,77.7172047,1.982421875
,77.7517775,1.93359375
,77.7590119,1.884765625
,77.7946588,1.8310546875
,77.7971575,1.7822265625
,77.8315386,1.73828125
,77.8518975,1.6943359375
,77.859318,1.650390625
,77.8762275,1.611328125
,77.9120372,1.572265625
,77.917457,1.5283203125
,77.9537613,1.484375
,77.9572365,1.4453125
,77.9932501,1.40625
,78.0000754,1.376953125
,78.0377952,1.38671875
,78.0383865,1.4599609375
,78.0554111,1.5771484375
,78.091273,1.7236328125
,78.1114331,1.85546875
,78.116658,1.982421875
,78.1635361,2.0849609375
,78.1641062,2.1826171875
,78.1935596,2.255859375
,78.1982491,2.32421875
,78.2222476,2.3681640625
,78.2416786,2.3828125
,78.2578726,2.3779296875
,78.2929536,2.3779296875
,78.2978481,2.36328125
,78.3332002,2.3486328125
,78.3541738,2.3291015625
,78.3595052,2.3046875
,78.3811941,2.2802734375
,78.4167625,2.24609375
,78.419724,2.20703125
,78.4361511,2.1630859375
,78.4752187,2.119140625
,78.4953475,2.0703125
,78.5003337,2.0263671875
,78.5348492,1.97265625
,78.5413393,1.923828125
,78.5764913,1.875
,78.5805106,1.8310546875
,78.5979408,1.7822265625
,78.6334479,1.73828125
,78.6619305,1.69921875
,78.6623099,1.66015625
,78.6807379,1.62109375
,78.7165751,1.58203125
,78.7201231,1.54296875
,78.770388,1.4990234375
,78.7707617,1.455078125
,78.7764329,1.416015625
,78.8178137,1.38671875
,78.8181814,1.3818359375
,78.8534111,1.4404296875
,78.8811428,1.552734375
,78.8815727,1.6943359375
,78.9168437,1.826171875
,78.9195066,1.953125
,78.9407053,2.060546875
,78.9611064,2.1484375
,78.9811414,2.2314453125
,78.9989464,2.294921875
,79.0383148,2.3583984375
,79.0386847,2.392578125
,79.058324,2.40234375
,79.0931387,2.392578125
,79.1149006,2.3779296875
,79.1221107,2.3583984375
,79.1581319,2.3388671875
,79.1586369,2.314453125
,79.1928186,2.2900390625
,79.2133431,2.255859375
,79.221334,2.2216796875
,79.256043,2.177734375
,79.2614658,2.12890625
,79.2821952,2.0751953125
,79.3162511,2.0263671875
,79.3221506,1.97265625
,79.3395119,1.9189453125
,79.3605991,1.8701171875
,79.3970045,1.8212890625
,79.4012487,1.7724609375
,79.4377266,1.7236328125
,79.4417636,1.6796875
,79.4892789,1.6357421875
,79.489645,1.5966796875
,79.4995204,1.5576171875
,79.5202792,1.513671875
,79.5587696,1.4697265625
,79.5593511,1.4306640625
,79.5957357,1.396484375
,79.602802,1.3671875
,79.6215068,1.3818359375
,79.6614798,1.4501953125
,79.6620826,1.572265625
,79.6837386,1.7041015625
,79.7040002,1.8310546875
,79.7194431,1.93359375
,79.7556316,2.0458984375
,79.7765859,2.12890625
,79.7814995,2.20703125
,79.8173053,2.265625
,79.8202286,2.3046875
,79.8556624,2.314453125
,79.8807856,2.3095703125
,79.8811763,2.294921875
,79.9156172,2.28515625
,79.9186315,2.2705078125
,79.9560989,2.255859375
,79.9909824,2.236328125
,79.9913472,2.2119140625
,80.0025822,2.177734375
,80.0388819,2.1435546875
,80.0705844,2.099609375
,80.071174,2.0556640625
,80.079555,2.0166015625
,80.1157705,1.9677734375
,80.1206203,1.9189453125
,80.157173,1.875
,80.1782094,1.8310546875
,80.1810528,1.787109375
,80.2172024,1.7431640625
,80.2175651,1.7041015625
,80.2528818,1.6650390625
,80.2728989,1.62109375
,80.279383,1.58203125
,80.3125321,1.5380859375
,80.3322249,1.494140625
,80.3430258,1.4599609375
,80.3639487,1.4501953125
,80.4039929,1.5087890625
,80.4046833,1.6064453125
,80.4253735,1.728515625
,80.4413115,1.8408203125
,80.476385,1.9580078125
,80.4973206,2.05078125
,80.5019246,2.1337890625
,80.5367318,2.20703125
,80.5579121,2.2607421875
,80.5632016,2.294921875
,80.6003371,2.3095703125
,80.6029986,2.2998046875
,80.6191539,2.2802734375
,80.6551209,2.265625
,80.6828083,2.24609375
,80.6831829,2.2314453125
,80.7173199,2.20703125
,80.7243267,2.177734375
,80.7617028,2.1435546875
,80.7620714,2.109375
,80.7800852,2.060546875
,80.8165069,2.0166015625
,80.8216647,1.9677734375
,80.8561448,1.923828125
,80.8615823,1.875
,80.8987355,1.826171875
,80.9035379,1.77734375
,80.9380858,1.728515625
,80.960205,1.6845703125
,80.9607965,1.640625
,81.0107392,1.6064453125
,81.0112158,1.5673828125
,81.0408473,1.5234375
,81.0413079,1.484375
,81.0791258,1.4404296875
,81.0832273,1.4013671875
,81.1178187,1.3671875
,81.1383142,1.34765625
,81.1440635,1.3818359375
,81.1607713,1.474609375
,81.1952286,1.6259765625
,81.2150192,1.7724609375
,81.2245575,1.9140625
,81.2428807,2.03125
,81.2898491,2.12890625
,81.2905864,2.216796875
,81.3106646,2.2900390625
,81.3261132,2.3486328125
,81.3414141,2.3828125
,81.3851642,2.3974609375
,81.385754,2.3974609375
,81.4059148,2.3779296875
,81.4258709,2.36328125
,81.4437299,2.34375
,81.4792102,2.32421875
,81.5109078,2.2998046875
,81.511299,2.265625
,81.5227881,2.2314453125
,81.5596791,2.1875
,81.5646336,2.1435546875
,81.5836099,2.0947265625
,81.6344417,2.05078125
,81.6348195,1.9970703125
,81.6425554,1.9482421875
,81.6769162,1.8994140625
,81.6976338,1.845703125
,81.7006303,1.8017578125
,81.735649,1.7578125
,81.7567627,1.71875
,81.7619734,1.6748046875
,81.8050735,1.6357421875
,81.8056424,1.5966796875
,81.835575,1.552734375
,81.8440839,1.5087890625
,81.8657161,1.46484375
,81.901341,1.416015625
,81.9020183,1.38671875
,81.9448377,1.396484375
,81.9452094,1.46484375
,81.9659817,1.591796875
,82.0016122,1.728515625
,82.0046203,1.8701171875
,82.0398959,1.9921875
,82.060274,2.099609375
,82.0607574,2.1875
,82.0975257,2.275390625
,82.1178396,2.34375
,82.1230372,2.3974609375
,82.1597444,2.421875
,82.1650093,2.4267578125
,82.19999,2.4169921875
,82.220353,2.40234375
,82.2244004,2.3828125
,82.2434312,2.36328125
,82.2771459,2.34375
,82.2853722,2.314453125
,82.3212915,2.28515625
,82.3222909,2.2412109375
,82.3597644,2.197265625
,82.3797407,2.1484375
,82.3838363,2.099609375
,82.4314278,2.05078125
,82.4319896,2.001953125
,82.4423939,1.9580078125
,82.4768732,1.9091796875
,82.5095742,1.8603515625
,82.510129,1.81640625
,82.5261672,1.77734375
,82.5599221,1.73828125
,82.5811157,1.69921875
,82.5872836,1.66015625
,82.637999,1.6064453125
,82.6383496,1.5673828125
,82.6441765,1.5283203125
,82.678717,1.4892578125
,82.6999815,1.4599609375
,82.706356,1.46484375
,82.7410491,1.5283203125
,82.7463013,1.640625
,82.7667243,1.7724609375
,82.7844849,1.8896484375
,82.8237077,2.0068359375
,82.8242274,2.1044921875
,82.8591786,2.1826171875
,82.8808476,2.255859375
,82.8850751,2.314453125
,82.9213148,2.353515625
,82.9262544,2.3681640625
,82.9590695,2.36328125
,82.9800675,2.34375
,82.9819897,2.3291015625
,83.0164767,2.3095703125
,83.036936,2.294921875
,83.0456941,2.265625
,83.0879085,2.236328125
,83.0883245,2.2021484375
,83.1346018,2.16796875
,83.1351759,2.119140625
,83.1446951,2.080078125
,83.1803567,2.03125
,83.1856938,1.9873046875
,83.2067556,1.9384765625
,83.2405871,1.8896484375
,83.2445917,1.8408203125
,83.2796023,1.8017578125
,83.2996905,1.7626953125
,83.3073309,1.7236328125
,83.350527,1.6796875
,83.3511234,1.640625
,83.3708379,1.6064453125
,83.3843499,1.5673828125
,83.4186701,1.533203125
,83.4400827,1.50390625
,83.4479396,1.4794921875
,83.4837081,1.5087890625
,83.4863177,1.5869140625
,83.5214502,1.7138671875
,83.5422471,1.8408203125
,83.5454626,1.9677734375
,83.5838909,2.0703125
,83.5842726,2.16796875
,83.6314692,2.24609375
,83.6320984,2.3193359375
,83.6469858,2.373046875
,83.6922876,2.412109375
,83.6929431,2.4169921875
,83.7045188,2.412109375
,83.7404395,2.3974609375
,83.7605687,2.3779296875
,83.7674078,2.3583984375
,83.8161653,2.3388671875
,83.816658,2.3095703125
,83.8300734,2.2802734375
,83.8655541,2.2412109375
,83.8661603,2.197265625
,83.9004334,2.1533203125
,83.9054249,2.109375
,83.9410634,2.060546875
,83.9481348,2.01171875
,83.9667891,1.962890625
,84.0029422,1.9140625
,84.0092038,1.865234375
,84.0299323,1.81640625
,84.048781,1.767578125
,84.0656967,1.71875
,84.1113893,1.6845703125
,84.1117612,1.6455078125
,84.1266775,1.6015625
,84.1637771,1.5625
,84.1684236,1.5234375
,84.1887471,1.484375
,84.2368465,1.4599609375
,84.2372238,1.4892578125
,84.2460678,1.572265625
,84.283361,1.708984375
,84.287782,1.8408203125
,84.3229393,1.97265625
,84.3269105,2.0849609375
,84.3636298,2.1875
,84.3671846,2.275390625
,84.4037646,2.3583984375
,84.4041422,2.421875
,84.425439,2.470703125
,84.4637144,2.490234375
,84.4669926,2.48046875
,84.5033661,2.4658203125
,84.5064521,2.4462890625
,84.543795,2.4267578125
,84.5486549,2.40234375
,84.5856562,2.373046875
,84.586159,2.3388671875
,84.6220015,2.2998046875
,84.6277315,2.255859375
,84.6630637,2.20703125
,84.666084,2.1533203125
,84.7014086,2.099609375
,84.7207724,2.0458984375
,84.7293706,1.9921875
,84.7638782,1.9384765625
,84.7842018,1.884765625
,84.788175,1.8310546875
,84.8283979,1.7822265625
,84.8287684,1.73828125
,84.8481873,1.6943359375
,84.882475,1.6552734375
,84.8905931,1.611328125
,84.9255866,1.5625
,84.9286777,1.5234375
,84.9664694,1.4794921875
,84.9669365,1.4453125
,85.0027866,1.4306640625
,85.0060653,1.4697265625
,85.0427288,1.5673828125
,85.0479101,1.6943359375
,85.0839892,1.8408203125
,85.0882776,1.9677734375
,85.1231673,2.080078125
,85.143462,2.1826171875
,85.1466465,2.2705078125
,85.182784,2.353515625
,85.1859808,2.4169921875
,85.222821,2.4560546875
,85.2429397,2.470703125
,85.2479955,2.4658203125
,85.2843855,2.451171875
,85.2901944,2.431640625
,85.3053158,2.412109375
,85.340556,2.3876953125
,85.360596,2.3583984375
,85.3684326,2.32421875
,85.4048212,2.28515625
,85.4090281,2.236328125
,85.4530355,2.1826171875
,85.4536108,2.1337890625
,85.4699755,2.080078125
,85.5151254,2.0263671875
,85.5156102,1.9677734375
,85.5288728,1.9189453125
,85.5778523,1.8701171875
,85.5783832,1.8212890625
,85.5896041,1.77734375
,85.6386312,1.73828125
,85.6391812,1.69921875
,85.6505394,1.66015625
,85.6855433,1.62109375
,85.6858384,1.5771484375
,85.7217868,1.5380859375
,85.74135,1.494140625
,85.7495952,1.4599609375
,85.784453,1.435546875
,85.7899358,1.455078125
,85.8254671,1.5478515625
,85.8299822,1.6650390625
,85.8723826,1.806640625
,85.8727574,1.9287109375
,85.8884946,2.041015625
,85.9245603,2.138671875
,85.9275077,2.2265625
,85.9629855,2.2998046875
,85.9833737,2.36328125
,85.9914209,2.3974609375
,86.0268222,2.40234375
,86.0313325,2.392578125
,86.0467859,2.373046875
,86.0678388,2.3583984375
,86.1050265,2.3388671875
,86.109664,2.3193359375
,86.1445783,2.2900390625
,86.1656941,2.255859375
,86.1683727,2.216796875
,86.2030958,2.1728515625
,86.2229539,2.1240234375
,86.2322689,2.0703125
,86.2497574,2.021484375
,86.2862369,1.9677734375
,86.2907265,1.9189453125
,86.328105,1.8701171875
,86.3285951,1.8212890625
,86.3750622,1.77734375
,86.3757517,1.7333984375
,86.4064076,1.6943359375
,86.4134378,1.6455078125
,86.4288816,1.6064453125
,86.466445,1.5625
,86.4696481,1.5234375
,86.5053295,1.4892578125
,86.5099938,1.455078125
,86.5446761,1.4501953125
,86.5500356,1.4990234375
,86.5906296,1.6064453125
,86.5910362,1.7333984375
,86.6212519,1.8701171875
,86.6301491,1.982421875
,86.6673655,2.08984375
,86.6702764,2.1826171875
,86.6918484,2.255859375
,86.7269755,2.3291015625
,86.7317224,2.373046875
,86.7764702,2.392578125
,86.7770632,2.3876953125
,86.7891974,2.373046875
,86.8384902,2.353515625
,86.839007,2.3388671875
,86.8496662,2.314453125
,86.8846647,2.294921875
,86.9064978,2.2607421875
,86.9112018,2.2265625
,86.9333826,2.1875
,86.9686261,2.1337890625
,86.9692206,2.0849609375
,87.005404,2.041015625
,87.0098713,1.9921875
,87.0464397,1.9482421875
,87.0506708,1.89453125
,87.0887429,1.845703125
,87.0934365,1.796875
,87.1354659,1.7529296875
,87.1359395,1.7138671875
,87.1508347,1.669921875
,87.170031,1.630859375
,87.205759,1.5869140625
,87.2109562,1.54296875
,87.2483478,1.50390625
,87.2530013,1.46484375
,87.2716563,1.435546875
,87.3064863,1.455078125
,87.3281815,1.5380859375
,87.3285797,1.6552734375
,87.3509652,1.7919921875
,87.3869472,1.9140625
,87.3920369,2.0361328125
,87.4260754,2.138671875
,87.4305144,2.2314453125
,87.4774845,2.3095703125
,87.4778546,2.3779296875
,87.4978761,2.412109375
,87.510163,2.4365234375
,87.5441982,2.4267578125
,87.5712186,2.4072265625
,87.5715792,2.3876953125
,87.5917169,2.3583984375
,87.626778,2.333984375
,87.631037,2.3046875
,87.6676786,2.2705078125
,87.6728091,2.2265625
,87.7106408,2.177734375
,87.7110096,2.12890625
,87.7472049,2.080078125
,87.751658,2.0263671875
,87.7883881,1.97265625
,87.7938688,1.923828125
,87.8285387,1.865234375
,87.8332597,1.81640625
,87.8673509,1.7626953125
,87.8875529,1.71875
,87.8922323,1.6748046875
,87.9272363,1.6357421875
,87.9316406,1.591796875
,87.9764924,1.5478515625
,87.9770847,1.50390625
,87.992582,1.4599609375
,88.0395953,1.4111328125
,88.0401876,1.376953125
,88.0507576,1.3671875
,88.0849482,1.4208984375
,88.1064846,1.5283203125
,88.1106053,1.669921875
,88.1465063,1.8017578125
,88.167579,1.9384765625
,88.1722488,2.0458984375
,88.2096779,2.1533203125
,88.2100497,2.236328125
,88.2466642,2.3193359375
,88.2488399,2.3779296875
,88.28506,2.4169921875
,88.3195339,2.421875
,88.3200102,2.412109375
,88.3331007,2.392578125
,88.3695425,2.373046875
,88.3740479,2.3486328125
,88.4120541,2.32421875
,88.4127774,2.2900390625
,88.4323645,2.2509765625
,88.475361,2.2119140625
,88.4758155,2.16796875
,88.4928701,2.119140625
,88.5385288,2.0654296875
,88.5391282,2.01171875
,88.5542617,1.9580078125
,88.5906278,1.904296875
,88.5951257,1.8505859375
,88.6110877,1.796875
,88.6481073,1.748046875
,88.6808805,1.7041015625
,88.6814942,1.6552734375
,88.6918193,1.6162109375
,88.7261562,1.572265625
,88.7458138,1.5283203125
,88.7548082,1.484375
,88.770911,1.4404296875
,88.8071318,1.40625
,88.8117219,1.3671875
,88.8466434,1.3525390625
,88.8670333,1.3916015625
,88.872379,1.494140625
,88.9108348,1.6259765625
,88.9130052,1.7724609375
,88.9343811,1.904296875
,88.9514895,2.01171875
,89.0043977,2.119140625
,89.0048296,2.20703125
,89.0123686,2.28515625
,89.047591,2.34375
,89.0825033,2.373046875
,89.082997,2.3828125
,89.093476,2.373046875
,89.1436605,2.3583984375
,89.1440349,2.3388671875
,89.1528188,2.3193359375
,89.1868808,2.294921875
,89.1920256,2.265625
,89.2291599,2.2314453125
,89.2492683,2.1875
,89.2535094,2.1435546875
,89.3015142,2.0947265625
,89.3020439,2.0458984375
,89.3148336,1.9970703125
,89.34756,1.943359375
,89.3543423,1.89453125
,89.3747893,1.845703125
,89.3942095,1.796875
,89.4156683,1.7578125
,89.4347165,1.7138671875
,89.4705927,1.6748046875
,89.476683,1.6357421875
,89.4934468,1.591796875
,89.5134667,1.552734375
,89.5473594,1.5087890625
,89.551961,1.4794921875
,89.589489,1.4501953125
,89.6088852,1.4599609375
,89.6144817,1.5380859375
,89.6614353,1.650390625
,89.6618306,1.787109375
,89.6734727,1.9091796875
,89.721836,2.0263671875
,89.7222067,2.119140625
,89.7333191,2.20703125
,89.7698704,2.2802734375
,89.7745526,2.34375
,89.7973,2.3779296875
,89.8157879,2.392578125
,89.8500665,2.3828125
,89.8705509,2.36328125
,89.8774129,2.3486328125
,89.894325,2.32421875
,89.9296,2.3046875
,89.9340483,2.2802734375
,89.9544155,2.24609375
,89.989758,2.20703125
,90.0097431,2.1630859375
,90.0149552,2.1142578125
,90.0498133,2.060546875
,90.0711169,2.0068359375
,90.0733294,1.9580078125
,90.1090425,1.9091796875
,90.116071,1.8603515625
,90.1345839,1.8115234375
,90.1699561,1.767578125
,90.1745392,1.7236328125
,90.2107804,1.6845703125
,90.2314856,1.6357421875
,90.2319196,1.591796875
,90.2696113,1.5478515625
,90.2739356,1.5087890625
,90.3097596,1.46484375
,90.3297771,1.4404296875
,90.3367028,1.46484375
,90.3777353,1.5380859375
,90.3783424,1.6650390625
,90.3945086,1.7919921875
,90.4148258,1.923828125
,90.4506716,2.03125
,90.4574006,2.12890625
,90.4753672,2.2119140625
,90.5093939,2.2900390625
,90.5300771,2.353515625
,90.5372987,2.3876953125
,90.5716845,2.40234375
,90.5775925,2.392578125
,90.5986285,2.373046875
,90.6136267,2.3486328125
,90.6648803,2.3291015625
,90.6653372,2.3046875
,90.6754577,2.275390625
,90.6959526,2.2412109375
,90.7425028,2.2021484375
,90.7431203,2.1533203125
,90.7636395,2.1044921875
,90.7751824,2.05078125
,90.8112099,2.001953125
,90.8141818,1.9482421875
,90.8505097,1.89453125
,90.8558995,1.8408203125
,90.8939544,1.787109375
,90.8978753,1.73828125
,90.9429353,1.6943359375
,90.9433238,1.650390625
,90.9541836,1.6064453125
,90.9909424,1.5673828125
,90.9963397,1.5234375
,91.0349284,1.4794921875
,91.0354756,1.4404296875
,91.0831557,1.4013671875
,91.0836023,1.3818359375
,91.0981625,1.416015625
,91.1148978,1.5087890625
,91.1637083,1.6455078125
,91.1642976,1.787109375
,91.1771127,1.9091796875
,91.2270173,2.0263671875
,91.2276262,2.1240234375
,91.2358839,2.216796875
,91.270629,2.2900390625
,91.2916359,2.353515625
,91.2990339,2.3876953125
,91.335847,2.40234375
,91.3362426,2.3974609375
,91.3729632,2.3828125
,91.3774182,2.3681640625
,91.4151491,2.3486328125
,91.4155376,2.32421875
,91.4510875,2.2998046875
,91.4777622,2.265625
,91.4783099,2.2265625
,91.5252354,2.1826171875
,91.5256026,2.1337890625
,91.5369776,2.0849609375
,91.585045,2.0361328125
,91.5854148,1.982421875
,91.5956551,1.93359375
,91.6303111,1.884765625
,91.651187,1.8359375
,91.6593288,1.787109375
,91.6749695,1.748046875
,91.7115859,1.708984375
,91.7174099,1.669921875
,91.7387929,1.630859375
,91.7869942,1.591796875
,91.7873787,1.5478515625
,91.7980094,1.5087890625
,91.8490418,1.4697265625
,91.8494445,1.4404296875
,91.8547793,1.4501953125
,91.8977352,1.5283203125
,91.8981659,1.640625
,91.9283998,1.7724609375
,91.9371044,1.89453125
,91.957853,2.01171875
,91.993799,2.1044921875
,91.9989069,2.197265625
,92.0372004,2.275390625
,92.0574132,2.3388671875
,92.0577857,2.3779296875
,92.1015519,2.3974609375
,92.1021442,2.3876953125
,92.1169777,2.3779296875
,92.1525886,2.36328125
,92.1570154,2.34375
,92.1925934,2.3193359375
,92.2148532,2.2900390625
,92.2209166,2.255859375
,92.2358131,2.216796875
,92.2774642,2.1728515625
,92.2780624,2.12890625
,92.3234075,2.0751953125
,92.3237771,2.0263671875
,92.3381026,1.9677734375
,92.373388,1.9189453125
,92.3937676,1.865234375
,92.3941684,1.81640625
,92.4288937,1.7724609375
,92.4491074,1.728515625
,92.4579262,1.6845703125
,92.4769791,1.640625
,92.5131486,1.5966796875
,92.5320171,1.5478515625
,92.5396269,1.50390625
,92.5759666,1.4599609375
,92.5763815,1.4208984375
,92.6210129,1.4111328125
,92.6214901,1.455078125
,92.6506106,1.5625
,92.6590567,1.6845703125
,92.6966457,1.8212890625
,92.6970168,1.93359375
,92.7441012,2.041015625
,92.7446543,2.1240234375
,92.7654641,2.2119140625
,92.7815363,2.275390625
,92.7979558,2.3193359375
,92.8390746,2.34375
,92.8396769,2.34375
,92.8742076,2.333984375
,92.8797408,2.3193359375
,92.9144603,2.3046875
,92.920521,2.28515625
,92.9556386,2.265625
,92.95613,2.236328125
,92.9794319,2.20703125
,92.9988125,2.16796875
,93.0340988,2.12890625
,93.0391084,2.0849609375
,93.0738512,2.03125
,93.0935301,1.982421875
,93.1005786,1.93359375
,93.1346239,1.8798828125
,93.1552871,1.8359375
,93.1582233,1.8017578125
,93.1945817,1.7578125
,93.1993359,1.71875
,93.233602,1.6748046875
,93.2402938,1.6357421875
,93.2597193,1.5869140625
,93.2967901,1.5478515625
,93.2973752,1.50390625
,93.3161816,1.484375
,93.3553924,1.4990234375
,93.3598682,1.5771484375
,93.3792992,1.689453125
,93.3997354,1.8212890625
,93.4341158,1.9482421875
,93.4538837,2.0556640625
,93.4606638,2.158203125
,93.4816764,2.24609375
,93.5171742,2.32421875
,93.5377674,2.3828125
,93.5383068,2.4267578125
,93.5748964,2.4365234375
,93.5776926,2.4267578125
,93.6249346,2.4072265625
,93.6254128,2.3876953125
,93.6562063,2.3583984375
,93.6632646,2.333984375
,93.6786582,2.3046875
,93.7152448,2.2705078125
,93.7183536,2.2314453125
,93.7541474,2.1875
,93.7748501,2.1337890625
,93.7799654,2.080078125
,93.8156503,2.03125
,93.8205338,1.9775390625
,93.8551762,1.9189453125
,93.8769264,1.865234375
,93.8775166,1.81640625
,93.9127509,1.767578125
,93.9350429,1.7236328125
,93.9396306,1.6796875
,93.9749544,1.630859375
,93.9799403,1.58203125
,94.0171033,1.5380859375
,94.0178003,1.4892578125
,94.0390437,1.4501953125
,94.0908015,1.4306640625
,94.0911634,1.4501953125
,94.1004846,1.5380859375
,94.1376669,1.650390625
,94.1421875,1.787109375
,94.1820696,1.904296875
,94.1825252,2.021484375
,94.2162732,2.1142578125
,94.2368637,2.20703125
,94.2393248,2.2802734375
,94.2750107,2.34375
,94.3068316,2.3779296875
,94.3074319,2.392578125
,94.3215826,2.3876953125
,94.3562573,2.3681640625
,94.3632561,2.3486328125
,94.3987509,2.32421875
,94.4018579,2.2998046875
,94.4188086,2.2705078125
,94.4652127,2.236328125
,94.4658065,2.1923828125
,94.4874055,2.1484375
,94.5027104,2.099609375
,94.5373087,2.0458984375
,94.5433236,1.9970703125
,94.5792972,1.943359375
,94.5799547,1.8896484375
,94.5991358,1.8408203125
,94.619284,1.7919921875
,94.6703395,1.7431640625
,94.6707159,1.7041015625
,94.7012291,1.66015625
,94.7016007,1.6259765625
,94.7482214,1.58203125
,94.7485939,1.5380859375
,94.7603435,1.494140625
,94.797297,1.4599609375
,94.8017684,1.42578125
,94.8204602,1.416015625
,94.8565325,1.4599609375
,94.8615817,1.5625
,94.8978802,1.689453125
,94.9009774,1.826171875
,94.9505741,1.9482421875
,94.9510013,2.0654296875
,94.9808182,2.158203125
,94.9811816,2.2509765625
,95.0270252,2.3291015625
,95.0276391,2.3828125
,95.0417925,2.412109375
,95.0626366,2.4169921875
,95.0966268,2.40234375
,95.1171339,2.3828125
,95.1222526,2.3583984375
,95.1403519,2.3291015625
,95.17525,2.3046875
,95.1823302,2.2705078125
,95.2009113,2.2314453125
,95.2371363,2.1923828125
,95.2431726,2.138671875
,95.2904531,2.08984375
,95.2908332,2.03125
,95.2980521,1.97265625
,95.3341846,1.9189453125
,95.3543852,1.865234375
,95.3624934,1.806640625
,95.3977546,1.7578125
,95.4014764,1.7041015625
,95.4383389,1.66015625
,95.4436402,1.611328125
,95.4798176,1.5673828125
,95.4808786,1.5234375
,95.5261013,1.4794921875
,95.5266902,1.435546875
,95.556178,1.3916015625
,95.5613117,1.3525390625
,95.5965655,1.337890625
,95.6162932,1.376953125
,95.6240861,1.4794921875
,95.645445,1.6162109375
,95.6816265,1.7431640625
,95.6862534,1.865234375
,95.7005009,1.962890625
,95.7371472,2.0556640625
,95.7419069,2.12890625
,95.791836,2.197265625
,95.7924152,2.236328125
,95.8052514,2.255859375
,95.823853,2.2509765625
,95.8591825,2.236328125
,95.8596176,2.216796875
,95.8931811,2.2021484375
,95.9130137,2.1875
,95.9229933,2.1630859375
,95.9593555,2.1337890625
,95.9615716,2.1044921875
,95.9972422,2.060546875
,96.0192277,2.021484375
,96.0262476,1.97265625
,96.0425006,1.923828125
,96.0765782,1.8798828125
,96.0979602,1.8310546875
,96.1026343,1.787109375
,96.1383699,1.7431640625
,96.1437395,1.69921875
,96.1793125,1.6650390625
,96.1852745,1.62109375
,96.2004986,1.58203125
,96.2369565,1.5478515625
,96.2429386,1.5087890625
,96.2788106,1.4794921875
,96.2814159,1.4453125
,96.3156117,1.4208984375
,96.3367619,1.4404296875
,96.3444059,1.5185546875
,96.3794117,1.640625
,96.4092099,1.7724609375
,96.4098349,1.8994140625
,96.4223064,2.01171875
,96.4708045,2.1142578125
,96.4715546,2.197265625
,96.4830297,2.2705078125
,96.5198578,2.3291015625
,96.5250926,2.36328125
,96.5590136,2.373046875
,96.5799126,2.36328125
,96.5822531,2.3486328125
,96.6170482,2.333984375
,96.6372363,2.314453125
,96.6450313,2.294921875
,96.6635585,2.2705078125
,96.6999564,2.236328125
,96.7042133,2.197265625
,96.7407527,2.1533203125
,96.7458404,2.109375
,96.7625916,2.060546875
,96.7980783,2.01171875
,96.8179395,1.962890625
,96.8237704,1.9091796875
,96.860354,1.85546875
,96.8906381,1.8115234375
,96.8912656,1.767578125
,96.9052222,1.7236328125
,96.9399425,1.6796875
,96.9602503,1.6357421875
,96.9629808,1.5966796875
,96.9974088,1.552734375
,97.0025997,1.513671875
,97.0459118,1.4794921875
,97.0462954,1.4794921875
,97.0687013,1.5283203125
,97.0847207,1.640625
,97.1198977,1.7626953125
,97.1421053,1.89453125
,97.1426944,2.0068359375
,97.1812972,2.1142578125
,97.1818836,2.2021484375
,97.2184865,2.28515625
,97.2478622,2.3486328125
,97.2482474,2.3974609375
,97.2649748,2.4169921875
,97.3001782,2.4169921875
,97.3202188,2.3974609375
,97.3230497,2.3779296875
,97.3614122,2.3583984375
,97.361774,2.333984375
,97.3966013,2.3046875
,97.4171138,2.2705078125
,97.4248512,2.2314453125
,97.4620479,2.1875
,97.466733,2.1337890625
,97.4826318,2.0849609375
,97.5290207,2.0361328125
,97.5299664,1.982421875
,97.5489036,1.923828125
,97.5651541,1.8701171875
,97.6000024,1.81640625
,97.6205119,1.7626953125
,97.6257577,1.7138671875
,97.6693005,1.669921875
,97.6699555,1.62109375
,97.6835788,1.58203125
,97.7207959,1.5380859375
,97.7232985,1.4892578125
,97.7576566,1.4453125
,97.777413,1.40625
,97.7848428,1.3818359375
,97.825081,1.4013671875
,97.8282381,1.484375
,97.8477974,1.6162109375
,97.8646671,1.748046875
,97.9005136,1.8896484375
,97.9035443,2.01171875
,97.9404731,2.109375
,97.9463987,2.20703125
,97.9815603,2.2802734375
,97.9875782,2.3486328125
,98.0243319,2.3828125
,98.0265694,2.3974609375
,98.0434472,2.3876953125
,98.0784069,2.373046875
,98.0989997,2.353515625
,98.1066243,2.333984375
,98.1415789,2.3095703125
,98.1458448,2.2802734375
,98.1826165,2.24609375
,98.1866434,2.20703125
,98.2212499,2.1630859375
,98.2450862,2.1142578125
,98.2454483,2.0654296875
,98.2823915,2.0166015625
,98.2870145,1.962890625
,98.3061188,1.9091796875
,98.3415794,1.85546875
,98.3487103,1.806640625
,98.3686574,1.7578125
,98.3836935,1.708984375
,98.4288869,1.669921875
,98.4294565,1.630859375
,98.4507079,1.5869140625
,98.4652859,1.54296875
,98.5066659,1.4990234375
,98.5072738,1.4501953125
,98.5432957,1.416015625
,98.5506087,1.3818359375
,98.5686928,1.396484375
,98.6056028,1.4697265625
,98.6061352,1.5869140625
,98.6425937,1.728515625
,98.6450359,1.8603515625
,98.6835977,1.9775390625
,98.6882604,2.0751953125
,98.7070923,2.16796875
,98.7552976,2.2412109375
,98.7559083,2.3046875
,98.7652895,2.3388671875
,98.8004662,2.353515625
,98.8315707,2.34375
,98.8320493,2.3291015625
,98.8476974,2.3095703125
,98.8835281,2.2900390625
,98.8877609,2.265625
,98.9251682,2.236328125
,98.9272275,2.20703125
,98.9454459,2.16796875
,98.9818337,2.1240234375
,98.9844235,2.0751953125
,99.0208354,2.0263671875
,99.0511518,1.9775390625
,99.0516981,1.923828125
,99.0677732,1.8701171875
