fs,t,y
50.73601597607758,0.5688545,1.66015625
,0.6047330999999998,1.7138671875
,0.6112913,1.845703125
,0.6485888000000002,2.0458984375
,0.6510142999999999,2.265625
,0.6665378,2.4560546875
,0.6876785999999999,2.6416015625
,0.7088380999999999,2.7880859375
,0.7445192,2.9150390625
,0.7507823999999998,3.0029296875
,0.7699438999999999,3.06640625
,0.8057976999999998,3.0908203125
,0.8114254000000001,3.06640625
,0.8327144999999998,3.0029296875
,0.8829087000000002,2.91015625
,0.883588,2.8173828125
,0.8881983999999998,2.744140625
,0.9249508,2.6806640625
,0.9282968999999999,2.6123046875
,0.9645017,2.5439453125
,0.9853116000000002,2.4658203125
,0.9913466999999998,2.3828125
,1.0105251000000002,2.2998046875
,1.0315675999999998,2.2216796875
,1.0497983,2.12890625
,1.0701755,2.060546875
,1.0896482,1.9873046875
,1.1094693000000002,1.9189453125
,1.1465407,1.8505859375
,1.1507353999999999,1.787109375
,1.1855704,1.7236328125
,1.1908678,1.6650390625
,1.2070552,1.6015625
,1.2518457,1.5576171875
,1.2522828000000001,1.5185546875
,1.2732033999999999,1.552734375
,1.2906287,1.669921875
,1.3270879,1.845703125
,1.3301706000000002,2.060546875
,1.3522884,2.24609375
,1.3946432,2.4169921875
,1.3953254,2.548828125
,1.4080970000000002,2.685546875
,1.4456267,2.7734375
,1.4516301,2.841796875
,1.4868983,2.87109375
,1.4899304,2.8564453125
,1.5111568000000002,2.802734375
,1.5332057,2.7197265625
,1.5679713,2.6318359375
,1.5711817,2.55859375
,1.6093711000000002,2.4951171875
,1.6100368,2.431640625
,1.6301450000000002,2.373046875
,1.6665435999999998,2.3095703125
,1.6686690999999998,2.2412109375
,1.7093733000000002,2.1630859375
,1.7098456999999998,2.0947265625
,1.7472493,2.021484375
,1.7676949999999998,1.943359375
,1.7682802,1.8701171875
,1.8191328000000002,1.81640625
,1.8197328000000002,1.7626953125
,1.8497620000000001,1.71875
,1.8504662,1.6650390625
,1.885529,1.6162109375
,1.9069786,1.5625
,1.9122292,1.5234375
,1.9496552,1.4794921875
,1.9501046999999998,1.42578125
,1.9867694999999999,1.3916015625
,1.9877034999999998,1.3623046875
,2.0248573,1.3916015625
,2.0530691,1.494140625
,2.0537915,1.6748046875
,2.0717632000000004,1.865234375
,2.1090175999999996,2.0556640625
,2.109738,2.197265625
,2.1449420000000003,2.3193359375
,2.1646444000000002,2.3974609375
,2.1700476999999996,2.4658203125
,2.1911359,2.5
,2.2097606,2.51953125
,2.2486050000000004,2.5
,2.2521598000000003,2.4462890625
,2.3004814,2.3876953125
,2.3011422,2.3291015625
,2.3207319999999996,2.2802734375
,2.3306085999999997,2.2265625
,2.378274,2.1875
,2.3788378000000003,2.158203125
,2.3895244,2.119140625
,2.4423260000000004,2.0751953125
,2.4429888,2.03125
,2.4721694999999997,1.9775390625
,2.4728899999999996,1.9189453125
,2.4895186999999996,1.8603515625
,2.5370692000000004,1.806640625
,2.5375211999999996,1.7529296875
,2.5672851000000003,1.708984375
,2.5722576999999998,1.6650390625
,2.5922701999999997,1.62109375
,2.6291991,1.5771484375
,2.6321510000000004,1.5283203125
,2.6540976,1.4794921875
,2.6696443,1.42578125
,2.7045069,1.3916015625
,2.724817,1.3525390625
,2.7322908999999997,1.328125
,2.7528273,1.3525390625
,2.7738324,1.4794921875
,2.7934191999999998,1.6455078125
,2.8152133,1.845703125
,2.8299009,2.01171875
,2.8821512,2.1630859375
,2.8827682,2.28515625
,2.8927094999999996,2.3388671875
,2.9131558999999996,2.4267578125
,2.9601404000000002,2.4755859375
,2.9608068999999997,2.5048828125
,2.9733951999999997,2.5048828125
,2.9931352,2.4755859375
,3.0308104,2.421875
,3.0382645999999998,2.3681640625
,3.0526853999999997,2.3193359375
,3.0728541,2.2900390625
,3.0916311,2.255859375
,3.130299,2.216796875
,3.1328128,2.1630859375
,3.1719269,2.119140625
,3.1726789999999996,2.060546875
,3.2127,2.01171875
,3.2133561999999998,1.953125
,3.2553463999999996,1.884765625
,3.2560051000000003,1.8310546875
,3.2734218000000004,1.77734375
,3.2927993000000004,1.728515625
,3.3266906,1.6796875
,3.3491942999999997,1.6357421875
,3.3521704000000003,1.591796875
,3.3762558,1.5478515625
,3.3916813,1.4990234375
,3.4118145999999996,1.4599609375
,3.431846,1.416015625
,3.4667984,1.3671875
,3.4722498999999996,1.3134765625
,3.5059629,1.259765625
,3.5325615,1.240234375
,3.5331077000000004,1.279296875
,3.5690587000000003,1.4306640625
,3.5898724,1.630859375
,3.5958574,1.8701171875
,3.6118273,2.03125
,3.6312314,2.2119140625
,3.6652597,2.3388671875
,3.6861762999999996,2.4462890625
,3.6941876000000002,2.5146484375
,3.7155004,2.5830078125
,3.7365131,2.6220703125
,3.7545956,2.63671875
,3.7885532,2.6123046875
,3.7914478999999996,2.5732421875
,3.8278081000000004,2.51953125
,3.8350621,2.470703125
,3.8528580000000003,2.4267578125
,3.8903545,2.3876953125
,3.8961803,2.34375
,3.9312845000000003,2.294921875
,3.9342322000000003,2.236328125
,3.9530868999999997,2.1728515625
,3.974354,2.1240234375
,3.9941997000000002,2.0654296875
,4.0295236,2.001953125
,4.0337139,1.943359375
,4.0532887,1.8798828125
,4.08912,1.826171875
,4.0949636,1.767578125
,4.1138953,1.708984375
,4.1326859,1.669921875
,4.1676108,1.6357421875
,4.1731508,1.591796875
,4.2206759,1.552734375
,4.2213001,1.5087890625
,4.2359661,1.4697265625
,4.2568515,1.416015625
,4.27608,1.3671875
,4.2952164,1.318359375
,4.3156432,1.2451171875
,4.3334597,1.19140625
,4.3538695,1.23046875
,4.3733982,1.3623046875
,4.4108439,1.58203125
,4.4139375,1.806640625
,4.4486793,2.0263671875
,4.4695855,2.1875
,4.47698,2.34375
,4.5138203,2.451171875
,4.5145158,2.5244140625
,4.5349245,2.59765625
,4.5549449,2.63671875
,4.5745767,2.6513671875
,4.6172177,2.6318359375
,4.617905,2.5830078125
,4.6634537,2.51953125
,4.664116,2.4609375
,4.6713532,2.40234375
,4.7088569,2.353515625
,4.7135904,2.3046875
,4.752029,2.255859375
,4.7561962,2.197265625
,4.791937,2.138671875
,4.7945933,2.0751953125
,4.8339103,2.0068359375
,4.8370727,1.93359375
,4.8528701,1.865234375
,4.8738732,1.806640625
,4.8931548,1.73828125
,4.931634,1.6796875
,4.9363126,1.62109375
,4.9743534,1.572265625
,4.9749611,1.5234375
,4.998136,1.4892578125
,5.01924,1.435546875
,5.03818,1.3623046875
,5.0535401,1.2939453125
,5.0906964,1.2548828125
,5.1169605,1.2060546875
,5.1176824,1.1767578125
,5.1362685,1.1376953125
,5.1573547,1.142578125
,5.177475,1.26953125
,5.1977547,1.474609375
,5.2181958,1.71875
,5.2339701,1.93359375
,5.2544361,2.1240234375
,5.2904325,2.255859375
,5.2947015,2.34375
,5.3331109,2.392578125
,5.3549407,2.421875
,5.3553445,2.4267578125
,5.3916382,2.412109375
,5.413762,2.3681640625
,5.414153,2.3095703125
,5.4589412,2.265625
,5.4595644,2.2216796875
,5.4754776,2.1923828125
,5.4968605,2.1630859375
,5.5319868,2.138671875
,5.537995,2.099609375
,5.5589618,2.060546875
,5.5736995,2.0068359375
,5.5948292,1.9580078125
,5.630355,1.89453125
,5.6353518,1.8359375
,5.6560266,1.767578125
,5.6942223,1.7138671875
,5.6948147,1.6552734375
,5.732042,1.6064453125
,5.75487,1.552734375
,5.7572657,1.4892578125
,5.7924651,1.42578125
,5.8137357,1.38671875
,5.8161103,1.357421875
,5.8508385,1.30859375
,5.8572758,1.2646484375
,5.8942516,1.2255859375
,5.913948,1.2109375
,5.9191157,1.279296875
,5.9387757,1.4599609375
,5.9560657,1.6845703125
,5.9759738,1.9287109375
,5.9974127,2.1240234375
,6.0173962,2.2900390625
,6.036646899999999,2.40234375
,6.0783325,2.48046875
,6.0793357,2.5341796875
,6.0980799,2.5634765625
,6.1345762,2.578125
,6.1352142999999995,2.548828125
,6.1563084,2.5
,6.2029105,2.431640625
,6.203396,2.3681640625
,6.2167333,2.314453125
,6.2526867,2.265625
,6.272249800000001,2.2265625
,6.278110399999999,2.1826171875
,6.2951175,2.1337890625
,6.330380999999999,2.08984375
,6.3504839,2.03125
,6.3556086999999994,1.962890625
,6.4047871999999995,1.89453125
,6.405230899999999,1.826171875
,6.417981899999999,1.7626953125
,6.4674841999999995,1.689453125
,6.4679413,1.630859375
,6.478205600000001,1.572265625
,6.5158501,1.513671875
,6.5165428,1.4599609375
,6.5367976,1.4111328125
,6.556744,1.3623046875
,6.5926306,1.3134765625
,6.5996606,1.2646484375
,6.618650000000001,1.23046875
,6.654025600000001,1.2841796875
,6.659278499999999,1.4599609375
,6.6751757000000005,1.6845703125
,6.7096009,1.943359375
,6.717246299999999,2.177734375
,6.763947399999999,2.353515625
,6.7644359000000005,2.5
,6.7788918,2.6025390625
,6.815156099999999,2.685546875
,6.8205226,2.7392578125
,6.840486800000001,2.7783203125
,6.85599,2.7734375
,6.8936972,2.744140625
,6.8964414000000005,2.6708984375
,6.9336988,2.5927734375
,6.9547022,2.5146484375
,6.957606800000001,2.451171875
,6.995101099999999,2.392578125
,6.9999199999999995,2.3291015625
,7.016963799999999,2.2705078125
,7.036348800000001,2.216796875
,7.0700711,2.1484375
,7.091870800000001,2.080078125
,7.0973302,2.001953125
,7.1198789,1.9287109375
,7.1396569,1.8603515625
,7.1595484,1.787109375
,7.1790273,1.7236328125
,7.214404,1.6552734375
,7.234617699999999,1.591796875
,7.2376874,1.5283203125
,7.2748396,1.4697265625
,7.278139400000001,1.40625
,7.3147418,1.34765625
,7.320304800000001,1.2890625
,7.3385669,1.25
,7.3584599,1.279296875
,7.379397600000001,1.40625
,7.415468300000001,1.630859375
,7.416139899999999,1.8701171875
,7.436275800000001,2.1240234375
,7.4751817,2.32421875
,7.479410100000001,2.490234375
,7.4998708,2.6025390625
,7.5195240000000005,2.6953125
,7.5401919,2.7587890625
,7.561564199999999,2.7978515625
,7.5775036,2.802734375
,7.5978636999999996,2.7685546875
,7.6181632,2.6953125
,7.6373345,2.607421875
,7.673076099999999,2.51953125
,7.6781191,2.4462890625
,7.7151826,2.3828125
,7.741170199999999,2.314453125
,7.741531999999999,2.24609375
,7.757270500000001,2.1728515625
,7.7789182,2.109375
,7.7974966000000006,2.0361328125
,7.819644800000001,1.9580078125
,7.8553719,1.884765625
,7.8599192,1.8017578125
,7.880181200000001,1.71875
,7.9319281,1.640625
,7.932528899999999,1.5625
,7.9421409,1.494140625
,7.957267699999999,1.4208984375
,7.993765399999999,1.3525390625
,7.9994628,1.279296875
,8.04069,1.2109375
,8.0410498,1.142578125
,8.060066,1.0888671875
,8.0962164,1.0595703125
,8.1015351,1.1279296875
,8.138473,1.337890625
,8.1391074,1.5966796875
,8.1802819,1.875
,8.18083,2.099609375
,8.2003303,2.2900390625
,8.236327,2.4169921875
,8.2391959,2.509765625
,8.2763746,2.5732421875
,8.2819689,2.6123046875
,8.2965785,2.6123046875
,8.3354852,2.587890625
,8.3386516,2.5244140625
,8.3586063,2.44140625
,8.3944518,2.3583984375
,8.4174257,2.28515625
,8.4214041,2.2216796875
,8.4405159,2.1630859375
,8.4616474,2.119140625
,8.4774382,2.060546875
,8.515796,2.001953125
,8.5208465,1.93359375
,8.5556997,1.8603515625
,8.5587856,1.787109375
,8.5947944,1.71875
,8.6002719,1.650390625
,8.6510719,1.5771484375
,8.6517508,1.5185546875
,8.6627448,1.455078125
,8.6822322,1.3916015625
,8.698624,1.328125
,8.7437364,1.279296875
,8.744402,1.2353515625
,8.7603333,1.1962890625
,8.7974247,1.171875
,8.8004123,1.2451171875
,8.8368286,1.416015625
,8.8426848,1.6845703125
,8.8602798,1.93359375
,8.8791381,2.1728515625
,8.9174747,2.3486328125
,8.9207305,2.4853515625
,8.9420974,2.5732421875
,8.9616277,2.646484375
,8.9955365,2.67578125
,9.0175612,2.6611328125
,9.0223016,2.607421875
,9.0383117,2.529296875
,9.0891432,2.451171875
,9.0897734,2.3876953125
,9.1013234,2.3388671875
,9.1209785,2.2900390625
,9.1554897,2.24609375
,9.1771306,2.1923828125
,9.1831055,2.1435546875
,9.1983447,2.0849609375
,9.2366252,2.0263671875
,9.239241,1.9580078125
,9.2607466,1.8896484375
,9.303876,1.81640625
,9.3045655,1.7431640625
,9.323077,1.6796875
,9.3423496,1.6162109375
,9.3784039,1.5576171875
,9.3833342,1.4990234375
,9.4034135,1.4404296875
,9.4208173,1.3916015625
,9.440563,1.376953125
,9.4763436,1.42578125
,9.4806592,1.591796875
,9.5154904,1.8115234375
,9.5362329,2.0703125
,9.5423045,2.2998046875
,9.5878618,2.5048828125
,9.5882221,2.6611328125
,9.6085851,2.8076171875
,9.6221219,2.9052734375
,9.6567107,2.958984375
,9.6615599,2.9833984375
,9.6839685,2.94921875
,9.7024533,2.87109375
,9.722811,2.7734375
,9.7431776,2.6806640625
,9.7597656,2.5927734375
,9.796991,2.5244140625
,9.8014937,2.4609375
,9.8380456,2.3876953125
,9.8419501,2.3193359375
,9.8625397,2.2412109375
,9.882176,2.158203125
,9.9201928,2.0751953125
,9.9255714,2.001953125
,9.9396466,1.923828125
,9.9608795,1.85546875
,10.0126883,1.787109375
,10.0131669,1.71875
,10.0218051,1.6552734375
,10.0429661,1.591796875
,10.0781205,1.5283203125
,10.0983475,1.46484375
,10.1036269,1.416015625
,10.1408192,1.396484375
,10.1411801,1.4404296875
,10.1773451,1.5966796875
,10.1819501,1.81640625
,10.2193592,2.0849609375
,10.2218297,2.3193359375
,10.2606506,2.548828125
,10.2612783,2.7392578125
,10.3101697,2.880859375
,10.3105388,2.98828125
,10.3229729,3.0615234375
,10.3430892,3.1103515625
,10.3785595,3.10546875
,10.382556,3.046875
,10.403886,2.9443359375
,10.4544989,2.8369140625
,10.4548988,2.734375
,10.4638633,2.6416015625
,10.480806,2.5634765625
,10.5026007,2.4853515625
,10.521555,2.4072265625
,10.5427713,2.3193359375
,10.5793021,2.236328125
,10.5838379,2.1435546875
,10.6036168,2.060546875
,10.6395288,1.9921875
,10.6458505,1.9287109375
,10.6605145,1.8603515625
,10.701148,1.806640625
,10.7017274,1.7431640625
,10.7227276,1.6943359375
,10.7646241,1.6357421875
,10.7652918,1.5771484375
,10.7825876,1.513671875
,10.8204319,1.4599609375
,10.8233967,1.4111328125
,10.8442284,1.3916015625
,10.8623018,1.42578125
,10.8984946,1.5869140625
,10.9014663,1.8017578125
,10.939138,2.03125
,10.9440001,2.2607421875
,10.9799097,2.4462890625
,10.9849473,2.607421875
,11.0065154,2.734375
,11.0241508,2.8369140625
,11.041816,2.900390625
,11.0631209,2.9443359375
,11.098092,2.9296875
,11.102916,2.87109375
,11.1388085,2.7783203125
,11.1456372,2.685546875
,11.1657015,2.59765625
,11.1843315,2.5146484375
,11.2203936,2.4462890625
,11.2208399,2.3681640625
,11.2553495,2.294921875
,11.276947,2.2119140625
,11.2835493,2.1337890625
,11.3189252,2.05078125
,11.3442004,1.97265625
,11.3447104,1.89453125
,11.3657247,1.81640625
,11.3825955,1.7333984375
,11.4025695,1.669921875
,11.4366021,1.6015625
,11.4569556,1.5380859375
,11.4636269,1.4794921875
,11.4858701,1.4208984375
,11.504238,1.3623046875
,11.5254795,1.3134765625
,11.5616135,1.259765625
,11.5693309,1.1962890625
,11.5875327,1.142578125
,11.6025101,1.083984375
,11.6413916,1.044921875
,11.6440947,1.0302734375
,11.6899522,1.09375
,11.690601,1.2451171875
,11.7189492,1.4599609375
,11.7250225,1.6748046875
,11.7473993,1.8798828125
,11.7627896,2.03125
,11.7826152,2.16796875
,11.8211404,2.2607421875
,11.826406,2.333984375
,11.8446769,2.3828125
,11.8799265,2.392578125
,11.8862083,2.373046875
,11.9219313,2.3193359375
,11.9245603,2.255859375
,11.9432134,2.1875
,11.979124,2.138671875
,11.9838582,2.0947265625
,12.0199272,2.05078125
,12.0251089,2.001953125
,12.0440497,1.953125
,12.0926966,1.89453125
,12.0933204,1.8310546875
,12.1236305,1.7724609375
,12.1257448,1.7138671875
,12.1419997,1.62109375
,12.1646871,1.572265625
,12.183008,1.5185546875
,12.2194204,1.46484375
,12.2492388,1.4111328125
,12.2498249,1.357421875
,12.2653153,1.3134765625
,12.2995238,1.26953125
,12.3211587,1.23046875
,12.3229965,1.1865234375
,12.3585036,1.15234375
,12.3790922,1.11328125
,12.3862894,1.07421875
,12.4073345,1.025390625
,12.4270831,0.99609375
,12.4462009,0.9716796875
,12.4815366,1.005859375
,12.5017033,1.123046875
,12.5021689,1.2841796875
,12.547786,1.484375
,12.5483364,1.6650390625
,12.569051,1.8310546875
,12.5859778,1.9482421875
,12.6056854,2.05078125
,12.6430546,2.119140625
,12.6459642,2.1826171875
,12.6652946,2.2119140625
,12.6849272,2.2265625
,12.7058346,2.2021484375
,12.7414594,2.16796875
,12.7437859,2.1240234375
,12.7808678,2.0849609375
,12.8013401,2.0458984375
,12.8068463,2.01171875
,12.8282826,1.9775390625
,12.8486984,1.93359375
,12.8674171,1.8701171875
,12.8844745,1.806640625
,12.9063639,1.7724609375
,12.9398784,1.7333984375
,12.9453515,1.689453125
,12.9851196,1.6455078125
,12.9855669,1.6015625
,13.0245895,1.5576171875
,13.0274697,1.5185546875
,13.0428214,1.4794921875
,13.0803178,1.4501953125
,13.1126479,1.416015625
,13.1130907,1.38671875
,13.1277931,1.3525390625
,13.1758804,1.3134765625
,13.1769658,1.2744140625
,13.1877569,1.2353515625
,13.2375826,1.201171875
,13.2381552,1.1669921875
,13.2684393,1.1474609375
,13.2689108,1.1767578125
,13.2861522,1.2890625
,13.3221735,1.4501953125
,13.3419543,1.6455078125
,13.3494817,1.8212890625
,13.3676117,1.9775390625
,13.3863439,2.099609375
,13.42066,2.216796875
,13.425337,2.2998046875
,13.4626639,2.373046875
,13.4652591,2.421875
,13.5050272,2.4365234375
,13.5058059,2.421875
,13.5471735,2.3779296875
,13.5476165,2.32421875
,13.5704593,2.2705078125
,13.5890809,2.20703125
,13.6052693,2.1533203125
,13.6442962,2.1337890625
,13.6450193,2.1044921875
,13.6906925,2.060546875
,13.6913825,2.01171875
,13.7089483,1.97265625
,13.7291324,1.9189453125
,13.7502338,1.865234375
,13.79905,1.81640625
,13.7996885,1.7578125
,13.819013,1.7138671875
,13.8266028,1.66015625
,13.8644266,1.6162109375
,13.8675089,1.5625
,13.9049392,1.513671875
,13.911093,1.4599609375
,13.9294323,1.4111328125
,13.9453653,1.357421875
,13.9799445,1.3232421875
,14.0009582,1.2744140625
,14.0051707,1.23046875
,14.050744600000002,1.19140625
,14.0512689,1.162109375
,14.0806124,1.1572265625
,14.089472099999998,1.240234375
,14.1266386,1.4013671875
,14.127391500000002,1.5869140625
,14.1631006,1.796875
,14.1658556,1.9677734375
,14.1885926,2.109375
,14.209177799999999,2.216796875
,14.244106500000001,2.3046875
,14.249493600000001,2.3681640625
,14.270957,2.4169921875
,14.291308999999998,2.44140625
,14.3098946,2.4169921875
,14.3274985,2.36328125
,14.3661286,2.333984375
,14.38485,2.2900390625
,14.388719300000002,2.2509765625
,14.408075100000001,2.2216796875
,14.4576016,2.1875
,14.4580974,2.1533203125
,14.478556000000001,2.109375
,14.491347600000001,2.0654296875
,14.506457399999999,2.0068359375
,14.5267175,1.9580078125
,14.562416800000001,1.8994140625
,14.5672155,1.845703125
,14.6138875,1.787109375
,14.6145454,1.73828125
,14.644629900000002,1.6845703125
,14.6503197,1.640625
,14.6658455,1.591796875
,14.702856400000002,1.5625
,14.7085541,1.5234375
,14.7275725,1.494140625
,14.763456600000001,1.4599609375
,14.769443200000001,1.42578125
,14.7887141,1.38671875
,14.831107,1.34765625
,14.831672999999999,1.3037109375
,14.8526563,1.26953125
,14.867047800000002,1.2841796875
,14.886593600000001,1.376953125
,14.9221553,1.5576171875
,14.957491399999999,1.7578125
,14.95815,1.97265625
,14.969826000000001,2.1533203125
,15.021291699999999,2.3095703125
,15.021943499999999,2.4267578125
,15.052815200000001,2.5048828125
,15.0535161,2.59765625
,15.0691892,2.6611328125
,15.104603699999998,2.7099609375
,15.1103995,2.7099609375
,15.146070300000002,2.6806640625
,15.148877800000001,2.6171875
,15.187665599999999,2.5537109375
,15.1906322,2.4853515625
,15.2106018,2.431640625
,15.2273748,2.373046875
,15.2618009,2.32421875
,15.283701,2.265625
,15.288820000000001,2.197265625
,15.310133700000002,2.138671875
,15.330746000000001,2.0703125
,15.367986599999998,2.001953125
,15.368761800000001,1.93359375
,15.412069899999999,1.8701171875
,15.412703700000002,1.8115234375
,15.429107599999998,1.7578125
,15.447111199999998,1.7138671875
,15.4856716,1.6552734375
,15.488382699999999,1.6015625
,15.5262684,1.5478515625
,15.5309235,1.4990234375
,15.5655057,1.4501953125
,15.598196300000001,1.4111328125
,15.598868199999998,1.40625
,15.610082899999998,1.4599609375
,15.6291461,1.5966796875
,15.650189300000001,1.7724609375
,15.670858599999999,1.9677734375
,15.707815100000001,2.158203125
,15.7109536,2.3046875
,15.753388699999999,2.431640625
,15.753831300000002,2.5244140625
,15.772893799999999,2.6220703125
,15.790263499999998,2.67578125
,15.808776900000002,2.724609375
,15.843491100000001,2.7197265625
,15.863779999999998,2.6806640625
,15.8699416,2.6025390625
,15.9226043,2.51953125
,15.923081199999999,2.4365234375
,15.933560799999999,2.36328125
,15.9498398,2.2998046875
,15.968208400000002,2.2412109375
,16.0141636,2.16796875
,16.0145935,2.1142578125
,16.0351876,2.05078125
,16.0504087,1.982421875
,16.0854164,1.9140625
,16.1055956,1.845703125
,16.112855,1.77734375
,16.1285818,1.7138671875
,16.1491138,1.6552734375
,16.1860122,1.5966796875
,16.190101,1.5380859375
,16.2111869,1.484375
,16.2311181,1.4306640625
,16.2654801,1.3916015625
,16.2853151,1.38671875
,16.285914,1.4453125
,16.3237701,1.5869140625
,16.3444316,1.7919921875
,16.3491116,1.9873046875
,16.3858914,2.1826171875
,16.3910176,2.333984375
,16.4267844,2.4658203125
,16.4312208,2.5537109375
,16.4520271,2.63671875
,16.4901037,2.6904296875
,16.4907886,2.71484375
,16.5090321,2.6953125
,16.545608,2.646484375
,16.5514313,2.55859375
,16.5717982,2.470703125
,16.5907746,2.3876953125
,16.6265799,2.314453125
,16.6549695,2.2412109375
,16.6554268,2.1728515625
,16.673366,2.109375
,16.6897279,2.041015625
,16.7343232,1.9775390625
,16.7347636,1.904296875
,16.750515,1.826171875
,16.7960825,1.7578125
,16.7968654,1.689453125
,16.8135869,1.630859375
,16.8498607,1.5673828125
,16.8505176,1.513671875
,16.8907918,1.46484375
,16.8915563,1.4111328125
,16.9265885,1.3623046875
,16.9297864,1.30859375
,16.9672501,1.2646484375
,16.9722125,1.220703125
,16.9936563,1.171875
,17.0128436,1.1376953125
,17.0301189,1.142578125
,17.068148,1.2548828125
,17.0688035,1.435546875
,17.1041352,1.6796875
,17.1252339,1.9140625
,17.133128,2.1337890625
,17.153135,2.2998046875
,17.1979712,2.4462890625
,17.1984741,2.5439453125
,17.2153334,2.6318359375
,17.2303146,2.685546875
,17.2748461,2.7197265625
,17.2755318,2.705078125
,17.2916181,2.6513671875
,17.3267176,2.568359375
,17.3485875,2.470703125
,17.3525542,2.3876953125
,17.3987015,2.314453125
,17.3993442,2.2412109375
,17.4118943,2.1728515625
,17.43296,2.109375
,17.450931,2.041015625
,17.4893037,1.9677734375
,17.4924945,1.8896484375
,17.5137661,1.806640625
,17.5499234,1.7333984375
,17.553103,1.66015625
,17.5725676,1.58203125
,17.5912531,1.5185546875
,17.6125378,1.455078125
,17.6320793,1.396484375
,17.6530647,1.337890625
,17.6726786,1.279296875
,17.7097515,1.23046875
,17.7120166,1.181640625
,17.7505477,1.1279296875
,17.751177,1.0791015625
,17.7873975,1.0302734375
,17.7895641,0.9765625
,17.8359623,0.9326171875
,17.8366781,0.8837890625
,17.8546068,0.8642578125
,17.8735663,0.927734375
,17.9122092,1.1083984375
,17.9153545,1.3427734375
,17.9350114,1.6259765625
,17.9720698,1.884765625
,17.9726567,2.080078125
,18.0077651,2.2509765625
,18.0121334,2.3681640625
,18.0357169,2.4560546875
,18.053233,2.509765625
,18.099197,2.5537109375
,18.0998481,2.5439453125
,18.1140155,2.4951171875
,18.1318575,2.421875
,18.1519807,2.34375
,18.1862227,2.265625
,18.207192,2.2021484375
,18.2131756,2.1435546875
,18.2350419,2.0849609375
,18.2549056,2.03125
,18.2887593,1.9677734375
,18.3102468,1.8994140625
,18.3106966,1.826171875
,18.3469619,1.767578125
,18.3531054,1.6943359375
,18.3733284,1.6259765625
,18.3939283,1.5576171875
,18.4306162,1.484375
,18.4334363,1.416015625
,18.4554282,1.3623046875
,18.4717113,1.3134765625
,18.5091911,1.26953125
,18.512369,1.2255859375
,18.550956,1.1865234375
,18.5536796,1.1474609375
,18.5896727,1.11328125
,18.5945282,1.0693359375
,18.6345833,1.025390625
,18.6350934,0.9765625
,18.6563736,0.9375
,18.677815,0.9375
,18.6935272,1.0302734375
,18.7136075,1.25
,18.7490413,1.50390625
,18.7520707,1.7724609375
,18.7877296,1.9921875
,18.8077368,2.1728515625
,18.8157831,2.2900390625
,18.8518866,2.3828125
,18.8525445,2.4267578125
,18.8722191,2.4609375
,18.9085424,2.4560546875
,18.914135,2.40234375
,18.951621,2.3291015625
,18.9551268,2.2607421875
,18.975187,2.1923828125
,19.0105919,2.1337890625
,19.0164869,2.080078125
,19.033314,2.03125
,19.0545445,1.9921875
,19.0730114,1.943359375
,19.1079543,1.884765625
,19.1289461,1.8212890625
,19.1346405,1.7431640625
,19.1562589,1.669921875
,19.1764668,1.591796875
,19.1906516,1.5185546875
,19.2256867,1.4599609375
,19.2472092,1.4013671875
,19.2524706,1.3427734375
,19.3036663,1.298828125
,19.3042381,1.25
,19.3140103,1.2060546875
,19.3514584,1.162109375
,19.3558254,1.1181640625
,19.3776188,1.07421875
,19.3971462,1.025390625
,19.4148562,0.9814453125
,19.4497406,0.9765625
,19.4546057,1.0498046875
,19.4945879,1.2548828125
,19.4952838,1.513671875
,19.5173029,1.8017578125
,19.5385663,2.0703125
,19.5574036,2.265625
,19.592374,2.4267578125
,19.5928228,2.5244140625
,19.6127388,2.6220703125
,19.6347519,2.67578125
,19.6538807,2.705078125
,19.6893097,2.685546875
,19.7100029,2.626953125
,19.7154661,2.5390625
,19.7544957,2.4462890625
,19.755087,2.3583984375
,19.7916829,2.2900390625
,19.7925053,2.2265625
,19.8320221,2.1630859375
,19.8366763,2.1044921875
,19.8564686,2.05078125
,19.8937304,1.982421875
,19.8944496,1.904296875
,19.9326895,1.826171875
,19.9595827,1.748046875
,19.9600777,1.6796875
,19.975413,1.6064453125
,20.0107422,1.533203125
,20.0157904,1.4697265625
,20.0374319,1.4013671875
,20.0577985,1.3427734375
,20.0776423,1.2744140625
,20.0980953,1.2158203125
,20.1341753,1.162109375
,20.1346171,1.1083984375
,20.1803966,1.07421875
,20.1809232,1.0595703125
,20.1962235,1.1181640625
,20.2165636,1.30859375
,20.2371002,1.5625
,20.2560241,1.85546875
,20.2929391,2.1044921875
,20.2991366,2.3291015625
,20.3161317,2.490234375
,20.3530863,2.6318359375
,20.3564733,2.7197265625
,20.39243,2.7880859375
,20.3955917,2.8173828125
,20.4161865,2.8173828125
,20.4607607,2.763671875
,20.4615296,2.67578125
,20.4741943,2.578125
,20.4955339,2.490234375
,20.5327315,2.4072265625
,20.5352357,2.333984375
,20.5717352,2.255859375
,20.5772467,2.1826171875
,20.5958575,2.1142578125
,20.6326715,2.041015625
,20.6528347,1.962890625
,20.6551129,1.8798828125
,20.6928231,1.8017578125
,20.6934935,1.6943359375
,20.7290242,1.630859375
,20.7493402,1.5673828125
,20.754884,1.50390625
,20.7904804,1.4404296875
,20.8106609,1.3818359375
,20.8182135,1.3232421875
,20.8539985,1.259765625
,20.8589693,1.2060546875
,20.8759369,1.15234375
,20.9098937,1.11328125
,20.9306748,1.0693359375
,20.9370917,1.0791015625
,20.9744785,1.181640625
,20.9794044,1.4111328125
,21.0155885,1.669921875
,21.0177606,1.9580078125
,21.0530577,2.197265625
,21.056116,2.4072265625
,21.0906272,2.548828125
,21.1113629,2.666015625
,21.1171504,2.734375
,21.1524344,2.7880859375
,21.1578331,2.79296875
,21.1939296,2.7490234375
,21.2001792,2.666015625
,21.2150579,2.568359375
,21.2544351,2.4658203125
,21.254997,2.3828125
,21.2882576,2.294921875
,21.3093718,2.2216796875
,21.3187852,2.1484375
,21.3635034,2.0751953125
,21.3641893,1.9970703125
,21.3749088,1.9140625
,21.4093125,1.8359375
,21.4304923,1.7236328125
,21.4366893,1.6455078125
,21.4723244,1.572265625
,21.4782714,1.494140625
,21.5192005,1.4208984375
,21.5199806,1.3427734375
,21.5389106,1.26953125
,21.5813568,1.1865234375
,21.581848,1.1181640625
,21.6108469,1.0546875
,21.6172851,1.005859375
,21.6580592,0.9521484375
,21.6586796,0.9326171875
,21.6796399,0.9912109375
,21.6996525,1.1962890625
,21.7196497,1.46484375
,21.7536743,1.7626953125
,21.774377,2.0068359375
,21.7771792,2.2216796875
,21.7974404,2.36328125
,21.8172301,2.4560546875
,21.8517452,2.509765625
,21.8728162,2.5439453125
,21.8803129,2.5341796875
,21.9161229,2.490234375
,21.9190955,2.412109375
,21.9531467,2.32421875
,21.955534,2.24609375
,22.0007867,2.1826171875
,22.0013742,2.12890625
,22.0308908,2.0849609375
,22.0388578,2.0361328125
,22.0621518,1.9775390625
,22.0967772,1.9189453125
,22.0991504,1.8505859375
,22.1196428,1.7724609375
,22.1562614,1.6748046875
,22.1775206,1.6064453125
,22.1782438,1.54296875
,22.2163991,1.474609375
,22.2168537,1.4111328125
,22.2665972,1.34765625
,22.2672369,1.2890625
,22.2853627,1.23046875
,22.3008656,1.1767578125
,22.3168903,1.123046875
,22.3599242,1.0986328125
,22.3606063,1.1181640625
,22.3807011,1.2646484375
,22.4206078,1.494140625
,22.4210669,1.7919921875
,22.4560498,2.0703125
,22.4591656,2.2802734375
,22.5016004,2.4560546875
,22.5020702,2.578125
,22.532945,2.6806640625
,22.538038,2.734375
,22.5744618,2.7587890625
,22.5952465,2.734375
,22.5998439,2.6708984375
,22.6381515,2.578125
,22.6390438,2.48046875
,22.6565532,2.3974609375
,22.6928089,2.333984375
,22.6986034,2.275390625
,22.7330077,2.2119140625
,22.753012,2.1533203125
,22.758946,2.0947265625
,22.793537,2.021484375
,22.8139554,1.943359375
,22.8203937,1.865234375
,22.8416103,1.787109375
,22.8779258,1.689453125
,22.8786009,1.6162109375
,22.9143313,1.5478515625
,22.9193581,1.4794921875
,22.9563988,1.42578125
,22.9599928,1.3623046875
,22.9963698,1.30859375
,23.0016424,1.259765625
,23.0349119,1.240234375
,23.0545761,1.2890625
,23.0583595,1.474609375
,23.1108776,1.7431640625
,23.1115609,2.0166015625
,23.1199753,2.2900390625
,23.1407559,2.5048828125
,23.1779417,2.685546875
,23.1809412,2.822265625
,23.2186016,2.9248046875
,23.2190532,2.9833984375
,23.2365878,3.0224609375
,23.2716436,3.0029296875
,23.2937504,2.9443359375
,23.3020917,2.8466796875
,23.3213958,2.7392578125
,23.3556269,2.63671875
,23.3764444,2.5390625
,23.3818947,2.4560546875
,23.3982672,2.373046875
,23.4362284,2.2900390625
,23.4368953,2.2021484375
,23.4837485,2.1240234375
,23.4842775,2.041015625
,23.5041319,1.9580078125
,23.5217407,1.875
,23.5616686,1.796875
,23.5623609,1.7236328125
,23.6002656,1.6357421875
,23.6008047,1.5673828125
,23.6192899,1.5087890625
,23.6556541,1.4404296875
,23.6613812,1.3720703125
,23.6963736,1.30859375
,23.7010709,1.2646484375
,23.7350573,1.25
,23.7560858,1.3232421875
,23.7638948,1.5087890625
,23.7797625,1.7431640625
,23.8261156,2.0166015625
,23.8267681,2.24609375
,23.8587165,2.451171875
,23.8593727,2.5927734375
,23.894127,2.7197265625
,23.9206034,2.7978515625
,23.9241826,2.8564453125
,23.9390532,2.8759765625
,23.9766387,2.861328125
,23.9798702,2.7978515625
,24.0182036,2.7001953125
,24.0210268,2.59765625
,24.0574599,2.5048828125
,24.0625712,2.421875
,24.0983596,2.34375
,24.1258886,2.265625
,24.1264596,2.177734375
,24.1393116,2.1044921875
,24.1728778,2.0263671875
,24.1946452,1.9482421875
,24.2018942,1.8701171875
,24.2215345,1.7919921875
,24.2585059,1.708984375
,24.260787,1.640625
,24.2981848,1.5673828125
,24.3304068,1.4990234375
,24.331567,1.42578125
,24.3403755,1.3671875
,24.3779175,1.298828125
,24.38239,1.240234375
,24.417717,1.181640625
,24.4239378,1.123046875
,24.4745083,1.083984375
,24.4751158,1.11328125
,24.4823749,1.2744140625
,24.5170502,1.4892578125
,24.5202205,1.7578125
,24.5566124,1.9775390625
,24.5615447,2.16796875
,24.612404,2.2998046875
,24.6128468,2.4072265625
,24.6233308,2.4658203125
,24.6593857,2.5146484375
,24.6643348,2.5341796875
,24.6800462,2.5146484375
,24.7175794,2.4609375
,24.7207118,2.3828125
,24.7702529,2.294921875
,24.7707705,2.216796875
,24.7824249,2.1533203125
,24.8030625,2.099609375
,24.8395297,2.0458984375
,24.8400174,1.9873046875
,24.874255,1.923828125
,24.8947935,1.8603515625
,24.9024017,1.787109375
,24.9223963,1.71875
,24.9422445,1.6455078125
,24.9769429,1.572265625
,24.9972242,1.5185546875
,25.0048171,1.4599609375
,25.0532624,1.4013671875
,25.0537125,1.34765625
,25.0842657,1.298828125
,25.0850402,1.259765625
,25.1020994,1.2158203125
,25.1407169,1.1767578125
,25.1439066,1.1279296875
,25.1923226,1.0986328125
,25.192774,1.11328125
,25.212525,1.2353515625
,25.2210877,1.4208984375
,25.2430482,1.66015625
,25.2776343,1.8603515625
,25.2843655,2.0263671875
,25.3347046,2.1484375
,25.3354869,2.2265625
,25.3443433,2.28515625
,25.3806158,2.314453125
,25.3857556,2.32421875
,25.4033397,2.2998046875
,25.4229548,2.255859375
,25.44292,2.1923828125
,25.4905497,2.138671875
,25.4910957,2.08984375
,25.5211196,2.060546875
,25.5243186,2.021484375
,25.5593616,1.982421875
,25.5801477,1.93359375
,25.5808365,1.884765625
,25.6307954,1.826171875
,25.6313315,1.767578125
,25.6618837,1.7041015625
,25.6626061,1.640625
,25.6989271,1.5771484375
,25.7042799,1.5234375
,25.7412823,1.46484375
,25.7593943,1.4111328125
,25.765451,1.357421875
,25.7824497,1.3037109375
,25.8179571,1.2646484375
,25.8231704,1.23046875
,25.8614179,1.1865234375
,25.864774,1.162109375
,25.8865525,1.1767578125
,25.9222846,1.2646484375
,25.9228445,1.4306640625
,25.9460755,1.6357421875
,25.9630797,1.8115234375
,25.9819586,1.97265625
,26.0196657,2.08984375
,26.0243042,2.1923828125
,26.0593605,2.255859375
,26.0649426,2.3095703125
,26.1011194,2.3388671875
,26.107033,2.3486328125
,26.1241608,2.3193359375
,26.1431887,2.2802734375
,26.1922515,2.2265625
,26.1929088,2.1826171875
,26.2057936,2.138671875
,26.2409595,2.1044921875
,26.243862,2.060546875
,26.2798143,2.021484375
,26.3000346,1.9775390625
,26.3004973,1.923828125
,26.3376273,1.865234375
,26.3446389,1.8115234375
,26.363948,1.7529296875
,26.3998864,1.69921875
,26.4048379,1.6455078125
,26.4430106,1.5966796875
,26.4459833,1.54296875
,26.483694,1.4892578125
,26.4870324,1.4404296875
,26.5048002,1.3916015625
,26.540199,1.357421875
,26.5422685,1.318359375
,26.5799896,1.2890625
,26.5865881,1.2890625
,26.6068181,1.3525390625
,26.626322,1.494140625
,26.6618179,1.66015625
,26.6667323,1.8408203125
,26.6839775,1.982421875
,26.7042136,2.109375
,26.7522742,2.2021484375
,26.7529365,2.2802734375
,26.7636753,2.333984375
,26.8019474,2.3779296875
,26.8059038,2.392578125
,26.8390054,2.3876953125
,26.8613507,2.3486328125
,26.8618605,2.3095703125
,26.8987013,2.255859375
,26.9056213,2.2216796875
,26.9403424,2.1826171875
,26.9459713,2.1435546875
,26.9804233,2.1044921875
,26.9857582,2.060546875
,27.032894,2.0068359375
,27.0333492,1.9580078125
,27.0637085,1.9189453125
,27.0642453,1.875
,27.102769,1.8212890625
,27.103327,1.767578125
,27.1424726,1.7138671875
,27.1638563,1.6650390625
,27.1644366,1.62109375
,27.1996582,1.572265625
,27.2207893,1.5283203125
,27.2276916,1.484375
,27.244165,1.435546875
,27.284162,1.396484375
,27.284713,1.3623046875
,27.3239948,1.3427734375
,27.3246545,1.3525390625
,27.3609013,1.4453125
,27.3693579,1.5771484375
,27.4055445,1.7578125
,27.4063315,1.904296875
,27.425852,2.05078125
,27.4452613,2.1484375
,27.4877034,2.2412109375
,27.4882018,2.2998046875
,27.5072621,2.353515625
,27.5419157,2.3828125
,27.5477569,2.40234375
,27.5984027,2.3779296875
,27.5990333,2.333984375
,27.6044049,2.2900390625
,27.6444984,2.2412109375
,27.645134,2.2021484375
,27.6842364,2.1630859375
,27.6851474,2.12890625
,27.7219055,2.08984375
,27.7526065,2.041015625
,27.7530483,1.9873046875
,27.7656905,1.943359375
,27.7844241,1.884765625
,27.8041867,1.8359375
,27.8387384,1.77734375
,27.8599735,1.7236328125
,27.8684087,1.6748046875
,27.9106524,1.62109375
,27.9113377,1.5771484375
,27.9284552,1.533203125
,27.9713697,1.494140625
,27.9719776,1.455078125
,27.9840085,1.4306640625
,28.0182195,1.3916015625
,28.0399894,1.3525390625
,28.0474208,1.318359375
,28.0867564,1.2841796875
,28.0872587,1.2451171875
,28.1280996,1.2109375
,28.1286159,1.181640625
,28.1486505,1.1962890625
,28.1655895,1.279296875
,28.2062009,1.4501953125
,28.20668,1.650390625
,28.2551188,1.81640625
,28.255631,1.9580078125
,28.2695548,2.0556640625
,28.3043308,2.138671875
,28.3051117,2.1923828125
,28.3475396,2.24609375
,28.3479951,2.275390625
,28.383129,2.28515625
,28.390558,2.2607421875
,28.4077151,2.2265625
,28.4444326,2.177734375
,28.4512533,2.1484375
,28.4642539,2.119140625
,28.499192,2.099609375
,28.5210218,2.080078125
,28.5281607,2.021484375
,28.5639504,1.9970703125
,28.5672098,1.9677734375
,28.6135565,1.93359375
,28.6140952,1.8896484375
,28.6350202,1.845703125
,28.6510017,1.796875
,28.6859539,1.748046875
,28.6866097,1.7041015625
,28.7229793,1.669921875
,28.725929,1.6357421875
,28.7707388,1.6015625
,28.7713263,1.5771484375
,28.8014526,1.54296875
,28.8084339,1.50390625
,28.8490028,1.474609375
,28.8495454,1.4404296875
,28.866025,1.4013671875
,28.9024222,1.3720703125
,28.9259737,1.3427734375
,28.9264083,1.318359375
,28.9622047,1.3232421875
,28.9826867,1.4111328125
,28.9882846,1.5576171875
,29.0370282,1.728515625
,29.0376786,1.8798828125
,29.0681655,2.0263671875
,29.0686294,2.1240234375
,29.1032672,2.2119140625
,29.1082034,2.265625
,29.1459197,2.3095703125
,29.1486573,2.34375
,29.1865307,2.3388671875
,29.1875976,2.3193359375
,29.2244416,2.275390625
,29.2319773,2.24609375
,29.2492777,2.1826171875
,29.2842233,2.16796875
,29.2866737,2.1484375
,29.3203339,2.119140625
,29.3409804,2.08984375
,29.3499641,2.0556640625
,29.3875862,2.0068359375
,29.3944856,1.9580078125
,29.4080216,1.9091796875
,29.4442809,1.8701171875
,29.4468032,1.81640625
,29.4849895,1.77734375
,29.4879514,1.7333984375
,29.5383438,1.6845703125
,29.538878,1.6455078125
,29.5699906,1.6064453125
,29.5706459,1.572265625
,29.5870028,1.533203125
,29.6081116,1.5087890625
,29.6428606,1.4794921875
,29.6642055,1.4501953125
,29.6672369,1.4111328125
,29.7043157,1.376953125
,29.7375852,1.3427734375
,29.7382159,1.34765625
,29.7478334,1.4208984375
,29.8000798,1.5869140625
,29.8007393,1.7822265625
,29.8091487,1.953125
,29.8467366,2.1142578125
,29.8495811,2.236328125
,29.8932473,2.3388671875
,29.8937217,2.412109375
,29.9116931,2.470703125
,29.9313459,2.5048828125
,29.9535724,2.5048828125
,29.9691215,2.48046875
,29.9894578,2.4755859375
,30.033788199999996,2.4365234375
,30.034224199999997,2.392578125
,30.049641200000003,2.3583984375
,30.095658,2.32421875
,30.096130600000002,2.28515625
,30.112113700000002,2.2607421875
,30.149805299999997,2.216796875
,30.150512999999997,2.16796875
,30.167968700000003,2.1240234375
,30.2049029,2.0654296875
,30.235132299999997,2.0068359375
,30.2355692,1.9482421875
,30.250036799999997,1.8994140625
,30.286619299999998,1.8408203125
,30.3151777,1.7822265625
,30.315633400000003,1.728515625
,30.3287913,1.689453125
,30.366875200000003,1.650390625
,30.367434699999997,1.6162109375
,30.405431399999998,1.5771484375
,30.411848399999997,1.5380859375
,30.4526112,1.4990234375
,30.4533203,1.455078125
,30.486542900000003,1.4111328125
,30.4872529,1.3720703125
,30.523752299999998,1.3720703125
,30.545144800000003,1.42578125
,30.5499753,1.5673828125
,30.570966900000002,1.7431640625
,30.606226200000002,1.943359375
,30.612205699999997,2.1142578125
,30.6328282,2.265625
,30.652821199999998,2.3779296875
,30.674417,2.4462890625
,30.6887439,2.490234375
,30.725804699999998,2.55859375
,30.7286637,2.59765625
,30.763948999999997,2.6220703125
,30.796349399999997,2.59765625
,30.7967838,2.5439453125
,30.812112,2.490234375
,30.8602724,2.4365234375
,30.860942799999997,2.3828125
,30.868609399999997,2.3388671875
,30.904907100000003,2.2998046875
,30.910380099999998,2.255859375
,30.9451253,2.197265625
,30.967613999999998,2.1484375
,30.970671699999997,2.08984375
,31.0139767,2.0263671875
,31.0144411,1.97265625
,31.035390300000003,1.9091796875
,31.051628700000002,1.8505859375
,31.0702698,1.796875
,31.0910797,1.73828125
,31.1257546,1.689453125
,31.131720799999997,1.640625
,31.1675033,1.6015625
,31.172976400000003,1.5576171875
,31.2100778,1.5185546875
,31.2107345,1.474609375
,31.245631099999997,1.4404296875
,31.2506208,1.396484375
,31.2864298,1.357421875
,31.291708800000002,1.30859375
,31.3273985,1.2646484375
,31.361084499999997,1.2158203125
,31.3616563,1.171875
,31.3722639,1.142578125
,31.3934364,1.1572265625
,31.4285559,1.2890625
,31.429308300000002,1.5087890625
,31.4505396,1.7724609375
,31.4881375,2.001953125
,31.492207999999998,2.197265625
,31.526268,2.3388671875
,31.5463838,2.451171875
,31.552098800000003,2.5244140625
,31.596506400000003,2.587890625
,31.597167,2.6220703125
,31.626196200000003,2.63671875
,31.6313458,2.6171875
,31.672880499999998,2.568359375
,31.673526000000003,2.5048828125
,31.720905199999997,2.4365234375
,31.7213583,2.3876953125
,31.7332678,2.333984375
,31.783875700000003,2.2802734375
,31.784383499999997,2.2265625
,31.791063100000002,2.1826171875
,31.8260795,2.12890625
,31.832029499999997,2.0703125
,31.8682897,2.001953125
,31.8738185,1.93359375
,31.893917899999998,1.865234375
,31.9115733,1.8017578125
,31.957031,1.7333984375
,31.9575618,1.6748046875
,31.9703383,1.62109375
,32.0194053,1.572265625
,32.0200579,1.5185546875
,32.0497302,1.484375
,32.0527194,1.435546875
,32.073375,1.3916015625
,32.1139578,1.3427734375
,32.132711,1.3037109375
,32.135894,1.2353515625
,32.1524468,1.201171875
,32.187391,1.1669921875
,32.1928543,1.1328125
,32.2300923,1.09375
,32.2305691,1.0546875
,32.2701432,1.015625
,32.2749137,0.986328125
,32.3145489,1.03515625
,32.3152028,1.19140625
,32.332704,1.455078125
,32.3523624,1.73828125
,32.3934594,1.97265625
,32.3942203,2.1728515625
,32.4137268,2.3095703125
,32.4505187,2.4169921875
,32.4579957,2.4755859375
,32.4756269,2.5146484375
,32.492093,2.529296875
,32.5263334,2.529296875
,32.5313641,2.4853515625
,32.5662751,2.431640625
,32.5875565,2.3681640625
,32.5931577,2.314453125
,32.6444512,2.265625
,32.6451572,2.2265625
,32.6506399,2.1728515625
,32.691432,2.1484375
,32.6921232,2.099609375
,32.7292422,2.0458984375
,32.7300761,1.9873046875
,32.7686324,1.923828125
,32.7887582,1.8505859375
,32.7944654,1.787109375
,32.8306703,1.71875
,32.8363349,1.6552734375
,32.8563558,1.591796875
,32.8719342,1.5380859375
,32.9102561,1.4892578125
,32.9107096,1.4404296875
,32.9565261,1.396484375
,32.9569615,1.357421875
,32.9781281,1.318359375
,32.9962041,1.2841796875
,33.0166845,1.240234375
,33.0359995,1.1962890625
,33.0536886,1.15234375
,33.0982685,1.1181640625
,33.0987706,1.0791015625
,33.1136584,1.0546875
,33.1596406,1.0693359375
,33.1600745,1.2060546875
,33.1755982,1.435546875
,33.2096604,1.728515625
,33.2299658,1.982421875
,33.2330908,2.2216796875
,33.2679177,2.392578125
,33.2974129,2.5244140625
,33.2978677,2.6123046875
,33.3134537,2.685546875
,33.3495381,2.724609375
,33.3703253,2.7294921875
,33.3762758,2.705078125
,33.3931644,2.6513671875
,33.4287456,2.587890625
,33.4316175,2.51953125
,33.4849251,2.4560546875
,33.4857903,2.3974609375
,33.4961257,2.34375
,33.5321654,2.294921875
,33.5362449,2.2314453125
,33.5726603,2.158203125
,33.5756807,2.099609375
,33.5927588,2.03125
,33.6279298,1.9580078125
,33.6481196,1.8896484375
,33.6537538,1.81640625
,33.7023389,1.748046875
,33.702771,1.6845703125
,33.7156968,1.630859375
,33.7500881,1.5673828125
,33.7696765,1.513671875
,33.7736933,1.4599609375
,33.7935281,1.416015625
,33.8283542,1.376953125
,33.8368069,1.337890625
,33.8548221,1.2939453125
,33.8887809,1.25
,33.9099456,1.19140625
,33.9171104,1.1376953125
,33.9342289,1.083984375
,33.9703977,1.044921875
,33.9733786,1.0498046875
,34.0091551,1.1572265625
,34.0307883,1.4013671875
,34.0358915,1.6748046875
,34.0557152,1.962890625
,34.0914691,2.1923828125
,34.0964838,2.392578125
,34.1130293,2.529296875
,34.1511141,2.646484375
,34.1518011,2.7197265625
,34.1887535,2.7685546875
,34.2095971,2.7880859375
,34.2152381,2.7783203125
,34.2532797,2.7294921875
,34.2562441,2.6513671875
,34.2931724,2.568359375
,34.2980057,2.4951171875
,34.3462068,2.4267578125
,34.3468784,2.36328125
,34.3557715,2.3095703125
,34.3749842,2.24609375
,34.410298,2.1728515625
,34.4313609,2.1044921875
,34.4367797,2.03125
,34.4750492,1.9482421875
,34.4757154,1.8701171875
,34.4938036,1.787109375
,34.5149749,1.71875
,34.552865,1.650390625
,34.5535138,1.5771484375
,34.593185,1.5087890625
,34.5967458,1.455078125
,34.6343874,1.4013671875
,34.6352594,1.3525390625
,34.6699315,1.2939453125
,34.6916947,1.240234375
,34.6924166,1.19140625
,34.7345737,1.1376953125
,34.7352333,1.0888671875
,34.7565508,1.0302734375
,34.7934851,0.9814453125
,34.7979496,0.9814453125
,34.8444214,1.11328125
,34.8449921,1.3525390625
,34.855571,1.6650390625
,34.8900582,1.93359375
,34.895012,2.177734375
,34.9324792,2.36328125
,34.9387209,2.4853515625
,34.9582216,2.568359375
,34.9784045,2.6220703125
,35.013665,2.65625
,35.0182672,2.65625
,35.0540672,2.6220703125
,35.0545584,2.5537109375
,35.0745276,2.48046875
,35.1122948,2.3974609375
,35.1152245,2.3291015625
,35.1574317,2.265625
,35.157889,2.20703125
,35.1875799,2.1533203125
,35.1984054,2.0947265625
,35.2144999,2.0263671875
,35.2507244,1.9775390625
,35.2556857,1.904296875
,35.2775446,1.826171875
,35.3274932,1.748046875
,35.3281447,1.669921875
,35.3391623,1.591796875
,35.3584612,1.513671875
,35.3941878,1.4501953125
,35.4211325,1.3818359375
,35.4218982,1.328125
,35.4367238,1.279296875
,35.4729782,1.23046875
,35.4759142,1.1767578125
,35.5167003,1.1328125
,35.5175269,1.0791015625
,35.5384178,1.0302734375
,35.5722441,1.0107421875
,35.5934692,1.064453125
,35.5939044,1.2744140625
,35.641419,1.54296875
,35.6420716,1.8359375
,35.659939,2.0751953125
,35.6942115,2.2705078125
,35.6971146,2.3974609375
,35.7331206,2.48046875
,35.7534485,2.5244140625
,35.7593875,2.55859375
,35.7746588,2.5537109375
,35.812178,2.529296875
,35.8329172,2.4658203125
,35.8379476,2.392578125
,35.8755068,2.32421875
,35.8796026,2.275390625
,35.9222383,2.236328125
,35.9229215,2.1875
,35.9392669,2.1435546875
,35.9567925,2.0947265625
,35.9930669,2.041015625
,35.9960529,1.982421875
,36.0319972,1.9189453125
,36.0374757,1.845703125
,36.0783187,1.77734375
,36.0789733,1.708984375
,36.0991429,1.6455078125
,36.1148991,1.5869140625
,36.1488049,1.5380859375
,36.1710286,1.484375
,36.1773471,1.435546875
,36.2132406,1.38671875
,36.2185663,1.3330078125
,36.2553301,1.279296875
,36.2584469,1.2353515625
,36.2962177,1.2255859375
,36.2966647,1.298828125
,36.3459212,1.50390625
,36.3463717,1.7578125
,36.3758912,2.0361328125
,36.3765478,2.265625
,36.410466,2.4658203125
,36.4319463,2.6171875
,36.4398104,2.734375
,36.4614824,2.8076171875
,36.4806618,2.8515625
,36.4981307,2.861328125
,36.534827,2.8466796875
,36.5397121,2.7880859375
,36.559169,2.705078125
,36.5949723,2.6220703125
,36.5971211,2.5439453125
,36.6340043,2.470703125
,36.6543881,2.412109375
,36.6625039,2.3486328125
,36.6768954,2.2802734375
,36.7148066,2.20703125
,36.7177902,2.1337890625
,36.7564268,2.060546875
,36.7570847,1.982421875
,36.7946282,1.9091796875
,36.7999528,1.8359375
,36.8367491,1.767578125
,36.8414812,1.7041015625
,36.8574587,1.6455078125
,36.9059507,1.5869140625
,36.9063827,1.5283203125
,36.9191703,1.474609375
,36.9389014,1.416015625
,36.9737605,1.3623046875
,37.0003748,1.318359375
,37.0010174,1.337890625
,37.0184456,1.4599609375
,37.0377984,1.6943359375
,37.0739962,1.953125
,37.080022,2.2265625
,37.1002546,2.44140625
,37.1401996,2.63671875
,37.1406416,2.7734375
,37.1881384,2.890625
,37.188587,2.9638671875
,37.2179048,2.9931640625
,37.2207618,2.9931640625
,37.2379098,2.94921875
,37.2769282,2.8759765625
,37.2775785,2.7880859375
,37.3276864,2.7001953125
,37.3281306,2.6171875
,37.357694,2.5341796875
,37.3608426,2.4560546875
,37.4047725,2.3779296875
,37.405331,2.294921875
,37.4198573,2.216796875
,37.4387672,2.1337890625
,37.4763186,2.05078125
,37.481031,1.9677734375
,37.5182361,1.8798828125
,37.5189292,1.8017578125
,37.5527366,1.7236328125
,37.573502,1.66015625
,37.578486,1.5966796875
,37.5997147,1.54296875
,37.6343231,1.4794921875
,37.6390688,1.416015625
,37.6856568,1.3525390625
,37.6863016,1.298828125
,37.7005304,1.2353515625
,37.7367535,1.19140625
,37.7371964,1.2060546875
,37.7737287,1.3525390625
,37.7793196,1.5771484375
,37.8140986,1.8798828125
,37.8187661,2.1630859375
,37.8575442,2.3974609375
,37.8607943,2.5927734375
,37.9042913,2.7392578125
,37.9047695,2.8466796875
,37.9232104,2.91015625
,37.9429654,2.9541015625
,37.9604901,2.9443359375
,37.9806078,2.9052734375
,38.0162843,2.822265625
,38.0215912,2.7099609375
,38.0611738,2.6025390625
,38.0618652,2.509765625
,38.0985249,2.4169921875
,38.1016072,2.3291015625
,38.1386517,2.2509765625
,38.1391126,2.1533203125
,38.1729259,2.080078125
,38.1929843,1.9921875
,38.1989133,1.904296875
,38.2339745,1.8115234375
,38.2556381,1.7236328125
,38.265016,1.6357421875
,38.2841599,1.5576171875
,38.298848,1.4794921875
,38.3436385,1.42578125
,38.34407,1.3720703125
,38.3648437,1.318359375
,38.3820539,1.259765625
,38.4018259,1.201171875
,38.4371215,1.142578125
,38.441908,1.09375
,38.4787109,1.044921875
,38.4817978,0.99609375
,38.5031215,0.966796875
,38.5217123,1.0546875
,38.5575809,1.3037109375
,38.5620241,1.5966796875
,38.5808677,1.8994140625
,38.6172739,2.1435546875
,38.622483,2.3486328125
,38.6706699,2.4853515625
,38.6713313,2.5927734375
,38.6782193,2.65625
,38.7170964,2.7099609375
,38.7384851,2.705078125
,38.7413097,2.6611328125
,38.7768794,2.5830078125
,38.7969145,2.490234375
,38.8021245,2.40234375
,38.8381349,2.3291015625
,38.8586315,2.2607421875
,38.8590626,2.197265625
,38.899891,2.1533203125
,38.9299188,2.08984375
,38.9303883,2.0263671875
,38.9431483,1.9482421875
,38.9634186,1.875
,38.9982599,1.787109375
,39.0035762,1.7041015625
,39.0215327,1.6259765625
,39.0701789,1.5673828125
,39.0706107,1.50390625
,39.0806294,1.4501953125
,39.1016563,1.396484375
,39.1500017,1.3427734375
,39.1506801,1.2939453125
,39.1641755,1.2451171875
,39.1999692,1.1962890625
,39.2044914,1.15234375
,39.2237294,1.0888671875
,39.2424186,1.0498046875
,39.2615378,1.1376953125
,39.3064805,1.328125
,39.3071499,1.611328125
,39.3231696,1.89453125
,39.3595915,2.177734375
,39.3655562,2.3974609375
,39.3854865,2.578125
,39.4058662,2.705078125
,39.4224717,2.7880859375
,39.4571085,2.8515625
,39.4626966,2.87109375
,39.5108504,2.8515625
,39.5113638,2.7783203125
,39.5230023,2.6806640625
,39.5608077,2.5830078125
,39.5651349,2.490234375
,39.5817019,2.4072265625
,39.618073,2.3486328125
,39.6213218,2.2802734375
,39.656103,2.20703125
,39.6769806,2.1337890625
,39.6819153,2.0556640625
,39.7177865,1.962890625
,39.7386772,1.884765625
,39.7446875,1.8017578125
,39.7632483,1.7236328125
,39.8010844,1.6552734375
,39.8015971,1.5966796875
,39.8373866,1.5380859375
,39.8577605,1.4794921875
,39.8648311,1.4208984375
,39.8825713,1.3671875
,39.9159462,1.30859375
,39.9367124,1.25
,39.9464796,1.1767578125
,39.9611562,1.123046875
,40.0085907,1.171875
,40.0090767,1.318359375
,40.0397481,1.572265625
,40.0446625,1.884765625
,40.0805947,2.158203125
,40.0838515,2.4169921875
,40.1199642,2.6171875
,40.1254197,2.7978515625
,40.143837,2.9150390625
,40.1632862,3.0078125
,40.1824383,3.056640625
,40.2171977,3.0712890625
,40.2384264,3.02734375
,40.2444917,2.939453125
,40.2880967,2.822265625
,40.2885813,2.7099609375
,40.3031378,2.6025390625
,40.3222735,2.5146484375
,40.3568573,2.431640625
,40.3775832,2.353515625
,40.3835991,2.2705078125
,40.4270956,2.1728515625
,40.4275433,2.0947265625
,40.4449274,2.001953125
,40.4655434,1.9140625
,40.4828284,1.826171875
,40.5040687,1.7529296875
,40.5240548,1.6796875
,40.5675426,1.6162109375
,40.5688495,1.5478515625
,40.5853452,1.474609375
,40.6206982,1.40625
,40.6271922,1.34765625
,40.6461806,1.279296875
,40.6832765,1.1962890625
,40.6864454,1.1376953125
,40.7032035,1.083984375
,40.7382685,1.0546875
,40.7600332,1.0888671875
,40.7629649,1.2451171875
,40.8002659,1.484375
,40.8203074,1.8017578125
,40.8256328,2.0849609375
,40.8617378,2.353515625
,40.8624242,2.5537109375
,40.9113782,2.7392578125
,40.9120477,2.861328125
,40.9242702,2.9541015625
,40.9608375,3.0029296875
,40.9654392,3.0126953125
,41.0025889,2.9638671875
,41.005605,2.8759765625
,41.0446369,2.7490234375
,41.0453113,2.6220703125
,41.0631951,2.5146484375
,41.1132459,2.4169921875
,41.1138846,2.3291015625
,41.1343343,2.2412109375
,41.1460989,2.1533203125
,41.1824163,2.0703125
,41.1844864,1.982421875
,41.2025866,1.8798828125
,41.2377411,1.7919921875
,41.2589971,1.7041015625
,41.2664121,1.62109375
,41.2845659,1.5283203125
,41.3213857,1.435546875
,41.3248753,1.3623046875
,41.3614,1.2890625
,41.3671904,1.2255859375
,41.3881012,1.1669921875
,41.4249234,1.11328125
,41.4255378,1.0595703125
,41.4609575,1.015625
,41.4643539,0.95703125
,41.5157908,0.8984375
,41.5162228,0.83984375
,41.5267455,0.791015625
,41.5611637,0.7861328125
,41.5942408,0.908203125
,41.5951311,1.1474609375
,41.6050646,1.4794921875
,41.6405004,1.796875
,41.6449065,2.08984375
,41.6819333,2.314453125
,41.7016027,2.470703125
,41.7067943,2.587890625
,41.7422331,2.6708984375
,41.7479024,2.7197265625
,41.7661679,2.724609375
,41.785726,2.6904296875
,41.8228191,2.6171875
,41.8265053,2.5146484375
,41.873558,2.4169921875
,41.8742136,2.3291015625
,41.88748,2.2509765625
,41.905919,2.1826171875
,41.926363,2.119140625
,41.9432626,2.0556640625
,41.9775324,1.9873046875
,41.998547,1.9091796875
,42.0046035,1.826171875
,42.0412823,1.7333984375
,42.0484978,1.6552734375
,42.0683331,1.5673828125
,42.0897024,1.484375
,42.1078972,1.40625
,42.1444361,1.337890625
,42.1451489,1.26953125
,42.183238,1.220703125
,42.2046814,1.1669921875
,42.2051906,1.123046875
,42.2426507,1.07421875
,42.2478344,1.0205078125
,42.2828808,0.9619140625
,42.2901408,0.908203125
,42.3084306,0.8544921875
,42.3255693,0.8203125
,42.3624799,0.8544921875
,42.365602,1.0107421875
,42.4031717,1.2890625
,42.4329979,1.6064453125
,42.4336614,1.93359375
,42.4487874,2.1923828125
,42.4688761,2.40234375
,42.4861258,2.5439453125
,42.5205418,2.6708984375
,42.5264189,2.7490234375
,42.5734369,2.79296875
,42.5740958,2.7880859375
,42.603074,2.7392578125
,42.6099738,2.65625
,42.6293686,2.5537109375
,42.6490918,2.4609375
,42.6641923,2.373046875
,42.6999119,2.3095703125
,42.7056803,2.2412109375
,42.7426629,2.16796875
,42.7714667,2.099609375
,42.771899,2.021484375
,42.7879755,1.93359375
,42.8265509,1.845703125
,42.8272254,1.748046875
,42.8642751,1.66015625
,42.8647164,1.572265625
,42.8881992,1.4990234375
,42.9063919,1.42578125
,42.9426878,1.3671875
,42.9625993,1.30859375
,42.968422,1.25
,43.0071159,1.19140625
,43.007666,1.1328125
,43.0425016,1.0693359375
,43.0624164,1.0107421875
,43.0678553,0.9716796875
,43.086234,0.9375
,43.1195563,0.986328125
,43.1408054,1.15234375
,43.1488181,1.4404296875
,43.1692063,1.748046875
,43.2058724,2.05078125
,43.2063201,2.294921875
,43.2396539,2.5048828125
,43.2599349,2.6708984375
,43.2685318,2.783203125
,43.2876425,2.87109375
,43.3230629,2.919921875
,43.3301468,2.9296875
,43.3484376,2.880859375
,43.387472,2.79296875
,43.3881261,2.6806640625
,43.4347705,2.5732421875
,43.4352084,2.48046875
,43.4474982,2.40234375
,43.4845051,2.32421875
,43.4875836,2.24609375
,43.5247008,2.158203125
,43.5300154,2.0751953125
,43.5767465,1.9873046875
,43.5775982,1.8994140625
,43.5922878,1.796875
,43.6073453,1.7041015625
,43.655461,1.62109375
,43.656159,1.5380859375
,43.6693203,1.4501953125
,43.7177671,1.3671875
,43.7183539,1.2744140625
,43.7300285,1.1962890625
,43.7507828,1.11328125
,43.7659279,1.0400390625
,43.8106947,0.9619140625
,43.8113507,0.9033203125
,43.8408119,0.8935546875
,43.8488292,0.99609375
,43.884151,1.2353515625
,43.8892474,1.5576171875
,43.9372131,1.8505859375
,43.9378813,2.119140625
,43.9462262,2.3193359375
,43.9850054,2.490234375
,43.9884667,2.6123046875
,44.0095825,2.7099609375
,44.0435883,2.7587890625
,44.0638373,2.7783203125
,44.0692661,2.734375
,44.0896371,2.65625
,44.1077304,2.548828125
,44.1452447,2.451171875
,44.1458061,2.36328125
,44.1832388,2.28515625
,44.18833,2.2119140625
,44.2244056,2.1435546875
,44.2291641,2.080078125
,44.2803492,2.001953125
,44.2809808,1.923828125
,44.290613,1.8359375
,44.3293596,1.748046875
,44.3300223,1.6650390625
,44.3481239,1.5869140625
,44.3686407,1.513671875
,44.4035948,1.4404296875
,44.4241118,1.3720703125
,44.430624,1.3037109375
,44.4507766,1.2353515625
,44.4887153,1.181640625
,44.4895081,1.1328125
,44.5079873,1.11328125
,44.5424329,1.1767578125
,44.563906,1.337890625
,44.5693872,1.591796875
,44.6054207,1.845703125
,44.6104031,2.0947265625
,44.6476662,2.2802734375
,44.6506456,2.431640625
,44.6687442,2.529296875
,44.7050124,2.6220703125
,44.7083622,2.67578125
,44.7551662,2.6953125
,44.7558405,2.6611328125
,44.7700625,2.5927734375
,44.8063721,2.5048828125
,44.8117611,2.421875
,44.8264217,2.353515625
,44.8640792,2.3095703125
,44.8684508,2.2607421875
,44.9032028,2.2021484375
,44.9232626,2.1533203125
,44.9279856,2.0947265625
,44.966743,2.0263671875
,44.9708126,1.962890625
,45.0194094,1.89453125
,45.0200863,1.826171875
,45.0329383,1.7626953125
,45.0500927,1.69921875
,45.0699575,1.6455078125
,45.0891528,1.591796875
,45.1276732,1.54296875
,45.1483386,1.4892578125
,45.1490418,1.4453125
,45.185996,1.4208984375
,45.2073059,1.4306640625
,45.2131235,1.533203125
,45.2290452,1.7041015625
,45.26395,1.9384765625
,45.2693378,2.1435546875
,45.3158011,2.3388671875
,45.3164835,2.4853515625
,45.3324344,2.6123046875
,45.3513624,2.705078125
,45.3859826,2.783203125
,45.407305,2.8271484375
,45.4077539,2.8466796875
,45.4286566,2.8173828125
,45.4652677,2.75390625
,45.4854905,2.6708984375
,45.492624,2.6123046875
,45.5275567,2.5537109375
,45.5334932,2.4951171875
,45.5686982,2.44140625
,45.5691425,2.3779296875
,45.6036815,2.314453125
,45.6264072,2.2412109375
,45.6309674,2.16796875
,45.6507516,2.099609375
,45.6867494,2.03125
,45.6918438,1.9677734375
,45.728677,1.904296875
,45.7512929,1.8408203125
,45.7517533,1.787109375
,45.7859053,1.7236328125
,45.7890761,1.6748046875
,45.8251073,1.630859375
,45.8465819,1.58203125
,45.8497859,1.5380859375
,45.8855154,1.513671875
,45.9089129,1.552734375
,45.91234,1.66015625
,45.9508671,1.8408203125
,45.9513221,2.0166015625
,45.9875688,2.2021484375
,45.9914584,2.353515625
,46.0290217,2.490234375
,46.0297237,2.5927734375
,46.0667125,2.685546875
,46.0878528,2.7490234375
,46.0931821,2.79296875
,46.1092193,2.79296875
,46.1463495,2.7734375
,46.1664242,2.7099609375
,46.1693897,2.63671875
,46.2074363,2.5634765625
,46.2133264,2.490234375
,46.2495408,2.431640625
,46.2533221,2.3681640625
,46.3004304,2.3046875
,46.3008685,2.236328125
,46.3090324,2.16796875
,46.3479398,2.1044921875
,46.3690387,2.0361328125
,46.3697641,1.9677734375
,46.41031,1.904296875
,46.4403293,1.8408203125
,46.4409971,1.7822265625
,46.4532045,1.728515625
,46.4914318,1.669921875
,46.4945757,1.611328125
,46.5100065,1.552734375
,46.5463184,1.5087890625
,46.5520231,1.4599609375
,46.5965157,1.4111328125
,46.5969568,1.376953125
,46.6123038,1.396484375
,46.6497056,1.4697265625
,46.6550541,1.611328125
,46.6715773,1.7578125
,46.7060975,1.9189453125
,46.7121669,2.0458984375
,46.7317982,2.1533203125
,46.7678777,2.2314453125
,46.7727142,2.2998046875
,46.8087866,2.3486328125
,46.8133563,2.373046875
,46.8617595,2.3779296875
,46.8622711,2.34375
,46.8828487,2.2900390625
,46.8930852,2.236328125
,46.9122863,2.1826171875
,46.9471021,2.1337890625
,46.9676902,2.0947265625
,46.973659,2.0458984375
,47.0085024,1.9970703125
,47.0091605,1.9384765625
,47.0454328,1.8896484375
,47.0651871,1.806640625
,47.073284,1.7578125
,47.0936571,1.708984375
,47.1138978,1.650390625
,47.1484547,1.591796875
,47.1543593,1.533203125
,47.18931,1.484375
,47.1963574,1.435546875
,47.2338181,1.396484375
,47.2344802,1.3525390625
,47.2531199,1.318359375
,47.2872912,1.279296875
,47.307454,1.25
,47.315602,1.2109375
,47.3351225,1.171875
,47.3542605,1.1376953125
,47.3925126,1.103515625
,47.393132,1.07421875
,47.4288901,1.09375
,47.431922,1.1767578125
,47.4668007,1.30859375
,47.4876438,1.474609375
,47.4950652,1.62109375
,47.528859,1.7578125
,47.5363879,1.8603515625
,47.5811511,1.943359375
,47.5819394,2.001953125
,47.593118,2.05078125
,47.6137958,2.0849609375
,47.6498603,2.08984375
,47.6549111,2.0703125
,47.7038387,2.041015625
,47.7044927,2.001953125
,47.7148407,1.9677734375
,47.7531914,1.943359375
,47.7561518,1.9189453125
,47.7779611,1.875
,47.7934401,1.8310546875
,47.8445547,1.8212890625
,47.8450535,1.7919921875
,47.8528141,1.7578125
,47.8901346,1.7236328125
,47.9115534,1.689453125
,47.9175667,1.6455078125
,47.9691449,1.6064453125
,47.9698409,1.5576171875
,47.9725243,1.5283203125
,48.0070888,1.494140625
,48.0282431,1.4697265625
,48.0356396,1.4404296875
,48.0722152,1.4111328125
,48.0750259,1.38671875
,48.1269519,1.357421875
,48.1273937,1.3232421875
,48.1584462,1.2939453125
,48.1591078,1.26953125
,48.1748328,1.25
,48.1940406,1.240234375
,48.2286978,1.26953125
,48.2497405,1.3671875
,48.2556412,1.4990234375
,48.2916826,1.66015625
,48.2923321,1.7919921875
,48.3266986,1.9140625
,48.3469952,2.001953125
,48.3534794,2.0703125
,48.3890921,2.12890625
,48.396298,2.1630859375
,48.4316536,2.1923828125
,48.4366853,2.1923828125
,48.4576259,2.1826171875
,48.4776464,2.1484375
,48.4973772,2.08984375
,48.5132125,2.0458984375
,48.5351183,2.041015625
,48.5697094,2.03125
,48.5755368,2.021484375
,48.6284015,1.9970703125
,48.6290805,1.97265625
,48.637115,1.93359375
,48.6753289,1.89453125
,48.6763743,1.85546875
,48.6923542,1.826171875
,48.7281813,1.787109375
,48.7492706,1.748046875
,48.7553461,1.708984375
,48.7908641,1.6748046875
,48.7967805,1.6357421875
,48.8367422,1.5966796875
,48.837426,1.5673828125
,48.8535619,1.5283203125
,48.8737931,1.4990234375
,48.9089487,1.474609375
,48.9289676,1.4404296875
,48.9365216,1.40625
,48.9571275,1.3720703125
,48.9990663,1.3427734375
,48.9995172,1.3134765625
,49.0469519,1.3134765625
,49.0476563,1.3623046875
,49.0532523,1.4892578125
,49.0900763,1.6357421875
,49.1241695,1.8017578125
,49.1249846,1.923828125
,49.1367344,2.0361328125
,49.1568253,2.119140625
,49.1773103,2.1923828125
,49.197009,2.24609375
,49.247354,2.2802734375
,49.2480362,2.3095703125
,49.2543002,2.333984375
,49.2957358,2.32421875
,49.3130499,2.2998046875
,49.3169855,2.265625
,49.3542942,2.2314453125
,49.3551613,2.2021484375
,49.4036648,2.1728515625
,49.4043169,2.1435546875
,49.4343418,2.109375
,49.4350701,2.080078125
,49.4717841,2.0458984375
,49.4771088,2.001953125
,49.4966153,1.9580078125
,49.5357156,1.9140625
,49.5364093,1.865234375
,49.5581005,1.81640625
,49.5748858,1.77734375
,49.6120434,1.748046875
,49.6160908,1.71875
,49.6364175,1.6845703125
,49.6698342,1.6552734375
,49.6910308,1.62109375
,49.6953079,1.591796875
,49.731116,1.552734375
,49.7527664,1.5185546875
,49.7563225,1.474609375
,49.7755478,1.4453125
,49.8127863,1.4013671875
,49.8150076,1.3720703125
,49.8499679,1.3427734375
,49.8710952,1.34765625
,49.8781087,1.4013671875
,49.9127017,1.5234375
,49.9183326,1.66015625
,49.955215,1.77734375
,49.9559057,1.884765625
,49.9925049,1.9921875
,49.995064,2.0654296875
,50.0319009,2.1142578125
,50.0381186,2.1630859375
,50.0756787,2.1875
,50.0762234,2.20703125
,50.1112032,2.2021484375
,50.1322654,2.1826171875
,50.1371375,2.1484375
,50.1571643,2.1142578125
,50.1935764,2.08984375
,50.1970768,2.0703125
,50.2432746,2.0458984375
,50.2437619,2.021484375
,50.2644642,1.9921875
,50.2787778,1.9580078125
,50.3138294,1.923828125
,50.334463,1.875
,50.3379136,1.8359375
,50.3572183,1.796875
,50.3776276,1.7578125
,50.4121024,1.708984375
,50.4320995,1.669921875
,50.4402615,1.630859375
,50.4596654,1.5966796875
,50.4769938,1.5576171875
,50.5109206,1.5380859375
,50.5166455,1.50390625
,50.5550813,1.4697265625
,50.5585394,1.4404296875
,50.577738,1.40625
,50.6126993,1.3671875
,50.6332975,1.3427734375
,50.6383014,1.3134765625
,50.6751956,1.2841796875
,50.6813112,1.298828125
,50.697575,1.3623046875
,50.7167565,1.484375
,50.7528102,1.611328125
,50.7735142,1.73828125
,50.7801837,1.826171875
,50.8007685,1.8896484375
,50.8365682,1.93359375
,50.8399794,1.9677734375
,50.8566455,1.9873046875
,50.9044935,2.01171875
,50.9049687,2.0166015625
,50.9176943,1.9921875
,50.9544796,1.97265625
,50.9576068,1.9384765625
,50.9946812,1.9189453125
,51.0004064,1.8994140625
,51.0367085,1.884765625
,51.0373572,1.8603515625
,51.0722581,1.8408203125
,51.0927854,1.8115234375
,51.0984567,1.787109375
,51.1332506,1.7529296875
,51.1386915,1.7236328125
,51.1602182,1.689453125
,51.1964515,1.6552734375
,51.1969949,1.6162109375
,51.2322215,1.591796875
,51.2598042,1.5576171875
,51.2603878,1.5380859375
,51.2948315,1.513671875
,51.2977934,1.4794921875
,51.3350192,1.455078125
,51.3408371,1.42578125
,51.3773541,1.4013671875
,51.3793569,1.3720703125
,51.4167251,1.34765625
,51.4171624,1.318359375
,51.438542,1.3134765625
,51.4727594,1.337890625
,51.4954097,1.416015625
,51.4986786,1.5234375
,51.5421138,1.6552734375
,51.5425419,1.7626953125
,51.5631969,1.85546875
,51.5829058,1.9287109375
,51.5987837,1.9775390625
,51.6366782,2.021484375
,51.637352,2.060546875
,51.6842182,2.08984375
,51.6848744,2.099609375
,51.7052151,2.099609375
,51.7203289,2.0751953125
,51.7563279,2.0556640625
,51.7567735,2.0263671875
,51.7778167,2.0166015625
,51.8147191,2.001953125
,51.8194657,1.9873046875
,51.8566991,1.9677734375
,51.8600513,1.9384765625
,51.8985495,1.9091796875
,51.8990484,1.8798828125
,51.9467242,1.845703125
,51.9473794,1.806640625
,51.9679351,1.7724609375
,51.9806384,1.73828125
,52.0146927,1.708984375
,52.0205877,1.6748046875
,52.0401316,1.6455078125
,52.0755297,1.6162109375
,52.0812418,1.5869140625
,52.1188938,1.552734375
,52.1242671,1.5234375
,52.1401676,1.4892578125
,52.1582955,1.474609375
,52.1951999,1.4501953125
,52.2005259,1.4306640625
,52.2206154,1.42578125
,52.2595873,1.455078125
,52.260252,1.5380859375
,52.3070308,1.6455078125
,52.3077046,1.7724609375
,52.3177117,1.8701171875
,52.3688498,1.962890625
,52.3694655,2.0263671875
,52.4003417,2.0751953125
,52.4009967,2.109375
,52.4391474,2.1435546875
,52.439806,2.1630859375
,52.477467,2.1728515625
,52.5071813,2.1533203125
,52.5077848,2.138671875
,52.5182068,2.1142578125
,52.5536221,2.099609375
,52.5744649,2.080078125
,52.5822047,2.0556640625
,52.600089,2.0361328125
,52.6346184,2.01171875
,52.6542516,1.982421875
,52.6572812,1.9482421875
,52.6955762,1.923828125
,52.700414,1.8896484375
,52.7349857,1.85546875
,52.7406689,1.8212890625
,52.7759078,1.7822265625
,52.795586,1.7431640625
,52.8010874,1.708984375
,52.8358374,1.6748046875
,52.8566634,1.6455078125
,52.8639855,1.62109375
,52.8804341,1.58203125
,52.9307192,1.5576171875
,52.931372,1.5234375
,52.9513517,1.494140625
,52.9612862,1.455078125
,52.9977334,1.4306640625
,53.0249291,1.396484375
,53.0255978,1.4013671875
,53.0406725,1.4501953125
,53.0603091,1.5771484375
,53.1051123,1.69921875
,53.1057719,1.8310546875
,53.1225189,1.923828125
,53.1577307,1.9970703125
,53.1627069,2.0458984375
,53.1825038,2.0947265625
,53.2187641,2.1240234375
,53.2194154,2.1435546875
,53.2612006,2.1533203125
,53.2618492,2.1484375
,53.2925384,2.1337890625
,53.3014838,2.109375
,53.3377345,2.0849609375
,53.3575017,2.0654296875
,53.3621537,2.05078125
,53.3805038,2.03125
,53.3993627,2.01171875
,53.4455969,1.9873046875
,53.4460414,1.9580078125
,53.4668984,1.923828125
,53.4827144,1.89453125
,53.5178259,1.8603515625
,53.5225746,1.8212890625
,53.5563157,1.787109375
,53.5772619,1.748046875
,53.5854705,1.7138671875
,53.6007228,1.6796875
,53.6346591,1.650390625
,53.6543427,1.6162109375
,53.6620208,1.5869140625
,53.6993556,1.5576171875
,53.7036362,1.5380859375
,53.7238586,1.50390625
,53.7601708,1.484375
,53.7611953,1.4599609375
,53.7799898,1.494140625
,53.8209591,1.5673828125
,53.8219251,1.689453125
,53.8564883,1.81640625
,53.8821499,1.9189453125
,53.8825845,2.001953125
,53.9305391,2.060546875
,53.9311987,2.1044921875
,53.9608535,2.1337890625
,53.9615063,2.158203125
,53.9985401,2.16796875
,54.0014824,2.1630859375
,54.0364978,2.1435546875
,54.05714,2.119140625
,54.0653409,2.0947265625
,54.1022301,2.0751953125
,54.1028256,2.060546875
,54.1210024,2.0458984375
,54.1624591,2.0361328125
,54.1629916,2.01171875
,54.2107857,1.9873046875
,54.2112222,1.953125
,54.2428815,1.923828125
,54.2433578,1.8798828125
,54.2894951,1.8408203125
,54.290156,1.796875
,54.3211954,1.7578125
,54.3218544,1.7138671875
,54.3689184,1.689453125
,54.3696116,1.650390625
,54.382796,1.62109375
,54.4022226,1.58203125
,54.4355369,1.5576171875
,54.4566123,1.5234375
,54.4659434,1.513671875
,54.5011997,1.5283203125
,54.5018439,1.591796875
,54.5385253,1.71875
,54.5601465,1.8505859375
,54.5608676,1.982421875
,54.5971786,2.08984375
,54.6170516,2.177734375
,54.624628,2.2412109375
,54.6654621,2.294921875
,54.6660003,2.333984375
,54.6957608,2.373046875
,54.7013941,2.3876953125
,54.7441045,2.3828125
,54.7447715,2.3583984375
,54.7791652,2.32421875
,54.784405,2.2998046875
,54.8202324,2.2705078125
,54.8258493,2.2509765625
,54.8433985,2.2216796875
,54.8816663,2.2021484375
,54.8822824,2.138671875
,54.9036258,2.1142578125
,54.9457202,2.0703125
,54.9463765,2.0361328125
,54.9651345,1.9873046875
,54.9999487,1.9482421875
,55.0052683,1.904296875
,55.0406653,1.8603515625
,55.0413221,1.8115234375
,55.0799918,1.7822265625
,55.0839357,1.7431640625
,55.1316534,1.708984375
,55.1323512,1.6748046875
,55.1446208,1.6455078125
,55.1667773,1.6259765625
,55.2081623,1.6162109375
,55.2088988,1.6552734375
,55.2246859,1.7431640625
,55.2712505,1.8896484375
,55.2719045,2.0361328125
,55.2846283,2.1826171875
,55.3205828,2.2998046875
,55.3478953,2.40234375
,55.348407,2.48046875
,55.365894,2.5537109375
,55.3830466,2.59765625
,55.4178552,2.6416015625
,55.4247699,2.6513671875
,55.472299,2.626953125
,55.4729846,2.5830078125
,55.4859612,2.5390625
,55.5052581,2.4951171875
,55.5489423,2.451171875
,55.5495897,2.412109375
,55.5696544,2.3681640625
,55.5882405,2.32421875
,55.6040558,2.236328125
,55.6445667,2.1875
,55.6452518,2.138671875
,55.6652867,2.0849609375
,55.686336,2.0361328125
,55.723043,1.982421875
,55.7454083,1.93359375
,55.745949,1.8896484375
,55.779489,1.8505859375
,55.800141,1.806640625
,55.805354,1.767578125
,55.8411508,1.728515625
,55.8442896,1.6845703125
,55.8800876,1.6357421875
,55.9013991,1.5966796875
,55.9044457,1.5576171875
,55.9390942,1.54296875
,55.9593019,1.5869140625
,55.964619,1.7041015625
,55.9980772,1.8603515625
,56.0185327,2.03125
,56.0274113,2.177734375
,56.0468347,2.3046875
,56.08069,2.412109375
,56.1021987,2.48046875
,56.1074655,2.5341796875
,56.1246323,2.5732421875
,56.1618007,2.6025390625
,56.1625179,2.5927734375
,56.1975689,2.5537109375
,56.2177924,2.4951171875
,56.2258603,2.431640625
,56.2472655,2.373046875
,56.2697429,2.32421875
,56.2850899,2.2705078125
,56.3075107,2.2265625
,56.3249372,2.1484375
,56.3599808,2.1142578125
,56.3798863,2.060546875
,56.3851244,2.0166015625
,56.4208855,1.962890625
,56.4421423,1.904296875
,56.4468901,1.8505859375
,56.4882611,1.796875
,56.4887305,1.7431640625
,56.5182697,1.6943359375
,56.5239347,1.6552734375
,56.5600855,1.6064453125
,56.58033,1.5576171875
,56.5856445,1.5087890625
,56.6271072,1.4599609375
,56.6275992,1.4208984375
,56.6479403,1.42578125
,56.6633085,1.4892578125
,56.6999576,1.6259765625
,56.7347445,1.796875
,56.7352654,1.9482421875
,56.7444931,2.0849609375
,56.7788085,2.1826171875
,56.800205,2.2607421875
,56.8059308,2.3095703125
,56.8399084,2.34375
,56.8608655,2.34375
,56.8660506,2.3291015625
,56.9017463,2.28515625
,56.9070331,2.2412109375
,56.9419405,2.1923828125
,56.9468663,2.1533203125
,56.980927,2.109375
,57.0015734,2.0703125
,57.0094272,2.0263671875
,57.0300229,1.962890625
,57.0642563,1.8994140625
,57.064832,1.8505859375
,57.1004882,1.806640625
,57.1217681,1.7578125
,57.126721,1.708984375
,57.1635683,1.6552734375
,57.1682027,1.6015625
,57.2058058,1.552734375
,57.2087954,1.4990234375
,57.2250962,1.455078125
,57.2618736,1.416015625
,57.2658877,1.376953125
,57.3008937,1.3427734375
,57.3216372,1.318359375
,57.3278184,1.34765625
,57.3483486,1.4453125
,57.3852577,1.5966796875
,57.3885637,1.787109375
,57.405566,1.9580078125
,57.4412757,2.119140625
,57.4460795,2.236328125
,57.4974378,2.3291015625
,57.497874,2.392578125
,57.5276538,2.4365234375
,57.5282995,2.4560546875
,57.5656316,2.4462890625
,57.566284,2.4072265625
,57.6060254,2.3583984375
,57.6065881,2.3046875
,57.6421191,2.255859375
,57.6471566,2.2119140625
,57.6680036,2.177734375
,57.704737,2.1337890625
,57.7077051,2.0849609375
,57.7429512,2.03125
,57.764752,1.97265625
,57.7699278,1.8896484375
,57.7849102,1.81640625
,57.8221857,1.787109375
,57.8280684,1.73828125
,57.8638931,1.6845703125
,57.8699734,1.640625
,57.9048069,1.5869140625
,57.9100579,1.54296875
,57.9482803,1.4990234375
,57.948815,1.4453125
,57.9680744,1.40625
,57.9890153,1.396484375
,58.0237215,1.4453125
,58.0288403,1.58203125
,58.0614215,1.7529296875
,58.0829873,1.9580078125
,58.091581,2.1337890625
,58.1104986,2.294921875
,58.1280769,2.412109375
,58.147198,2.51953125
,58.1860756,2.5927734375
,58.1866533,2.65625
,58.2230479,2.67578125
,58.2284322,2.6708984375
,58.2753783,2.6220703125
,58.2759269,2.5537109375
,58.2881476,2.4755859375
,58.306383,2.40234375
,58.3430112,2.3388671875
,58.3477895,2.2705078125
,58.368809,2.2021484375
,58.4068423,2.138671875
,58.4075074,2.0703125
,58.4421054,2.001953125
,58.4621515,1.93359375
,58.4694423,1.8603515625
,58.5090344,1.767578125
,58.5095064,1.708984375
,58.5305072,1.6552734375
,58.5466684,1.6015625
,58.5805096,1.54296875
,58.6017586,1.484375
,58.609086,1.4306640625
,58.6444592,1.3916015625
,58.6651259,1.357421875
,58.6709746,1.376953125
,58.688774,1.46484375
,58.7279185,1.6455078125
,58.7285125,1.8505859375
,58.7644004,2.0751953125
,58.7684096,2.2607421875
,58.8206597,2.4169921875
,58.8213663,2.529296875
,58.8310103,2.6318359375
,58.8476749,2.6953125
,58.8832819,2.7392578125
,58.8883853,2.744140625
,58.9254711,2.705078125
,58.9286452,2.6318359375
,58.9641286,2.5439453125
,58.9937042,2.451171875
,58.9942502,2.3681640625
,59.011257,2.2900390625
,59.0282663,2.2216796875
,59.0642278,2.158203125
,59.067325,2.099609375
,59.1031734,2.0361328125
,59.1235446,1.9677734375
,59.1298037,1.89453125
,59.1646829,1.8212890625
,59.1956359,1.748046875
,59.1963084,1.6748046875
,59.2118394,1.6064453125
,59.2298528,1.54296875
,59.2655409,1.484375
,59.2686294,1.4306640625
,59.3048541,1.3916015625
,59.3097494,1.40625
,59.3472299,1.494140625
,59.3501292,1.6650390625
,59.3730167,1.8603515625
,59.4074569,2.0703125
,59.4079506,2.236328125
,59.4441916,2.3876953125
,59.4492037,2.490234375
,59.4841817,2.578125
,59.5054149,2.626953125
,59.5086789,2.6513671875
,59.5460172,2.63671875
,59.5660404,2.587890625
,59.5664689,2.5048828125
,59.6135958,2.421875
,59.6142554,2.34375
,59.6447383,2.275390625
,59.6498075,2.20703125
,59.6712284,2.1533203125
,59.7081707,2.0849609375
,59.7134185,2.0166015625
,59.7334554,1.9482421875
,59.7479312,1.875
,59.7829336,1.806640625
,59.803601,1.7333984375
,59.8105493,1.66015625
,59.8469915,1.591796875
,59.8502935,1.5380859375
,59.887792,1.4794921875
,59.8906513,1.416015625
,59.9265896,1.3671875
,59.9610856,1.3232421875
,59.9615356,1.3330078125
,59.9704712,1.416015625
,59.9911027,1.6064453125
,60.0103089,1.8017578125
,60.0518613,2.021484375
,60.0523643,2.197265625
,60.0727452,2.34375
,60.108542,2.4462890625
,60.1140461,2.5341796875
,60.1284386,2.5830078125
,60.1652227,2.626953125
,60.1702731,2.6171875
,60.2055931,2.5732421875
,60.2112705,2.490234375
,60.2471977,2.4072265625
,60.253372,2.3193359375
,60.2731962,2.24609375
,60.3097055,2.1728515625
,60.3101518,2.119140625
,60.3442585,2.0654296875
,60.3659045,2.001953125
,60.3705706,1.93359375
,60.4090913,1.865234375
,60.4122853,1.7919921875
,60.4480299,1.71875
,60.4686471,1.6455078125
,60.4693646,1.572265625
,60.5058406,1.5185546875
,60.5100309,1.4599609375
,60.5475709,1.40625
,60.5505874,1.34765625
,60.5869846,1.2890625
,60.608324,1.2353515625
,60.6113562,1.19140625
,60.6470369,1.162109375
,60.66688,1.1572265625
,60.671854,1.240234375
,60.6905943,1.396484375
,60.7277939,1.6357421875
,60.7308245,1.8603515625
,60.7725747,2.0751953125
,60.7732284,2.2314453125
,60.7942,2.353515625
,60.8127695,2.431640625
,60.8493899,2.490234375
,60.8505213,2.5244140625
,60.8979465,2.5390625
,60.8986417,2.5
,60.9133924,2.431640625
,60.9491486,2.353515625
,60.9528985,2.2802734375
,60.9875657,2.20703125
,61.0089062,2.1484375
,61.0143555,2.0947265625
,61.029352,2.0361328125
,61.064618,1.982421875
,61.085737,1.9189453125
,61.0915931,1.845703125
,61.1268064,1.7724609375
,61.1327021,1.7041015625
,61.1776477,1.6259765625
,61.1782923,1.5478515625
,61.1935574,1.4697265625
,61.2287232,1.3916015625
,61.2293911,1.3330078125
,61.2741208,1.2841796875
,61.2746495,1.2451171875
,61.3048636,1.201171875
,61.3127338,1.162109375
,61.3508121,1.123046875
,61.3712729,1.083984375
,61.3743405,1.0400390625
,61.4138254,1.005859375
,61.4142707,0.9619140625
,61.444267,0.9326171875
,61.4535918,0.95703125
,61.473944,1.0791015625
,61.5208954,1.2939453125
,61.5213647,1.5576171875
,61.5341631,1.806640625
,61.568493,1.9921875
,61.5884923,2.138671875
,61.5926563,2.236328125
,61.6300664,2.3095703125
,61.630558,2.3486328125
,61.6651365,2.36328125
,61.6858326,2.34375
,61.6933552,2.294921875
,61.7152864,2.236328125
,61.7365679,2.1826171875
,61.7506748,2.138671875
,61.7865089,2.109375
,61.816151,2.0751953125
,61.816663,2.041015625
,61.8341641,2.0068359375
,61.855479,1.9482421875
,61.8735076,1.8896484375
,61.9098297,1.8310546875
,61.9152971,1.767578125
,61.9322275,1.708984375
,61.9657751,1.650390625
,61.9882699,1.591796875
,61.9928085,1.5283203125
,62.0283204,1.4697265625
,62.03500029999999,1.4208984375
,62.0707053,1.3720703125
,62.0734894,1.328125
,62.109082799999996,1.2841796875
,62.1303791,1.240234375
,62.133131399999996,1.1962890625
,62.1520611,1.171875
,62.1889314,1.1328125
,62.1946404,1.083984375
,62.2139947,1.044921875
,62.251755599999996,1.025390625
,62.2548625,1.09375
,62.29123130000001,1.2646484375
,62.2961217,1.513671875
,62.313506000000004,1.7578125
,62.347812700000006,1.9873046875
,62.3534822,2.1533203125
,62.3734498,2.28515625
,62.410579,2.3681640625
,62.4163511,2.4365234375
,62.4517809,2.4658203125
,62.4546869,2.4658203125
,62.4901407,2.44140625
,62.510881499999996,2.3876953125
,62.5115462,2.3291015625
,62.5508578,2.2802734375
,62.5537638,2.236328125
,62.590991599999995,2.197265625
,62.594026400000004,2.158203125
,62.6322146,2.119140625
,62.636763599999995,2.0703125
,62.6508795,2.0166015625
,62.6885705,1.9677734375
,62.693419899999995,1.904296875
,62.714829800000004,1.8408203125
,62.7485552,1.7724609375
,62.7701751,1.69921875
,62.775023700000006,1.6259765625
,62.811940500000006,1.5625
,62.815016400000005,1.50390625
,62.863532199999995,1.4501953125
,62.864285100000004,1.4013671875
,62.8858154,1.3525390625
,62.8959828,1.318359375
,62.931432799999996,1.279296875
,62.9343906,1.2451171875
,62.9726687,1.201171875
,62.976354900000004,1.1572265625
,62.9966637,1.11328125
,63.033156700000006,1.0888671875
,63.0338077,1.1279296875
,63.0681266,1.30859375
,63.0900424,1.54296875
,63.096012099999996,1.8115234375
,63.115661599999996,2.0556640625
,63.151416299999994,2.2412109375
,63.1570246,2.3876953125
,63.1930806,2.4951171875
,63.195444499999994,2.578125
,63.212971800000005,2.6318359375
,63.248151899999996,2.6708984375
,63.2529399,2.6708984375
,63.2893311,2.6318359375
,63.3095105,2.568359375
,63.315569499999995,2.4951171875
,63.354006299999995,2.421875
,63.354669599999994,2.36328125
,63.3905554,2.3095703125
,63.3937104,2.2607421875
,63.443011799999994,2.2021484375
,63.443663799999996,2.1533203125
,63.453923,2.099609375
,63.4882599,2.0361328125
,63.5084839,1.962890625
,63.517764,1.8896484375
,63.538149000000004,1.8115234375
,63.5582816,1.73828125
,63.5948147,1.6650390625
,63.595475699999994,1.5966796875
,63.6315987,1.5380859375
,63.6364148,1.4794921875
,63.655222300000005,1.42578125
,63.6919353,1.3818359375
,63.6965385,1.337890625
,63.7413219,1.2939453125
,63.7417746,1.2451171875
,63.758207799999994,1.1962890625
,63.7756648,1.142578125
,63.810176299999995,1.09375
,63.8177508,1.0546875
,63.8361134,1.0986328125
,63.8733859,1.259765625
,63.8783057,1.5283203125
,63.8965573,1.7919921875
,63.932270200000005,2.05078125
,63.9520577,2.2412109375
,63.9568862,2.412109375
,63.975236499999994,2.51953125
,64.0103843,2.6123046875
,64.0313299,2.666015625
,64.0367098,2.7001953125
,64.0736528,2.6904296875
,64.0768849,2.65625
,64.0974622,2.5927734375
,64.1140794,2.5244140625
,64.1611225,2.451171875
,64.1617824,2.36328125
,64.1913901,2.3193359375
,64.1963201,2.2705078125
,64.2168998,2.2216796875
,64.2373928,2.158203125
,64.2728763,2.099609375
,64.2780364,2.03125
,64.3133615,1.953125
,64.3164737,1.875
,64.3654203,1.806640625
,64.3658809,1.7333984375
,64.3779026,1.6552734375
,64.428401,1.5869140625
,64.4291035,1.513671875
,64.439799,1.4404296875
,64.4581844,1.3818359375
,64.5066874,1.3330078125
,64.5071328,1.279296875
,64.5155982,1.23046875
,64.5529222,1.171875
,64.574144,1.1181640625
,64.5776121,1.0595703125
,64.6136971,0.99609375
,64.6186386,0.9228515625
,64.6637865,0.859375
,64.664445,0.859375
,64.6945944,1.0107421875
,64.6952549,1.2841796875
,64.7317494,1.62109375
,64.7371432,1.9091796875
,64.7596952,2.1240234375
,64.801787,2.294921875
,64.8023382,2.40234375
,64.8190635,2.4755859375
,64.8392768,2.5146484375
,64.8595507,2.51953125
,64.8772383,2.5048828125
,64.8970466,2.48046875
,64.9342064,2.4267578125
,64.9373386,2.36328125
,64.9890386,2.3046875
,64.989663,2.2607421875
,65.000966,2.2216796875
,65.0215911,2.1826171875
,65.0688019,2.1533203125
,65.0694712,2.1044921875
,65.0775498,2.060546875
,65.1154351,2.001953125
,65.1159783,1.93359375
,65.1510317,1.8505859375
,65.1719298,1.77734375
,65.1792825,1.69921875
,65.2011741,1.6259765625
,65.2178833,1.552734375
,65.2548697,1.494140625
,65.2582823,1.435546875
,65.2933397,1.3916015625
,65.2984656,1.3427734375
,65.334093,1.3037109375
,65.3553299,1.259765625
,65.360242,1.220703125
,65.3959029,1.171875
,65.396359,1.123046875
,65.4458536,1.07421875
,65.446481,1.0498046875
,65.4766512,1.0986328125
,65.4771139,1.26953125
,65.5220572,1.552734375
,65.5226854,1.826171875
,65.5418611,2.0849609375
,65.5612742,2.275390625
,65.5807612,2.3974609375
,65.5973388,2.470703125
,65.6342749,2.5537109375
,65.6641908,2.59765625
,65.6648512,2.607421875
,65.6794936,2.587890625
,65.7241793,2.5244140625
,65.7248975,2.451171875
,65.7407261,2.3876953125
,65.7759525,2.3388671875
,65.7766527,2.28515625
,65.8168657,2.2509765625
,65.8173698,2.20703125
,65.8382458,2.1630859375
,65.8799409,2.1142578125
,65.880778,2.0556640625
,65.9006217,1.982421875
,65.938021,1.904296875
,65.9386956,1.826171875
,65.9579619,1.7529296875
,66.0056713,1.6796875
,66.0061189,1.6259765625
,66.0363905,1.5673828125
,66.039477,1.5087890625
,66.0830905,1.455078125
,66.0837233,1.40625
,66.1175598,1.357421875
,66.1180497,1.30859375
,66.1617271,1.2646484375
,66.1623976,1.2158203125
,66.1786311,1.171875
,66.2248187,1.1474609375
,66.2255091,1.2158203125
,66.2396487,1.40625
,66.2748043,1.69921875
,66.2954863,1.9775390625
,66.3005482,2.216796875
,66.3397499,2.4169921875
,66.3403631,2.5830078125
,66.3577902,2.7197265625
,66.3952736,2.802734375
,66.4156388,2.8662109375
,66.418791,2.8857421875
,66.4530234,2.8759765625
,66.476467,2.8271484375
,66.4833491,2.75390625
,66.4967242,2.666015625
,66.5350533,2.59765625
,66.5376879,2.5341796875
,66.5748091,2.4755859375
,66.5953398,2.412109375
,66.6009043,2.34375
,66.6226868,2.2705078125
,66.6595913,2.197265625
,66.6615228,2.1240234375
,66.6784548,2.041015625
,66.7001692,1.9580078125
,66.7349006,1.884765625
,66.7381337,1.8017578125
,66.7861484,1.728515625
,66.7865851,1.66015625
,66.8163289,1.591796875
,66.8215005,1.5283203125
,66.8379276,1.46484375
,66.8742605,1.4111328125
,66.8796107,1.3525390625
,66.9260235,1.298828125
,66.926898,1.240234375
,66.9555202,1.19140625
,66.9609921,1.171875
,67.0025012,1.2451171875
,67.0032194,1.455078125
,67.0254125,1.71875
,67.0422427,1.9775390625
,67.0588768,2.216796875
,67.0961997,2.4267578125
,67.101107,2.5732421875
,67.138698,2.685546875
,67.1393623,2.7490234375
,67.1627993,2.79296875
,67.2083343,2.7978515625
,67.2090194,2.7734375
,67.2175229,2.705078125
,67.2506545,2.626953125
,67.2727805,2.5439453125
,67.2817106,2.470703125
,67.3162949,2.4072265625
,67.3212252,2.34375
,67.366196,2.28515625
,67.3668489,2.216796875
,67.3981019,2.1533203125
,67.3986781,2.080078125
,67.4343417,2.01171875
,67.4597929,1.93359375
,67.4604652,1.8505859375
,67.496398,1.7626953125
,67.5018286,1.6748046875
,67.5531219,1.591796875
,67.5536694,1.5185546875
,67.5593962,1.4501953125
,67.5949655,1.3916015625
,67.6019148,1.328125
,67.6199101,1.2646484375
,67.6657259,1.201171875
,67.6661697,1.1376953125
,67.6969583,1.07421875
,67.7034248,1.0009765625
,67.7395844,0.9228515625
,67.7428099,0.869140625
,67.7797451,0.908203125
,67.7805383,1.0888671875
,67.8216765,1.416015625
,67.8221972,1.728515625
,67.8418764,2.01171875
,67.8769686,2.2119140625
,67.8829838,2.373046875
,67.9182992,2.470703125
,67.9234979,2.5439453125
,67.9614014,2.578125
,67.9623751,2.578125
,67.9805069,2.5634765625
,68.023497,2.5048828125
,68.0239279,2.4267578125
,68.0443405,2.34375
,68.0623431,2.2802734375
,68.1033597,2.2216796875
,68.1339997,2.16796875
,68.1346348,2.119140625
,68.1404562,2.0751953125
,68.1775846,2.021484375
,68.1803158,1.962890625
,68.2283981,1.8896484375
,68.228933,1.8115234375
,68.2497994,1.728515625
,68.2652536,1.6455078125
,68.2854683,1.552734375
,68.3015917,1.474609375
,68.3530629,1.40625
,68.3537414,1.3427734375
,68.361493,1.279296875
,68.3993292,1.2158203125
,68.4020707,1.1572265625
,68.4454965,1.103515625
,68.4462055,1.0546875
,68.4655649,1.0009765625
,68.4843831,0.9423828125
,68.5016943,0.9130859375
,68.5369174,0.9814453125
,68.5420721,1.181640625
,68.5762266,1.5087890625
,68.5847855,1.8359375
,68.6049169,2.080078125
,68.6225662,2.275390625
,68.6605085,2.40234375
,68.6657727,2.490234375
,68.6825703,2.5341796875
,68.701714,2.5634765625
,68.7425652,2.548828125
,68.7432937,2.509765625
,68.7636275,2.4365234375
,68.7979098,2.3583984375
,68.8056375,2.28515625
,68.8241964,2.2265625
,68.8414298,2.177734375
,68.8781718,2.1484375
,68.8807119,2.109375
,68.9177501,2.060546875
,68.9228165,2.0068359375
,68.9590771,1.9384765625
,68.9642049,1.8701171875
,68.9839669,1.787109375
,69.0198638,1.7041015625
,69.0203182,1.62109375
,69.0554399,1.5576171875
,69.08287,1.4892578125
,69.0834759,1.42578125
,69.1186347,1.357421875
,69.1472048,1.2939453125
,69.1477884,1.23046875
,69.1638645,1.1767578125
,69.2099363,1.1181640625
,69.2105882,1.0791015625
,69.2406837,1.0986328125
,69.2411471,1.2255859375
,69.2771362,1.5087890625
,69.2985358,1.8115234375
,69.3028978,2.099609375
,69.3394245,2.32421875
,69.366797,2.5048828125
,69.3674594,2.6318359375
,69.3846557,2.724609375
,69.4020312,2.7685546875
,69.4231893,2.802734375
,69.4578076,2.7978515625
,69.4635188,2.75390625
,69.4847041,2.6806640625
,69.5188772,2.5927734375
,69.5398096,2.5146484375
,69.5457158,2.44140625
,69.5816896,2.3828125
,69.5822788,2.3291015625
,69.6182443,2.275390625
,69.6462051,2.2119140625
,69.6468626,2.1484375
,69.6659701,2.0849609375
,69.6847343,2.01171875
,69.7202965,1.93359375
,69.7417622,1.8603515625
,69.7424442,1.7822265625
,69.779972,1.71875
,69.7831984,1.650390625
,69.8183542,1.5869140625
,69.8240674,1.5185546875
,69.8599023,1.46484375
,69.8657966,1.4013671875
,69.9005631,1.337890625
,69.905793,1.2841796875
,69.9545655,1.240234375
,69.9549954,1.259765625
,69.9761775,1.3916015625
,69.9856051,1.6552734375
,70.0045578,1.93359375
,70.0414258,2.20703125
,70.0461106,2.4267578125
,70.0644881,2.6171875
,70.1113087,2.75390625
,70.1119272,2.8662109375
,70.1236293,2.9345703125
,70.1586361,2.9833984375
,70.1642995,2.9833984375
,70.2005571,2.9345703125
,70.2053066,2.8564453125
,70.2417972,2.763671875
,70.2449311,2.67578125
,70.2816228,2.5927734375
,70.2865807,2.5146484375
,70.3032458,2.4462890625
,70.3390261,2.3828125
,70.3440928,2.3046875
,70.3803505,2.2314453125
,70.3852017,2.1484375
,70.4212258,2.0703125
,70.4256775,1.982421875
,70.4699628,1.8994140625
,70.4705601,1.806640625
,70.484419,1.73828125
,70.5030992,1.6650390625
,70.5382529,1.591796875
,70.5591467,1.5283203125
,70.564085,1.46484375
,70.6011469,1.396484375
,70.6212705,1.337890625
,70.6286077,1.279296875
,70.6476079,1.2255859375
,70.684437,1.1865234375
,70.6850911,1.2158203125
,70.7218409,1.3671875
,70.7252408,1.6064453125
,70.768279,1.8896484375
,70.768938,2.138671875
,70.7849345,2.3583984375
,70.8218552,2.5341796875
,70.8268955,2.65625
,70.8641964,2.7587890625
,70.8648473,2.802734375
,70.8982356,2.841796875
,70.9192588,2.822265625
,70.9254708,2.7685546875
,70.9463475,2.685546875
,70.9851116,2.587890625
,70.9861703,2.4951171875
,71.0231862,2.412109375
,71.0238696,2.3388671875
,71.0635053,2.2802734375
,71.0936263,2.2119140625
,71.0942974,2.1484375
,71.1048733,2.0751953125
,71.1397375,2.0068359375
,71.1605493,1.923828125
,71.1676668,1.8408203125
,71.2031084,1.748046875
,71.2037904,1.66015625
,71.2397266,1.591796875
,71.2453688,1.5185546875
,71.2807824,1.4404296875
,71.2863657,1.3720703125
,71.3067759,1.298828125
,71.3418503,1.23046875
,71.347361,1.162109375
,71.3917453,1.0986328125
,71.3922222,1.03515625
,71.4223745,0.9716796875
,71.4247229,0.9423828125
,71.4696856,1.005859375
,71.470132,1.19140625
,71.4873972,1.484375
,71.5214256,1.7626953125
,71.5426927,2.03125
,71.548633,2.2216796875
,71.5838568,2.3681640625
,71.5843067,2.4560546875
,71.619248,2.529296875
,71.6423178,2.5634765625
,71.645383,2.5732421875
,71.686348,2.5390625
,71.686795,2.470703125
,71.7077782,2.392578125
,71.748659,2.314453125
,71.749422,2.2412109375
,71.7656799,2.1875
,71.803804,2.1435546875
,71.8044737,2.0947265625
,71.8417467,2.041015625
,71.8622473,1.9873046875
,71.8696373,1.9189453125
,71.8897206,1.845703125
,71.9252611,1.7724609375
,71.9260604,1.69921875
,71.9606852,1.630859375
,71.9656719,1.5673828125
,72.0031594,1.494140625
,72.0077636,1.4306640625
,72.0435789,1.3671875
,72.0486281,1.2939453125
,72.0872511,1.2353515625
,72.0879851,1.181640625
,72.1090796,1.1181640625
,72.1454681,1.064453125
,72.1463366,1.0205078125
,72.1841777,1.044921875
,72.1894446,1.1669921875
,72.2081063,1.4111328125
,72.2453668,1.6845703125
,72.2477005,1.9580078125
,72.2850742,2.1630859375
,72.3074853,2.333984375
,72.307946,2.44140625
,72.3263521,2.5244140625
,72.3619382,2.568359375
,72.3821623,2.578125
,72.3877651,2.548828125
,72.4348917,2.4951171875
,72.4353493,2.412109375
,72.4501111,2.333984375
,72.470535,2.2607421875
,72.484593,2.197265625
,72.5182524,2.1533203125
,72.5401219,2.1142578125
,72.5476017,2.0654296875
,72.5889201,2.01171875
,72.5894196,1.953125
,72.6271373,1.884765625
,72.6277967,1.8115234375
,72.6468566,1.728515625
,72.6676768,1.6650390625
,72.7034366,1.5966796875
,72.7064337,1.533203125
,72.7417184,1.474609375
,72.7620991,1.4111328125
,72.7701811,1.34765625
,72.8043941,1.2939453125
,72.8092575,1.2451171875
,72.8466369,1.1865234375
,72.8522212,1.142578125
,72.8670259,1.11328125
,72.9029011,1.171875
,72.9079625,1.3427734375
,72.9507064,1.62109375
,72.9511778,1.8896484375
,72.9807972,2.1533203125
,72.9898803,2.353515625
,73.0278209,2.51953125
,73.0288871,2.63671875
,73.0480841,2.744140625
,73.067445,2.8076171875
,73.1063037,2.8271484375
,73.1092108,2.8173828125
,73.1447291,2.763671875
,73.1497807,2.685546875
,73.1844263,2.6025390625
,73.2055636,2.5244140625
,73.206219,2.451171875
,73.2434757,2.3876953125
,73.2649488,2.32421875
,73.2700736,2.255859375
,73.2888898,2.1826171875
,73.3373556,2.1142578125
,73.3378293,2.041015625
,73.350174,1.962890625
,73.3885446,1.884765625
,73.3892103,1.806640625
,73.4119265,1.73828125
,73.4302894,1.650390625
,73.449964,1.5966796875
,73.4704892,1.54296875
,73.5076507,1.484375
,73.508386,1.4208984375
,73.5425569,1.3671875
,73.5632251,1.30859375
,73.5716138,1.2548828125
,73.5879657,1.2158203125
,73.6223764,1.23046875
,73.6283466,1.34765625
,73.6506982,1.5673828125
,73.6701381,1.81640625
,73.713529,2.0751953125
,73.713979,2.2998046875
,73.7305713,2.4609375
,73.7749407,2.59765625
,73.7755079,2.6953125
,73.7891069,2.7734375
,73.8236951,2.802734375
,73.8439286,2.8076171875
,73.8497962,2.7587890625
,73.8873464,2.6806640625
,73.8912464,2.587890625
,73.9263437,2.5
,73.9270969,2.4169921875
,73.9634465,2.353515625
,73.9832683,2.28515625
,73.9890872,2.216796875
,74.0249878,2.1435546875
,74.0312192,2.0751953125
,74.0503535,1.9970703125
,74.1017654,1.9140625
,74.1024262,1.8310546875
,74.1221206,1.7431640625
,74.1321254,1.640625
,74.1494773,1.552734375
,74.169383,1.494140625
,74.2091081,1.4453125
,74.2095679,1.396484375
,74.2303865,1.3427734375
,74.267695,1.2841796875
,74.2710388,1.220703125
,74.3190178,1.162109375
,74.3194495,1.1083984375
,74.3400197,1.083984375
,74.3500232,1.1083984375
,74.370434,1.2353515625
,74.4158854,1.474609375
,74.4165576,1.728515625
,74.4324203,1.97265625
,74.4520779,2.1630859375
,74.4880569,2.3193359375
,74.5083149,2.421875
,74.5088887,2.5048828125
,74.5438683,2.5537109375
,74.5646943,2.568359375
,74.5731748,2.5439453125
,74.6193053,2.490234375
,74.6199753,2.412109375
,74.6334533,2.333984375
,74.6674823,2.265625
,74.6679275,2.2021484375
,74.7039549,2.1630859375
,74.7242189,2.119140625
,74.7290165,2.080078125
,74.7506066,2.03125
,74.7857372,1.97265625
,74.8083558,1.8994140625
,74.81146,1.826171875
,74.8326053,1.7529296875
,74.8543403,1.6650390625
,74.8714507,1.58203125
,74.8898123,1.5380859375
,74.9236265,1.484375
,74.9455732,1.435546875
,74.9522299,1.38671875
,74.9888608,1.34765625
,74.9919163,1.298828125
,75.0420162,1.2451171875
,75.042808,1.19140625
,75.0737631,1.1376953125
,75.0744226,1.11328125
,75.0910152,1.1376953125
,75.1275176,1.2890625
,75.1481419,1.513671875
,75.1528774,1.7822265625
,75.1722336,2.0166015625
,75.2074909,2.2216796875
,75.228348,2.3681640625
,75.2287939,2.5
,75.2668611,2.5830078125
,75.2698539,2.646484375
,75.3065295,2.67578125
,75.3378294,2.65625
,75.3384428,2.6025390625
,75.3537002,2.529296875
,75.3875404,2.4462890625
,75.3914867,2.3681640625
,75.4280439,2.314453125
,75.4287189,2.255859375
,75.4656339,2.2021484375
,75.4947625,2.1533203125
,75.4952125,2.099609375
,75.541246,2.03125
,75.5420455,1.962890625
,75.5539881,1.884765625
,75.5760237,1.787109375
,75.590965,1.69921875
,75.6276704,1.650390625
,75.6306902,1.5966796875
,75.6676566,1.5380859375
,75.6716058,1.4892578125
,75.7116885,1.435546875
,75.7122624,1.376953125
,75.7461358,1.328125
,75.7676106,1.2744140625
,75.7682716,1.220703125
,75.805401,1.1767578125
,75.8353493,1.142578125
,75.8359988,1.1474609375
,75.8839522,1.2548828125
,75.8844003,1.474609375
,75.8948623,1.7333984375
,75.930854,2.0068359375
,75.9343311,2.2509765625
,75.9524308,2.431640625
,75.9719337,2.6025390625
,75.9924317,2.7197265625
,76.0273971,2.8173828125
,76.0573221,2.8662109375
,76.0581701,2.8857421875
,76.0739743,2.861328125
,76.108895,2.802734375
,76.1297213,2.7099609375
,76.1302128,2.6220703125
,76.1661211,2.5390625
,76.186972,2.4658203125
,76.1923604,2.392578125
,76.2289986,2.3291015625
,76.2357971,2.2607421875
,76.2530571,2.197265625
,76.2926251,2.12890625
,76.3231947,2.060546875
,76.3238621,1.9873046875
,76.3336794,1.9140625
,76.3538249,1.8310546875
,76.3747702,1.7578125
,76.4178315,1.6845703125
,76.4184849,1.62109375
,76.4352455,1.552734375
,76.4810339,1.494140625
,76.4817059,1.4404296875
,76.493137,1.38671875
,76.5128065,1.3427734375
,76.5468199,1.2939453125
,76.5674194,1.240234375
,76.5751827,1.1962890625
,76.611135,1.1376953125
,76.6136905,1.0986328125
,76.6485573,1.0888671875
,76.6697715,1.2060546875
,76.6704578,1.416015625
,76.7055121,1.708984375
,76.727137,1.9775390625
,76.7344049,2.2314453125
,76.7803843,2.4169921875
,76.7810751,2.578125
,76.7931137,2.6953125
,76.8425382,2.783203125
,76.8431881,2.83203125
,76.8623767,2.8662109375
,76.8748914,2.8466796875
,76.9100296,2.783203125
,76.9157597,2.6953125
,76.9345822,2.6025390625
,76.9685293,2.5146484375
,76.9895197,2.44140625
,76.9950075,2.3681640625
,77.0414988,2.2998046875
,77.0419476,2.2265625
,77.0526687,2.1484375
,77.0908195,2.0751953125
,77.0958455,1.9970703125
,77.1131254,1.9091796875
,77.1488618,1.81640625
,77.1695088,1.728515625
,77.1742699,1.640625
,77.2092832,1.5478515625
,77.2298324,1.474609375
,77.2321263,1.396484375
,77.2761558,1.3427734375
,77.2765939,1.2890625
,77.2940532,1.2451171875
,77.3390977,1.19140625
,77.3397786,1.1376953125
,77.3558633,1.07421875
,77.3762718,1.0009765625
,77.3942794,0.927734375
,77.4297762,0.859375
,77.4319377,0.7958984375
,77.4795283,0.771484375
,77.4801959,0.83984375
,77.5008849,1.0595703125
,77.5159605,1.34765625
,77.551421,1.6796875
,77.5572222,1.962890625
,77.5718851,2.1728515625
,77.620341,2.3486328125
,77.6208638,2.4560546875
,77.6351968,2.5341796875
,77.6549873,2.578125
,77.6896123,2.6025390625
,77.7111543,2.578125
,77.716496,2.51953125
,77.7530828,2.44140625
,77.7560776,2.3583984375
,77.7737548,2.2900390625
,77.8084875,2.2412109375
,77.8308106,2.1923828125
,77.8357767,2.1484375
,77.8875172,2.1044921875
,77.888188,2.0458984375
,77.8965896,1.982421875
,77.9334042,1.904296875
,77.9365821,1.8212890625
,77.9527178,1.7333984375
,77.9956292,1.66015625
,77.9962881,1.5869140625
,78.0167942,1.5185546875
,78.036906,1.4453125
,78.0722275,1.38671875
,78.0754057,1.328125
,78.1111369,1.2841796875
,78.1331142,1.2353515625
,78.1337799,1.19140625
,78.1702332,1.1474609375
,78.1758228,1.0986328125
,78.2135638,1.044921875
,78.2141025,0.9814453125
,78.2529068,0.9228515625
,78.2590944,0.8837890625
,78.2939246,0.9423828125
,78.2944008,1.1376953125
,78.3149766,1.455078125
,78.3520172,1.7578125
,78.3551398,2.0458984375
,78.3889969,2.2607421875
,78.4090585,2.431640625
,78.4151989,2.5439453125
,78.4492077,2.6318359375
,78.4693698,2.67578125
,78.4766326,2.6953125
,78.5119507,2.67578125
,78.5322306,2.6123046875
,78.5350782,2.5390625
,78.5717087,2.4560546875
,78.5766661,2.3876953125
,78.6196258,2.3291015625
,78.6202964,2.2705078125
,78.6559588,2.216796875
,78.6566273,2.158203125
,78.6991284,2.099609375
,78.6997892,2.041015625
,78.7168063,1.9677734375
,78.7361899,1.884765625
,78.771419,1.806640625
,78.7941719,1.7236328125
,78.7972399,1.6455078125
,78.8333402,1.572265625
,78.8391707,1.50390625
,78.8561061,1.4404296875
,78.9027009,1.396484375
,78.9033865,1.3525390625
,78.9162485,1.30859375
,78.9643101,1.2646484375
,78.9649627,1.2158203125
,78.9945419,1.162109375
,78.9975919,1.0986328125
,79.0145331,1.0400390625
,79.0580032,0.9912109375
,79.058672,0.966796875
,79.0767254,1.044921875
,79.1197359,1.2548828125
,79.1205342,1.5625
,79.1382995,1.8798828125
,79.1824963,2.1337890625
,79.1829966,2.353515625
,79.2118629,2.5146484375
,79.2211662,2.646484375
,79.2363225,2.734375
,79.2714966,2.802734375
,79.2765183,2.8466796875
,79.2965088,2.8466796875
,79.3194707,2.79296875
,79.3390355,2.7197265625
,79.3592811,2.6318359375
,79.3975944,2.55859375
,79.3982121,2.4853515625
,79.4159911,2.4267578125
,79.4647491,2.36328125
,79.465351,2.2998046875
,79.4944337,2.2265625
,79.4968581,2.1484375
,79.5322993,2.0751953125
,79.5532379,1.9921875
,79.5603645,1.9140625
,79.5775148,1.8310546875
,79.6128846,1.7578125
,79.6158231,1.689453125
,79.6504975,1.62109375
,79.6709863,1.5576171875
,79.6794777,1.4990234375
,79.716297,1.4404296875
,79.7170241,1.396484375
,79.7361453,1.3427734375
,79.7722134,1.2890625
,79.7770182,1.2353515625
,79.8218105,1.1767578125
,79.8222816,1.1181640625
,79.8429855,1.064453125
,79.8595679,1.025390625
,79.8804056,1.0498046875
,79.8992557,1.220703125
,79.9349303,1.46484375
,79.9407054,1.7578125
,79.9551976,1.9921875
,79.9913212,2.20703125
,80.0124635,2.353515625
,80.0183458,2.4658203125
,80.055778,2.5390625
,80.0587662,2.59765625
,80.0954185,2.6220703125
,80.1007494,2.63671875
,80.1371243,2.6123046875
,80.1381757,2.55859375
,80.157759,2.5
,80.1935147,2.4462890625
,80.1963841,2.392578125
,80.2337078,2.34375
,80.2545408,2.2998046875
,80.2594799,2.24609375
,80.3040789,2.1875
,80.3045362,2.1337890625
,80.3172228,2.0751953125
,80.3545638,2.0166015625
,80.3598342,1.953125
,80.3801043,1.8896484375
,80.4159772,1.8212890625
,80.4187551,1.7578125
,80.4532101,1.69921875
,80.4736636,1.640625
,80.4745358,1.58203125
,80.5107953,1.54296875
,80.5370755,1.4990234375
,80.5375738,1.4599609375
,80.5740594,1.4111328125
,80.5796834,1.3525390625
,80.6178161,1.2939453125
,80.6184859,1.240234375
,80.6547854,1.181640625
,80.6757685,1.1279296875
,80.6789155,1.0791015625
,80.7005695,1.09375
,80.7178428,1.220703125
,80.7557048,1.474609375
,80.7586554,1.7529296875
,80.7951285,1.9873046875
,80.8009898,2.177734375
,80.8376949,2.3095703125
,80.8424823,2.40234375
,80.8578075,2.4609375
,80.8934413,2.5048828125
,80.9149477,2.529296875
,80.9177162,2.529296875
,80.9551852,2.5048828125
,80.9605831,2.451171875
,81.0077595,2.40234375
,81.0083508,2.353515625
,81.0162472,2.314453125
,81.0506799,2.28515625
,81.0719994,2.255859375
,81.0794634,2.2119140625
,81.1155845,2.16796875
,81.1188792,2.1240234375
,81.1560269,2.0751953125
,81.1625379,2.01171875
,81.2084558,1.953125
,81.2091328,1.8896484375
,81.2172388,1.8359375
,81.2519915,1.7822265625
,81.2730285,1.728515625
,81.2801107,1.6748046875
,81.3177569,1.630859375
,81.3208453,1.591796875
,81.3563638,1.5576171875
,81.3764958,1.5087890625
,81.3824431,1.474609375
,81.4204603,1.4306640625
,81.4210806,1.3818359375
,81.4589932,1.34765625
,81.4594774,1.3037109375
,81.4969037,1.2646484375
,81.5000089,1.279296875
,81.5364383,1.4013671875
,81.5413255,1.5966796875
,81.5817461,1.826171875
,81.5823957,2.0166015625
,81.6134724,2.177734375
,81.6213642,2.28515625
,81.6404372,2.3681640625
,81.6906911,2.412109375
,81.6911267,2.4365234375
,81.7014227,2.451171875
,81.7397439,2.431640625
,81.7404058,2.3974609375
,81.7582372,2.3486328125
,81.802302,2.314453125
,81.8028681,2.275390625
,81.8227443,2.24609375
,81.840937,2.2216796875
,81.8826495,2.197265625
,81.8831686,2.1630859375
,81.9197288,2.1240234375
,81.9204085,2.0751953125
,81.9548634,2.03125
,81.9601283,1.953125
,81.9952613,1.9091796875
,82.0008517,1.85546875
,82.0214224,1.8115234375
,82.0411437,1.7626953125
,82.0764354,1.7138671875
,82.0819866,1.6650390625
,82.1281912,1.630859375
,82.1286884,1.5869140625
,82.1389655,1.5478515625
,82.1770309,1.5185546875
,82.1841192,1.4794921875
,82.2036606,1.4404296875
,82.2228438,1.4013671875
,82.2423427,1.357421875
,82.2809875,1.3330078125
,82.2814671,1.376953125
,82.3156673,1.50390625
,82.3198914,1.7138671875
,82.3631643,1.9287109375
,82.3638196,2.099609375
,82.3837875,2.24609375
,82.4024615,2.34375
,82.4366253,2.431640625
,82.4567224,2.48046875
,82.4640231,2.5146484375
,82.4791985,2.5390625
,82.5192712,2.5537109375
,82.5197026,2.5341796875
,82.5398227,2.5048828125
,82.5762025,2.4560546875
,82.5815675,2.4169921875
,82.6152858,2.373046875
,82.6360573,2.333984375
,82.6413521,2.294921875
,82.6642899,2.265625
,82.6858079,2.197265625
,82.7019567,2.1337890625
,82.7228596,2.099609375
,82.7685081,2.05078125
,82.769072,2.001953125
,82.7839745,1.9482421875
,82.8207829,1.89453125
,82.8212992,1.8408203125
,82.8563812,1.787109375
,82.8770988,1.73828125
,82.8827405,1.69921875
,82.9032736,1.66015625
,82.9370519,1.6259765625
,82.9431231,1.5869140625
,82.9662464,1.54296875
,82.9853322,1.4990234375
,83.0199572,1.4501953125
,83.0238502,1.40625
,83.0420723,1.3671875
,83.0632706,1.40625
,83.0817447,1.5234375
,83.1177456,1.7138671875
,83.1236902,1.9091796875
,83.1609036,2.0947265625
,83.1638556,2.236328125
,83.2058028,2.353515625
,83.2065523,2.431640625
,83.2271265,2.4951171875
,83.2410613,2.5390625
,83.2774963,2.5732421875
,83.2828504,2.578125
,83.3183951,2.5634765625
,83.3228848,2.5244140625
,83.3587397,2.4755859375
,83.3931331,2.431640625
,83.3935908,2.392578125
,83.4060211,2.3291015625
,83.4224203,2.275390625
,83.442046,2.2607421875
,83.4756614,2.2216796875
,83.4960382,2.1728515625
,83.5039225,2.1240234375
,83.5239932,2.0703125
,83.5680287,2.0068359375
,83.5684987,1.9482421875
,83.5987672,1.8798828125
,83.6016995,1.8212890625
,83.6457074,1.767578125
,83.6461459,1.708984375
,83.678637,1.66015625
,83.682992,1.611328125
,83.7179873,1.572265625
,83.7386929,1.5185546875
,83.7440926,1.474609375
,83.7615489,1.4208984375
,83.801627,1.3720703125
,83.8020604,1.3232421875
,83.8378835,1.2744140625
,83.8586794,1.23046875
,83.8644909,1.240234375
,83.9013476,1.3427734375
,83.9071041,1.54296875
,83.921254,1.748046875
,83.9574946,1.9677734375
,83.9632365,2.138671875
,84.0045315,2.255859375
,84.0051008,2.34375
,84.0233519,2.40234375
,84.0649622,2.4365234375
,84.0655112,2.451171875
,84.1135734,2.451171875
,84.1140226,2.412109375
,84.1282752,2.34375
,84.142913,2.2802734375
,84.1641149,2.255859375
,84.1975609,2.2314453125
,84.2188141,2.20703125
,84.223817,2.1826171875
,84.2669196,2.1484375
,84.2673652,2.109375
,84.2873471,2.060546875
,84.3238732,2.0068359375
,84.3246679,1.943359375
,84.3436377,1.89453125
,84.3952495,1.8359375
,84.3958451,1.77734375
,84.4061664,1.71875
,84.4428759,1.6650390625
,84.4459401,1.62109375
,84.483151,1.58203125
,84.4839327,1.5478515625
,84.5340284,1.513671875
,84.5344825,1.4794921875
,84.5442687,1.4404296875
,84.5642227,1.4013671875
,84.5995146,1.357421875
,84.6045063,1.3134765625
,84.6433758,1.2646484375
,84.6460175,1.26953125
,84.6619038,1.3427734375
,84.6992393,1.533203125
,84.7021587,1.73828125
,84.7388677,1.953125
,84.759964,2.119140625
,84.7652707,2.2607421875
,84.8022257,2.353515625
,84.8053756,2.4169921875
,84.8279296,2.451171875
,84.849853,2.4560546875
,84.8632036,2.451171875
,84.8986016,2.431640625
,84.9200689,2.392578125
,84.9229898,2.34375
,84.9723496,2.2998046875
,84.9729096,2.265625
,85.0016594,2.2412109375
,85.0075704,2.2119140625
,85.0430819,2.1826171875
,85.0435264,2.138671875
,85.078534,2.099609375
,85.0989003,2.0458984375
,85.1073109,1.9921875
,85.1237892,1.923828125
,85.1586032,1.865234375
,85.1799659,1.806640625
,85.1884304,1.7529296875
,85.2039317,1.6943359375
,85.2391577,1.66015625
,85.2603965,1.62109375
,85.2656425,1.5771484375
,85.3033209,1.5380859375
,85.3066462,1.494140625
,85.327549,1.4501953125
,85.3624697,1.40625
,85.3680803,1.3623046875
,85.3837399,1.318359375
,85.4215215,1.2890625
,85.4244982,1.328125
,85.4604094,1.4697265625
,85.4660448,1.669921875
,85.5027928,1.904296875
,85.5300618,2.1044921875
,85.5307172,2.294921875
,85.5484206,2.4462890625
,85.5682588,2.5439453125
,85.5886478,2.63671875
,85.6065043,2.6953125
,85.6414649,2.7490234375
,85.6444416,2.763671875
,85.6803956,2.744140625
,85.7012909,2.6904296875
,85.7081041,2.626953125
,85.7444505,2.5634765625
,85.7471587,2.509765625
,85.7643185,2.451171875
,85.8000116,2.40234375
,85.8052969,2.3486328125
,85.8565542,2.2900390625
,85.8570452,2.2216796875
,85.8669845,2.158203125
,85.9005459,2.0947265625
,85.9220471,2.0263671875
,85.9299602,1.953125
,85.9437928,1.8896484375
,85.9815241,1.8310546875
,86.0010672,1.7724609375
,86.0069911,1.71875
,86.0454653,1.669921875
,86.0460256,1.6259765625
,86.0803404,1.58203125
,86.1079195,1.533203125
,86.1083874,1.484375
,86.1245066,1.4404296875
,86.170113,1.3916015625
,86.1705594,1.34765625
,86.2017577,1.318359375
,86.2047579,1.3427734375
,86.2406687,1.4794921875
,86.2611146,1.6748046875
,86.2690628,1.9140625
,86.3039738,2.12890625
,86.3091784,2.333984375
,86.3260579,2.48046875
,86.3720349,2.626953125
,86.3726912,2.7197265625
,86.3866937,2.79296875
,86.422764,2.8369140625
,86.4282969,2.8466796875
,86.4663435,2.8125
,86.4670424,2.7490234375
,86.5009442,2.666015625
,86.5206011,2.6025390625
,86.5266291,2.5439453125
,86.5619848,2.48046875
,86.5676118,2.4169921875
,86.6043279,2.353515625
,86.623622,2.275390625
,86.6290965,2.2021484375
,86.6669472,2.12890625
,86.6677336,2.0458984375
,86.68607,1.9677734375
,86.7230992,1.89453125
,86.7261636,1.8115234375
,86.7743255,1.7333984375
,86.7747587,1.6650390625
,86.7952159,1.5966796875
,86.8097289,1.533203125
,86.8545276,1.4697265625
,86.8549602,1.4111328125
,86.8753396,1.357421875
,86.888549,1.3037109375
,86.9236863,1.2451171875
,86.9266796,1.181640625
,86.9616969,1.123046875
,86.9829212,1.0546875
,86.9903266,1.005859375
,87.0100131,0.9814453125
,87.0295455,1.064453125
,87.0461839,1.2548828125
,87.0809551,1.533203125
,87.1014435,1.7919921875
,87.1090388,2.03125
,87.1469675,2.197265625
,87.1474126,2.3388671875
,87.1832837,2.421875
,87.2041913,2.48046875
,87.2114925,2.5146484375
,87.2264421,2.5244140625
,87.2616182,2.5048828125
,87.2670489,2.4560546875
,87.3018353,2.3828125
,87.3227713,2.314453125
,87.3308571,2.24609375
,87.36691,2.1923828125
,87.3675251,2.1484375
,87.3869227,2.109375
,87.408596,2.0703125
,87.4249126,2.021484375
,87.4613479,1.962890625
,87.4810234,1.904296875
,87.4895722,1.826171875
,87.5110488,1.7529296875
,87.5316108,1.6796875
,87.5502064,1.62109375
,87.5660887,1.5576171875
,87.6025224,1.50390625
,87.6214431,1.455078125
,87.6274659,1.4111328125
,87.6655928,1.3671875
,87.6709236,1.328125
,87.6893407,1.279296875
,87.72656,1.2353515625
,87.7447176,1.19140625
,87.7508771,1.142578125
,87.7677702,1.0986328125
,87.8196533,1.0986328125
,87.8202998,1.181640625
,87.827547,1.3671875
,87.8649776,1.62109375
,87.896405,1.8603515625
,87.8971845,2.08984375
,87.9116993,2.2607421875
,87.9458946,2.392578125
,87.9486957,2.4755859375
,87.985858,2.5439453125
,87.9886113,2.5830078125
,88.0374824,2.59765625
,88.0379756,2.5634765625
,88.0692886,2.509765625
,88.0699932,2.4365234375
,88.1153213,2.3681640625
,88.1159334,2.314453125
,88.1347579,2.2607421875
,88.1498211,2.216796875
,88.1698669,2.16796875
,88.1900106,2.12890625
,88.2097528,2.0751953125
,88.2481074,2.01171875
,88.2487848,1.9384765625
,88.2879403,1.865234375
,88.288694,1.787109375
,88.3345993,1.7236328125
,88.3352677,1.66015625
,88.3503605,1.5966796875
,88.3860517,1.54296875
,88.3918499,1.484375
,88.4109861,1.42578125
,88.4468977,1.376953125
,88.4495701,1.3232421875
,88.485933,1.26953125
,88.5072236,1.2158203125
,88.5077516,1.171875
,88.5404158,1.1376953125
,88.5621657,1.1474609375
,88.5702594,1.26953125
,88.6101239,1.4794921875
,88.6107777,1.7529296875
,88.6470816,2.01171875
,88.6783829,2.2509765625
,88.6789793,2.4365234375
,88.6897394,2.59765625
,88.709797,2.71484375
,88.7463585,2.8076171875
,88.749345,2.8662109375
,88.7868028,2.880859375
,88.7891838,2.861328125
,88.8355721,2.802734375
,88.8362232,2.7197265625
,88.8668364,2.6318359375
,88.8674167,2.5634765625
,88.9008977,2.4951171875
,88.922044,2.431640625
,88.9314309,2.36328125
,88.9661186,2.294921875
,88.9875145,2.216796875
,88.9916286,2.138671875
,89.008509,2.0654296875
,89.0298483,1.9921875
,89.0651859,1.9189453125
,89.0979501,1.845703125
,89.0983941,1.77734375
,89.1110947,1.708984375
,89.1312446,1.6455078125
,89.1670812,1.58203125
,89.1732363,1.5283203125
,89.2104348,1.4697265625
,89.2111626,1.4111328125
,89.2299868,1.34765625
,89.2652283,1.298828125
,89.2702849,1.2451171875
,89.3064357,1.1962890625
,89.3121928,1.1669921875
,89.348565,1.23046875
,89.3685346,1.3916015625
,89.3741244,1.650390625
,89.3927864,1.9287109375
,89.4105465,2.1728515625
,89.4482667,2.3974609375
,89.4489569,2.5634765625
,89.4867815,2.7001953125
,89.5069056,2.7880859375
,89.5136917,2.8515625
,89.5330111,2.8759765625
,89.5697799,2.8662109375
,89.5704502,2.8125
,89.6065995,2.744140625
,89.609936,2.65625
,89.6611976,2.5732421875
,89.6618312,2.4951171875
,89.6719641,2.421875
,89.7086464,2.353515625
,89.7128817,2.2802734375
,89.7513647,2.2021484375
,89.7521024,2.1240234375
,89.787035,2.0458984375
,89.7900832,1.9677734375
,89.8254306,1.875
,89.8470591,1.7919921875
,89.852074,1.7041015625
,89.8955586,1.6259765625
,89.8962517,1.54296875
,89.9131036,1.4697265625
,89.9478319,1.4013671875
,89.9685197,1.3330078125
,89.9715184,1.279296875
,90.0087284,1.2109375
,90.0111415,1.15234375
,90.0475555,1.09375
,90.0688068,1.0205078125
,90.072875,0.95703125
,90.1138962,0.9130859375
,90.1145442,0.9423828125
,90.1325333,1.103515625
,90.1694357,1.3818359375
,90.1700962,1.6650390625
,90.2068992,1.943359375
,90.2126668,2.158203125
,90.2481867,2.3291015625
,90.2681796,2.44140625
,90.2732581,2.5244140625
,90.290925,2.5732421875
,90.3290131,2.6025390625
,90.3302378,2.587890625
,90.3678053,2.5390625
,90.3941445,2.4609375
,90.3946119,2.3681640625
,90.4147885,2.294921875
,90.4353343,2.2314453125
,90.4542522,2.16796875
,90.4719034,2.119140625
,90.5062627,2.080078125
,90.5108921,2.001953125
,90.5470195,1.9482421875
,90.5520265,1.884765625
,90.5731944,1.806640625
,90.6135213,1.7333984375
,90.6140032,1.6650390625
,90.6588566,1.591796875
,90.6592994,1.5185546875
,90.674965,1.4599609375
,90.6928339,1.38671875
,90.7393269,1.337890625
,90.7399844,1.2890625
,90.7537643,1.2255859375
,90.7901724,1.171875
,90.7959923,1.123046875
,90.8124018,1.07421875
,90.8498406,1.0400390625
,90.879368,1.0400390625
,90.8800253,1.1767578125
,90.8929005,1.396484375
,90.91295,1.6796875
,90.9473624,1.93359375
,90.9680535,2.1630859375
,90.9736389,2.3291015625
,91.0200075,2.4560546875
,91.0205511,2.5390625
,91.0506705,2.587890625
,91.0511342,2.6171875
,91.0989128,2.59765625
,91.0995579,2.5439453125
,91.12051,2.470703125
,91.1346126,2.3974609375
,91.1531912,2.333984375
,91.1882722,2.275390625
,91.2087507,2.2265625
,91.2165542,2.1826171875
,91.2331743,2.1142578125
,91.268975,2.080078125
,91.2758204,2.03125
,91.2949514,1.962890625
,91.3293417,1.89453125
,91.3361203,1.8212890625
,91.3722661,1.7529296875
,91.3770619,1.6845703125
,91.4152379,1.62109375
,91.4156853,1.5576171875
,91.4311738,1.50390625
,91.4654998,1.4501953125
,91.4868392,1.40625
,91.4946044,1.3525390625
,91.5314541,1.298828125
,91.5340476,1.2646484375
,91.5702289,1.298828125
,91.5905988,1.4208984375
,91.5911438,1.650390625
,91.6136145,1.904296875
,91.6340692,2.1728515625
,91.6696972,2.4072265625
,91.6743304,2.5830078125
,91.7094322,2.734375
,91.7307692,2.8369140625
,91.736017,2.9052734375
,91.7542233,2.939453125
,91.7742646,2.9443359375
,91.8103041,2.8955078125
,91.8137418,2.8173828125
,91.8481267,2.7294921875
,91.8691896,2.6416015625
,91.8750048,2.568359375
,91.9137442,2.5048828125
,91.9142704,2.4365234375
,91.938229,2.3779296875
,91.9568718,2.28515625
,91.9742535,2.1923828125
,92.0238207,2.1337890625
,92.0244314,2.0654296875
,92.0369096,1.9970703125
,92.0554763,1.9287109375
,92.0895273,1.8603515625
,92.1109104,1.796875
,92.1174426,1.73828125
,92.1350912,1.6748046875
,92.1558186,1.6259765625
,92.1765618,1.572265625
,92.1953735,1.5185546875
,92.2159805,1.46484375
,92.2526265,1.42578125
,92.2553529,1.42578125
,92.2914481,1.5234375
,92.3116975,1.708984375
,92.3121887,1.9384765625
,92.3523439,2.197265625
,92.3838211,2.4267578125
,92.3845238,2.63671875
,92.3970222,2.7978515625
,92.416753,2.9296875
,92.4532226,3.0126953125
,92.4585476,3.06640625
,92.4758086,3.0810546875
,92.5109535,3.0517578125
,92.5144232,2.9833984375
,92.5503459,2.880859375
,92.5555154,2.783203125
,92.5935273,2.6904296875
,92.5965732,2.6171875
,92.6315539,2.5390625
,92.6526435,2.4658203125
,92.6577509,2.392578125
,92.6773877,2.2998046875
,92.6946845,2.2021484375
,92.7144793,2.1435546875
,92.7586406,2.0751953125
,92.7593081,2.01171875
,92.7747696,1.943359375
,92.8198377,1.8798828125
,92.820295,1.81640625
,92.8409195,1.7626953125
,92.8560379,1.7041015625
,92.8747833,1.66015625
,92.9094183,1.6064453125
,92.9300491,1.5625
,92.9351689,1.50390625
,92.978043,1.455078125
,92.9785233,1.40625
,93.0257922,1.396484375
,93.02638,1.4794921875
,93.035917,1.640625
,93.0739723,1.8798828125
,93.074482,2.1044921875
,93.1110875,2.3193359375
,93.1165126,2.490234375
,93.1531772,2.63671875
,93.1563086,2.744140625
,93.1937769,2.8369140625
,93.1942258,2.880859375
,93.2306962,2.900390625
,93.2339295,2.8759765625
,93.2755527,2.802734375
,93.2762038,2.7099609375
,93.2952479,2.6220703125
,93.3333253,2.5439453125
,93.3374696,2.470703125
,93.382725,2.40234375
,93.3835112,2.3291015625
,93.3985251,2.2412109375
,93.4151657,2.16796875
,93.4623405,2.109375
,93.4627894,2.041015625
,93.4760468,1.9677734375
,93.5234687,1.89453125
,93.5241232,1.826171875
,93.5440542,1.7578125
,93.5595661,1.69921875
,93.580019,1.6357421875
,93.5944344,1.58203125
,93.6296534,1.5380859375
,93.6490341,1.494140625
,93.6565662,1.4501953125
,93.6777577,1.40625
,93.7143464,1.3623046875
,93.7196587,1.3134765625
,93.7395513,1.2646484375
,93.7548945,1.2158203125
,93.7912479,1.1767578125
,93.8118777,1.1572265625
,93.8148568,1.220703125
,93.8539347,1.3671875
,93.8739953,1.591796875
,93.8770206,1.8310546875
,93.9113833,2.0263671875
,93.9333969,2.197265625
,93.9340314,2.32421875
,93.9677453,2.431640625
,93.9889658,2.5
,93.9975582,2.548828125
,94.0405726,2.568359375
,94.0412077,2.548828125
,94.0709687,2.4951171875
,94.079682,2.431640625
,94.0992099,2.3681640625
,94.1369363,2.294921875
,94.1374994,2.255859375
,94.1561741,2.2216796875
,94.1968643,2.1728515625
,94.1972974,2.138671875
,94.2188682,2.0947265625
,94.2589145,2.0361328125
,94.2595835,1.97265625
,94.2960816,1.9091796875
,94.2990211,1.845703125
,94.3155964,1.7822265625
,94.3496067,1.7333984375
,94.3716047,1.6796875
,94.3784192,1.6259765625
,94.4152421,1.5771484375
,94.4207839,1.5283203125
,94.4376834,1.484375
,94.4726108,1.4453125
,94.4923431,1.396484375
,94.497013,1.357421875
,94.5320502,1.318359375
,94.5527421,1.26953125
,94.5590046,1.2255859375
,94.5792443,1.1865234375
,94.6183397,1.15234375
,94.6187864,1.1328125
,94.6542658,1.181640625
,94.6745654,1.318359375
,94.6782178,1.5380859375
,94.7151782,1.7626953125
,94.7158564,1.9873046875
,94.7535408,2.158203125
,94.760965,2.3095703125
,94.7795963,2.412109375
,94.8163377,2.4951171875
,94.8193739,2.548828125
,94.8674728,2.5830078125
,94.8679868,2.5927734375
,94.8888457,2.5634765625
,94.8987355,2.509765625
,94.9342805,2.451171875
,94.9390182,2.3876953125
,94.9742026,2.333984375
,94.9949853,2.2900390625
,95.0005657,2.236328125
,95.0399259,2.177734375
,95.0404184,2.12890625
,95.0596928,2.0703125
,95.1040589,2.01171875
,95.1045762,1.9482421875
,95.1202872,1.884765625
,95.1402464,1.8212890625
,95.1769111,1.7529296875
,95.1799601,1.689453125
,95.2143629,1.630859375
,95.2352249,1.5771484375
,95.2360246,1.533203125
,95.2745476,1.484375
,95.295711,1.4453125
,95.3013811,1.40625
,95.3205586,1.357421875
,95.3569961,1.318359375
,95.3604382,1.2744140625
,95.3768398,1.2255859375
,95.4153347,1.1962890625
,95.4201248,1.1572265625
,95.4559612,1.123046875
,95.4577918,1.0986328125
,95.4945785,1.1376953125
,95.5005225,1.2646484375
,95.5346651,1.455078125
,95.5548918,1.6845703125
,95.5600074,1.89453125
,95.5962198,2.0849609375
,95.6167168,2.2314453125
,95.6173108,2.3681640625
,95.6545751,2.4560546875
,95.6595801,2.5341796875
,95.6954206,2.587890625
,95.7006311,2.6220703125
,95.7378857,2.607421875
,95.7408375,2.5732421875
,95.7581333,2.509765625
,95.7787061,2.4560546875
,95.8136227,2.3974609375
,95.8340422,2.34375
,95.8398574,2.2900390625
,95.8870394,2.2412109375
,95.8876927,2.177734375
,95.9011512,2.1240234375
,95.9379584,2.0556640625
,95.9386152,1.9921875
,95.9578846,1.9287109375
,95.9948103,1.865234375
,96.0000925,1.806640625
,96.0359119,1.7431640625
,96.0391341,1.6845703125
,96.0609901,1.630859375
,96.0982631,1.572265625
,96.0989201,1.5185546875
,96.1380774,1.484375
,96.1676909,1.435546875
,96.1681743,1.3916015625
,96.1804285,1.3525390625
,96.2161717,1.30859375
,96.2471602,1.2646484375
,96.2476756,1.220703125
,96.2614886,1.171875
,96.2965887,1.1279296875
,96.3170087,1.0791015625
,96.3176204,1.0400390625
,96.354224,1.015625
,96.3595221,1.03515625
,96.38169,1.1669921875
,96.4013155,1.3623046875
,96.4363407,1.6064453125
,96.4633917,1.845703125
,96.4642622,2.0361328125
,96.5108076,2.2021484375
,96.5115594,2.32421875
,96.5207201,2.4365234375
,96.5599199,2.509765625
,96.5605756,2.578125
,96.6035472,2.6025390625
,96.6039812,2.59765625
,96.6242273,2.548828125
,96.6586144,2.490234375
,96.6592653,2.4169921875
,96.6963006,2.36328125
,96.6998735,2.3095703125
,96.736563,2.255859375
,96.7414951,2.197265625
,96.7788549,2.1533203125
,96.7821416,2.099609375
,96.822669,2.041015625
,96.8231243,1.97265625
,96.8400395,1.904296875
,96.8849827,1.8359375
,96.8856303,1.7724609375
,96.915464,1.708984375
,96.9197761,1.6455078125
,96.9620717,1.58203125
,96.9627524,1.5234375
,96.9829259,1.4697265625
,97.0178777,1.4208984375
,97.0229894,1.376953125
,97.0410347,1.337890625
,97.0771822,1.298828125
,97.0802845,1.2646484375
,97.1024459,1.220703125
,97.123433,1.171875
,97.1426952,1.1181640625
,97.1780458,1.0693359375
,97.1833234,1.025390625
,97.2042607,1.005859375
,97.2197103,1.0498046875
,97.2541881,1.2255859375
,97.274513,1.4453125
,97.2819598,1.69921875
,97.3183634,1.9091796875
,97.3208176,2.0947265625
,97.356272,2.2216796875
,97.3776166,2.32421875
,97.3782897,2.3779296875
,97.4137498,2.431640625
,97.4334933,2.4462890625
,97.4433687,2.4267578125
,97.4636452,2.373046875
,97.5003286,2.314453125
,97.5011035,2.24609375
,97.5400452,2.197265625
,97.5725078,2.158203125
,97.5730751,2.1240234375
,97.5808485,2.08984375
,97.6326393,2.05078125
,97.6332132,2.001953125
,97.6430215,1.943359375
,97.6783201,1.884765625
,97.6832783,1.8212890625
,97.7193124,1.7529296875
,97.7254278,1.689453125
,97.7620644,1.62109375
,97.7644575,1.5576171875
,97.7811908,1.4990234375
,97.8186494,1.4599609375
,97.8243829,1.4208984375
,97.8672568,1.3818359375
,97.8679286,1.337890625
,97.8847011,1.298828125
,97.9291445,1.259765625
,97.9298267,1.220703125
,97.9409688,1.1767578125
,97.9909058,1.142578125
,97.9915506,1.1083984375
,98.0111737,1.0888671875
,98.0229276,1.123046875
,98.0438933,1.2890625
,98.0860179,1.5283203125
,98.0864767,1.7822265625
,98.1047296,2.0263671875
,98.121531,2.2265625
,98.1562807,2.40234375
,98.1769252,2.5244140625
,98.1828002,2.6318359375
,98.2182906,2.7001953125
,98.2383231,2.7392578125
,98.2445756,2.744140625
,98.2807845,2.705078125
,98.2812267,2.63671875
,98.318605,2.568359375
,98.339809,2.5
,98.3430129,2.44140625
,98.378269,2.392578125
,98.3835809,2.333984375
,98.4037636,2.275390625
,98.4379564,2.20703125
,98.458014,2.1484375
,98.4643338,2.0751953125
,98.4998652,2.001953125
,98.5220793,1.923828125
,98.5227531,1.8603515625
,98.5437518,1.787109375
,98.5780808,1.7236328125
,98.5985064,1.6552734375
,98.6037991,1.5966796875
,98.6470491,1.54296875
,98.6474924,1.4892578125
,98.6685607,1.435546875
,98.6836097,1.4013671875
,98.7275495,1.357421875
,98.7282058,1.3037109375
,98.748452,1.25
,98.7649679,1.1962890625
,98.8005529,1.1474609375
,98.8204862,1.1279296875
,98.8262671,1.1962890625
,98.8431642,1.3671875
,98.8775812,1.6259765625
,98.8824705,1.89453125
,98.9202567,2.158203125
,98.9233739,2.3681640625
,98.9602747,2.5537109375
,98.9807416,2.6953125
,98.9881643,2.802734375
,99.0072152,2.880859375
,99.0228395,2.9150390625
,99.0575814,2.919921875
,99.0785153,2.880859375
,99.0841663,2.8125
,99.1190449,2.724609375
,99.1248039,2.6318359375
,99.1452613,2.5537109375
,99.1659973,2.470703125
,99.1875366,2.40234375
,99.2240951,2.333984375
,99.2249005,2.2607421875
,99.2731195,2.177734375
,99.2735747,2.099609375
,99.2832456,2.0166015625
,99.3177004,1.93359375
,99.3386796,1.8505859375
,99.3459714,1.767578125
,99.3828466,1.6845703125
,99.3862173,1.611328125
,99.4039327,1.54296875
,99.4411499,1.474609375
