Time,PPG_Signal
0.2020338,0.87890625
0.2215026,0.9130859375
0.2607173,0.9716796875
0.2609182,1.0546875
0.2778162,1.1376953125
0.3154017,1.23046875
0.3199163,1.3134765625
0.3696682,1.3916015625
0.3699444,1.4599609375
0.3805353,1.5087890625
0.4244815,1.552734375
0.4246809,1.58203125
0.4538879,1.611328125
0.4581819,1.6162109375
0.5050816,1.62109375
0.505281,1.6064453125
0.5252181,1.5869140625
0.5392681,1.5625
0.5822206,1.5380859375
0.5825644,1.50390625
0.6131116,1.4794921875
0.6238916,1.4404296875
0.6416783,1.38671875
0.660724,1.3330078125
0.6793751,1.3232421875
0.7214702,1.30859375
0.7217294,1.2841796875
0.742947,1.2548828125
0.7618212,1.23046875
0.7975419,1.201171875
0.8221174,1.171875
0.8223514,1.1474609375
0.8389174,1.123046875
0.8733379,1.0986328125
0.8939754,1.0791015625
0.900301,1.0546875
0.9471093,1.0302734375
0.9474059,1.0107421875
0.96062,0.9912109375
0.9947014,0.9716796875
1.0158254,0.9521484375
1.0204185,0.9326171875
1.0376654,0.9130859375
1.0904075,0.8935546875
1.0906788,0.888671875
1.1210355,0.888671875
1.1213181,0.9326171875
1.1583523,0.9912109375
1.1634879,1.0791015625
1.1791449,1.15234375
1.2159111,1.240234375
1.2212014,1.3134765625
1.2609727,1.3818359375
1.2612622,1.4404296875
1.2944281,1.4892578125
1.3138227,1.5234375
1.3217862,1.5576171875
1.3595829,1.58203125
1.3599487,1.5869140625
1.3981681,1.58203125
1.4004212,1.5673828125
1.4351903,1.5478515625
1.4598242,1.5234375
1.4604821,1.4990234375
1.4978354,1.4697265625
1.5030291,1.4404296875
1.5392622,1.416015625
1.5437332,1.3818359375
1.5600377,1.3525390625
1.5977029,1.328125
1.6290677,1.298828125
1.6292845,1.26953125
1.6414626,1.240234375
1.6920472,1.2060546875
1.6922772,1.1767578125
1.7132319,1.1474609375
1.7235726,1.123046875
1.7417784,1.09375
1.7598955,1.07421875
1.7948709,1.0498046875
1.8156864,1.025390625
1.8210281,1.005859375
1.8558216,0.9814453125
1.876965,0.95703125
1.8838596,0.9375
1.9003751,0.9130859375
1.9365663,0.8984375
1.9701414,0.87890625
1.9708109,0.8740234375
1.9819154,0.8642578125
2.016373,0.869140625
2.0374785,0.9130859375
2.0436988,0.986328125
2.0791641,1.07421875
2.0795066,1.15234375
2.0996496,1.240234375
2.1425004,1.3037109375
2.1428754,1.3671875
2.1627232,1.416015625
2.1971686,1.4599609375
2.201771,1.4892578125
2.2378472,1.5185546875
2.2659398,1.5283203125
2.2661682,1.533203125
2.2849159,1.50390625
2.3010766,1.4599609375
2.3224957,1.455078125
2.3574092,1.4453125
2.3623932,1.435546875
2.3956812,1.4111328125
2.4151611,1.396484375
2.4236942,1.3671875
2.467072,1.3427734375
2.4674191,1.3134765625
2.4889498,1.2939453125
2.5024075,1.26953125
2.5239412,1.2451171875
2.5428616,1.2158203125
2.5805706,1.19140625
2.5847726,1.1572265625
2.6211568,1.1376953125
2.6235592,1.11328125
2.6411634,1.0888671875
2.683456,1.064453125
2.6838204,1.0400390625
2.7059416,1.0205078125
2.723587,1.0009765625
2.7582491,0.9765625
2.7800211,0.95703125
2.7853954,0.9375
2.8019311,0.91796875
2.8376569,0.9033203125
2.8427469,0.888671875
2.8763097,0.8837890625
2.8982639,0.8740234375
2.9034512,0.859375
2.938042,0.8544921875
2.9583407,0.83984375
2.9656095,0.8544921875
2.9806352,0.9033203125
3.0154879,0.99609375
3.037777,1.0791015625
3.0413395,1.1767578125
3.090229,1.2548828125
3.0904272,1.328125
3.1048098,1.3818359375
3.1236821,1.4404296875
3.1585047,1.474609375
3.1788277,1.5087890625
3.1818607,1.5283203125
3.2305174,1.5478515625
3.230864,1.5478515625
3.2505827,1.5478515625
3.2638243,1.533203125
3.2843437,1.5087890625
3.3186254,1.4892578125
3.3403448,1.4599609375
3.3456962,1.4306640625
3.3626949,1.40625
3.3984715,1.3916015625
3.4008516,1.3671875
3.4490026,1.34765625
3.4493481,1.318359375
3.4688978,1.2939453125
3.4857267,1.2646484375
3.5272904,1.240234375
3.5276411,1.2109375
3.541517,1.1865234375
3.5773118,1.1669921875
3.5968594,1.1376953125
3.6041127,1.11328125
3.6516736,1.0888671875
3.6520171,1.0693359375
3.6737546,1.0400390625
3.6853424,1.0205078125
3.7017599,0.99609375
3.736575,0.9765625
3.7565805,0.95703125
3.7616168,0.9423828125
3.7974839,0.9228515625
3.8174172,0.908203125
3.8255094,0.888671875
3.8454089,0.869140625
3.8621716,0.849609375
3.8978826,0.8447265625
3.9021029,0.8447265625
3.9482452,0.8642578125
3.9485978,0.927734375
3.9704546,1.015625
3.9852013,1.11328125
4.0193096,1.1962890625
4.0269768,1.279296875
4.0746046,1.3427734375
4.0751561,1.40625
4.0840542,1.4453125
4.118191,1.494140625
4.1232583,1.5185546875
4.1585702,1.5478515625
4.1853209,1.552734375
4.1855758,1.5576171875
4.2054276,1.5478515625
4.2457503,1.5283203125
4.2459527,1.50390625
4.2627895,1.474609375
4.3087452,1.4599609375
4.3090914,1.435546875
4.3282067,1.4111328125
4.3447941,1.38671875
4.3880691,1.357421875
4.3884455,1.3330078125
4.4191029,1.318359375
4.4251664,1.2939453125
4.4428716,1.279296875
4.4771337,1.2548828125
4.4991264,1.2353515625
4.50432,1.2060546875
4.5420748,1.1865234375
4.5619824,1.162109375
4.5650798,1.1376953125
4.6043407,1.11328125
4.6046986,1.0888671875
4.624316,1.07421875
4.6436221,1.0546875
4.6827686,1.0400390625
4.6830715,1.0205078125
4.7200287,1.005859375
4.7405236,0.986328125
4.7443758,0.966796875
4.7793028,0.9423828125
4.7865189,0.9033203125
4.8024577,0.8740234375
4.8390475,0.91796875
4.8684206,0.99609375
4.8687661,1.07421875
4.8861007,1.1669921875
4.930277,1.2451171875
4.9305368,1.328125
4.9503774,1.3818359375
4.9692423,1.4404296875
4.9840338,1.4794921875
5.0186624,1.5234375
5.0256918,1.54296875
5.0608967,1.5673828125
5.0686002,1.5673828125
5.0866844,1.5673828125
5.1050582,1.552734375
5.139668,1.533203125
5.1629402,1.50390625
5.1632936,1.4892578125
5.2095659,1.46484375
5.2098309,1.4404296875
5.225716,1.416015625
5.2601989,1.38671875
5.2826366,1.3623046875
5.2876883,1.3330078125
5.333919,1.30859375
5.3343206,1.2841796875
5.3447061,1.259765625
5.365118,1.2353515625
5.4125796,1.2060546875
5.4129279,1.181640625
5.4343092,1.162109375
5.4463413,1.1376953125
5.4895349,1.11328125
5.4898811,1.0986328125
5.5094352,1.0693359375
5.5229088,1.0546875
5.5610428,1.03515625
5.56643,1.0205078125
5.5855219,1.0009765625
5.6288272,0.9814453125
5.6291713,0.9619140625
5.6485373,0.95703125
5.6841669,0.9619140625
5.7067941,1.005859375
5.7071176,1.0693359375
5.7517033,1.15234375
5.7519029,1.23046875
5.7647066,1.3037109375
5.8137153,1.3623046875
5.8140893,1.4208984375
5.8360542,1.474609375
5.8488663,1.5087890625
5.883684,1.54296875
5.8840547,1.5625
5.920407,1.58203125
5.9408869,1.58203125
5.9458287,1.58203125
5.9806963,1.5673828125
6.0031031,1.5478515625
6.0083582,1.5234375
6.0294917,1.494140625
6.044988,1.46484375
6.0954472,1.4453125
6.0962824,1.4208984375
6.107725,1.396484375
6.1275067,1.3720703125
6.1634015,1.3427734375
6.1680411,1.3134765625
6.205498,1.2841796875
6.2057594,1.259765625
6.2398184,1.2255859375
6.2439198,1.2060546875
6.2795285,1.181640625
6.3007218,1.1669921875
6.3063048,1.1376953125
6.352684,1.1181640625
6.3529799,1.09375
6.3744908,1.0693359375
6.389625,1.044921875
6.4095797,1.0009765625
6.4249079,0.95703125
6.4586934,0.966796875
6.4793303,0.966796875
6.4863534,0.9619140625
6.5235316,0.9521484375
6.5279814,0.9423828125
6.5644031,0.9521484375
6.5692183,0.99609375
6.6042373,1.064453125
6.6266312,1.142578125
6.6268431,1.2255859375
6.6773777,1.298828125
6.6776194,1.3671875
6.6878621,1.42578125
6.7219819,1.484375
6.7435278,1.5234375
6.7496261,1.5625
6.7702639,1.591796875
6.7876474,1.6015625
6.808517,1.611328125
6.8277665,1.6064453125
6.8477202,1.591796875
6.8671825,1.5673828125
6.907861,1.54296875
6.9080749,1.5087890625
6.9307635,1.484375
6.9472425,1.455078125
6.9674269,1.4306640625
7.0176947,1.40625
7.0180195,1.3818359375
7.0292869,1.357421875
7.0796431,1.328125
7.079903,1.298828125
7.0892043,1.279296875
7.1267055,1.25
7.127198,1.220703125
7.1565964,1.1962890625
7.1656041,1.171875
7.2124373,1.142578125
7.2127594,1.1181640625
7.2442345,1.0986328125
7.2484242,1.07421875
7.289245,1.0546875
7.2895241,1.0302734375
7.3105898,1.0107421875
7.3264597,0.986328125
7.3677513,0.9765625
7.3680493,0.95703125
7.3969002,0.9423828125
7.4086607,0.947265625
7.4439008,0.9716796875
7.4656419,1.0302734375
7.4697756,1.103515625
7.5059663,1.1865234375
7.5063111,1.2548828125
7.5377757,1.3232421875
7.566874,1.376953125
7.5671036,1.4306640625
7.6039907,1.4697265625
7.6254703,1.5087890625
7.6305714,1.5234375
7.6758086,1.54296875
7.6761272,1.54296875
7.6872513,1.54296875
7.7380449,1.5234375
7.7382494,1.5087890625
7.7579668,1.4892578125
7.7690873,1.46484375
7.8156206,1.435546875
7.8159713,1.4111328125
7.8299355,1.3818359375
7.8470824,1.357421875
7.880955,1.3330078125
7.9011234,1.30859375
7.9084052,1.279296875
7.9516867,1.2548828125
7.9519246,1.23046875
7.9847629,1.201171875
7.9897343,1.181640625
8.0057832,1.1572265625
8.0447146,1.1376953125
8.0676173,1.1181640625
8.0681525,1.064453125
8.10802,1.0498046875
8.1383409,1.03515625
8.1391556,1.025390625
8.1503377,1.005859375
8.1694398,0.9912109375
8.2071485,0.9716796875
8.2128237,0.9521484375
8.2282422,0.9326171875
8.2476072,0.9326171875
8.2933439,0.947265625
8.2935947,0.99609375
8.3105084,1.064453125
8.353579,1.142578125
8.3541275,1.2109375
8.3710338,1.2841796875
8.4052584,1.3427734375
8.4248512,1.396484375
8.4279805,1.4453125
8.4733885,1.484375
8.473601,1.5185546875
8.4895052,1.54296875
8.5355087,1.5625
8.5357667,1.5673828125
8.5520647,1.5576171875
8.5687723,1.5380859375
8.5859122,1.5185546875
8.6201049,1.494140625
8.6420554,1.4794921875
8.649931,1.4501953125
8.6722254,1.42578125
8.7062265,1.4013671875
8.7109422,1.3671875
8.7558168,1.3427734375
8.7561585,1.3134765625
8.7861308,1.2939453125
8.7881074,1.2646484375
8.8219271,1.240234375
8.8437428,1.2109375
8.850516,1.1865234375
8.8725557,1.162109375
8.9107802,1.1376953125
8.9109838,1.1083984375
8.9572311,1.0595703125
8.9575762,1.0400390625
8.9772558,1.0302734375
8.9882131,1.015625
9.0352166,1.005859375
9.035493,0.99609375
9.0512911,0.9814453125
9.0973033,0.966796875
9.0976482,0.947265625
9.1196917,0.9326171875
9.1308675,0.91796875
9.148743,0.927734375
9.1697018,0.966796875
9.2071811,1.03515625
9.2268909,1.1083984375
9.2314586,1.1865234375
9.2696399,1.2548828125
9.3006868,1.328125
9.3009802,1.38671875
9.3091736,1.4501953125
9.3459663,1.50390625
9.3653848,1.5380859375
9.3705144,1.5673828125
9.4076185,1.5869140625
9.429229,1.5966796875
9.4296828,1.591796875
9.4636519,1.5771484375
9.4837352,1.5478515625
9.4888582,1.5283203125
9.5240972,1.50390625
9.5455348,1.4892578125
9.5508141,1.46484375
9.5919631,1.4404296875
9.5923115,1.4111328125
9.6124394,1.3818359375
9.6286105,1.34765625
9.6641892,1.328125
9.6704063,1.298828125
9.7042149,1.26953125
9.7114289,1.240234375
9.7310343,1.2109375
9.7794058,1.181640625
9.7797099,1.15234375
9.7914639,1.1279296875
9.8278873,1.103515625
9.8589417,1.0791015625
9.8591821,1.0498046875
9.8697153,1.0302734375
9.9063985,1.015625
9.9113461,0.99609375
9.9465388,0.9765625
9.9515046,0.9619140625
9.9862535,0.947265625
10.0139939,0.927734375
10.0142201,0.9130859375
10.0316036,0.8935546875
10.051196,0.8984375
10.0941334,0.9130859375
10.094476,0.9716796875
10.1113822,1.0400390625
10.1565434,1.1279296875
10.1571259,1.1962890625
10.1734849,1.279296875
10.190683,1.337890625
10.2079453,1.4111328125
10.2438026,1.4599609375
10.2637848,1.5087890625
10.2723178,1.54296875
10.3069737,1.58203125
10.311957,1.6015625
10.3472053,1.6015625
10.3724981,1.5966796875
10.3727666,1.5771484375
10.3903305,1.5625
10.4364944,1.54296875
10.4368878,1.5234375
10.4665627,1.4990234375
10.470732,1.4697265625
10.5054983,1.4404296875
10.5353533,1.4111328125
10.5355843,1.38671875
10.5549433,1.337890625
10.5724121,1.2939453125
10.5911309,1.279296875
10.6415374,1.26953125
10.6418758,1.2451171875
10.6516591,1.2255859375
10.6866762,1.1962890625
10.7186843,1.171875
10.7190964,1.142578125
10.7367772,1.1181640625
10.7503242,1.0888671875
10.7862151,1.07421875
10.8114353,1.0546875
10.811742,1.0400390625
10.8466246,1.0205078125
10.8663977,1.005859375
10.8728377,0.9765625
10.9059983,0.95703125
10.9279984,0.9375
10.9283497,0.947265625
10.9643153,0.9814453125
10.9963905,1.0400390625
10.9966614,1.1181640625
11.01339,1.19140625
11.0591786,1.2646484375
11.0595121,1.328125
11.079431,1.396484375
11.089506,1.4501953125
11.1371535,1.50390625
11.1374856,1.54296875
11.1570605,1.5771484375
11.1719704,1.5966796875
11.2069746,1.6064453125
11.2268907,1.6015625
11.2331905,1.58203125
11.2694524,1.5625
11.2697816,1.533203125
11.2892453,1.5087890625
11.3229641,1.4794921875
11.3543293,1.455078125
11.3545712,1.42578125
11.3878035,1.396484375
11.4078578,1.3623046875
11.4126369,1.337890625
11.4480427,1.3037109375
11.4783701,1.2744140625
11.4786064,1.240234375
11.4923224,1.2158203125
11.5394957,1.1865234375
11.5398129,1.162109375
11.5520678,1.1328125
11.5888576,1.11328125
11.5931029,1.0888671875
11.6279455,1.0595703125
11.6505228,1.0400390625
11.650727,1.015625
11.6876026,1.0009765625
11.69179,0.9814453125
11.7404373,0.966796875
11.7407287,0.947265625
11.7623592,0.927734375
11.7748188,0.9033203125
11.7949266,0.8935546875
11.8115293,0.9033203125
11.8573015,0.95703125
11.8575261,1.0302734375
11.8788057,1.1181640625
11.8936137,1.2060546875
11.9309811,1.279296875
11.9365431,1.3525390625
11.9554992,1.416015625
11.9911106,1.4794921875
11.9914688,1.5283203125
12.0277405,1.58203125
12.0613665,1.6162109375
12.0615696,1.6455078125
12.0756499,1.6552734375
12.1217742,1.6552734375
12.1220397,1.6357421875
12.1353909,1.6162109375
12.1510532,1.5869140625
12.2007819,1.5625
12.2013943,1.4990234375
12.2124888,1.484375
12.2628467,1.4599609375
12.2631616,1.4306640625
12.276794,1.4013671875
12.2953698,1.3671875
12.3406352,1.337890625
12.3409231,1.3037109375
12.3553845,1.2744140625
12.3746333,1.240234375
12.3930205,1.220703125
12.433663,1.19140625
12.4338632,1.1669921875
12.4680915,1.1376953125
12.4883276,1.11328125
12.4953664,1.083984375
12.5321884,1.0595703125
12.5363669,1.0400390625
12.552792,1.015625
12.5893803,0.99609375
12.6215429,0.986328125
12.6217524,0.9814453125
12.6357019,0.966796875
12.6824633,0.9521484375
12.6827263,0.9375
12.7036226,0.9423828125
12.7135961,0.9716796875
12.7482739,1.0400390625
12.7533962,1.11328125
12.7941739,1.201171875
12.7945112,1.2744140625
12.8307475,1.3525390625
12.8354771,1.4111328125
12.8556576,1.4892578125
12.8961156,1.5478515625
12.8964248,1.591796875
12.9125732,1.630859375
12.9518415,1.66015625
12.9520492,1.6796875
12.975428,1.6796875
13.0106621,1.6650390625
13.0453382,1.6357421875
13.045558,1.6064453125
13.0575438,1.572265625
13.1045795,1.533203125
13.1048366,1.4990234375
13.1134641,1.474609375
13.1519899,1.435546875
13.1545017,1.40625
13.1903947,1.376953125
13.1951339,1.337890625
13.232502,1.3037109375
13.2368231,1.2646484375
13.2875504,1.2353515625
13.2877468,1.201171875
13.2949406,1.1767578125
13.3147348,1.1474609375
13.3652433,1.123046875
13.3657137,1.09375
13.3952807,1.07421875
13.3956269,1.0498046875
13.4363896,1.025390625
13.4366755,1.0009765625
13.4673825,0.986328125
13.4739837,0.966796875
13.5125968,0.95703125
13.5129421,0.9423828125
13.550933,0.9228515625
13.5564334,0.9130859375
13.5920873,0.927734375
13.6230664,0.9765625
13.623269,1.044921875
13.6345981,1.1376953125
13.6549103,1.2158203125
13.704353,1.298828125
13.7047049,1.3671875
13.7164144,1.4404296875
13.7507428,1.494140625
13.7575624,1.5478515625
13.7742137,1.58203125
13.8150586,1.62109375
13.8153321,1.6455078125
13.8511671,1.650390625
13.8553584,1.640625
13.8912833,1.62109375
13.9248573,1.5966796875
13.9250792,1.5625
13.9365998,1.533203125
13.9579001,1.4990234375
14.0014219,1.4599609375
14.0017782,1.42578125
14.0157183,1.396484375
14.0531919,1.3623046875
14.0534341,1.3330078125
14.0950197,1.298828125
14.1149043,1.2646484375
14.1169537,1.23046875
14.1505538,1.2060546875
14.1725596,1.1767578125
14.1728433,1.142578125
14.20763,1.1181640625
14.2366106,1.09375
14.2373256,1.07421875
14.2737266,1.044921875
14.2788931,1.025390625
14.3260736,1.0009765625
14.3263761,0.9765625
14.3327447,0.95703125
14.3733011,0.9423828125
14.4096206,0.9228515625
14.4099694,0.9228515625
14.4156646,0.9326171875
14.4506769,0.9814453125
14.4721773,1.0546875
14.4792931,1.1279296875
14.4977226,1.2109375
14.516857,1.279296875
14.5354209,1.3525390625
14.5802207,1.416015625
14.580484,1.474609375
14.5959387,1.5185546875
14.6317525,1.5625
14.6369431,1.58203125
14.6714557,1.6162109375
14.6929184,1.611328125
14.6991866,1.58203125
14.7166,1.5380859375
14.7654337,1.5283203125
14.7656688,1.50390625
14.7776731,1.4892578125
14.8283245,1.46484375
14.8287952,1.435546875
14.836963,1.4013671875
14.8711456,1.3671875
14.8926551,1.3330078125
14.8972382,1.298828125
14.935506,1.26953125
14.9357653,1.240234375
14.9716181,1.2109375
14.9983704,1.181640625
14.9987123,1.15234375
15.0440413,1.1181640625
15.0443849,1.09375
15.0545814,1.064453125
15.0901979,1.0400390625
15.1100697,1.025390625
15.115215,1.0009765625
15.1496633,0.9814453125
15.1710372,0.95703125
15.17804,0.9423828125
15.1969222,0.9228515625
15.2332659,0.908203125
15.2534417,0.888671875
15.2586502,0.8740234375
15.2757767,0.859375
15.3126422,0.8447265625
15.3333167,0.8349609375
15.3376382,0.8544921875
15.3758874,0.9033203125
15.3812897,0.9912109375
15.3954079,1.0693359375
15.4373658,1.171875
15.4376319,1.259765625
15.4836722,1.337890625
15.4840265,1.4111328125
15.4978306,1.474609375
15.5324662,1.5234375
15.5384345,1.5625
15.5723352,1.6015625
15.6079892,1.62109375
15.6081979,1.6259765625
15.6163606,1.62109375
15.6514983,1.6064453125
15.6714436,1.5869140625
15.6781178,1.5625
15.7137369,1.533203125
15.7346237,1.4990234375
15.7395842,1.474609375
15.776517,1.435546875
15.7810861,1.40625
15.796503,1.3671875
15.8459639,1.337890625
15.8462402,1.3037109375
15.8686128,1.2744140625
15.8774185,1.240234375
15.9111704,1.2109375
15.9313043,1.171875
15.9389709,1.1474609375
15.9553636,1.11328125
15.9907446,1.0888671875
16.0124186,1.064453125
16.0185957,1.0400390625
16.05466,1.015625
16.0580204,0.99609375
16.1025284,0.9765625
16.1028111,0.947265625
16.1222986,0.9228515625
16.1363386,0.8984375
16.1728649,0.8837890625
16.1964337,0.869140625
16.1966794,0.859375
16.2331928,0.8447265625
16.2553911,0.830078125
16.2597946,0.8154296875
16.2946981,0.8056640625
16.3204908,0.7958984375
16.3208908,0.80078125
16.3391635,0.8447265625
16.3818574,0.9619140625
16.3821173,1.0791015625
16.3983619,1.1767578125
16.4441185,1.2744140625
16.4443868,1.34765625
16.4653154,1.42578125
16.4801972,1.4794921875
16.5169191,1.5380859375
16.5391284,1.572265625
16.5394936,1.611328125
16.5736266,1.6259765625
16.5784563,1.6357421875
16.6152898,1.6259765625
16.6202164,1.6064453125
16.6566242,1.58203125
16.6641748,1.552734375
16.6780635,1.5234375
16.6975923,1.50390625
16.7333054,1.484375
16.7381349,1.455078125
16.7731989,1.42578125
16.7964941,1.396484375
16.79851,1.3671875
16.8329949,1.328125
16.8554802,1.298828125
16.8557723,1.259765625
16.9070018,1.2353515625
16.9073343,1.2060546875
16.9365968,1.181640625
16.9391649,1.1474609375
16.9741903,1.1279296875
16.9952894,1.09375
17.001936,1.0693359375
17.0364253,1.044921875
17.0366836,1.0205078125
17.0709261,1.0009765625
17.0919423,0.9765625
17.0988116,0.95703125
17.121214,0.9375
17.1580847,0.91796875
17.161624,0.8935546875
17.2045104,0.8740234375
17.2047123,0.859375
17.2211884,0.8740234375
17.2383633,0.91796875
17.2822553,1.005859375
17.2827882,1.0986328125
17.3021876,1.19140625
17.3195914,1.26953125
17.3402605,1.3525390625
17.3901131,1.4208984375
17.3904621,1.474609375
17.4013073,1.5283203125
17.4182258,1.5625
17.4690199,1.5966796875
17.4693654,1.6162109375
17.4789059,1.6259765625
17.5157918,1.6162109375
17.5347935,1.5966796875
17.542337,1.572265625
17.5792859,1.54296875
17.5798192,1.5087890625
17.6151259,1.484375
17.619625,1.4501953125
17.6568324,1.4208984375
17.6625068,1.396484375
17.6984512,1.3671875
17.6986663,1.3330078125
17.7351345,1.3037109375
17.7562534,1.2744140625
17.75651,1.240234375
17.7922032,1.2158203125
17.8127004,1.1865234375
17.8192079,1.1669921875
17.8560057,1.1376953125
17.8611478,1.11328125
17.903279,1.083984375
17.90358,1.0595703125
17.934184,1.03515625
17.9384844,1.015625
17.9868794,0.9912109375
17.9871616,0.9765625
18.0007992,0.95703125
18.0219604,0.9423828125
18.0638201,0.9228515625
18.064165,0.9033203125
18.1093346,0.888671875
18.1096296,0.869140625
18.1249603,0.859375
18.1393829,0.8642578125
18.1803656,0.9130859375
18.1807874,0.9912109375
18.2027339,1.0888671875
18.2234232,1.181640625
18.2417549,1.2744140625
18.2906516,1.3525390625
18.2912376,1.4306640625
18.3027511,1.50390625
18.320628,1.552734375
18.3546585,1.6015625
18.3588181,1.630859375
18.3946473,1.66015625
18.4140285,1.669921875
18.4231049,1.669921875
18.4644713,1.650390625
18.4646958,1.630859375
18.4779987,1.5966796875
18.5140143,1.5771484375
18.534063,1.54296875
18.5404447,1.513671875
18.5745481,1.4794921875
18.5959275,1.4501953125
18.6003905,1.4111328125
18.636259,1.3818359375
18.6571132,1.3525390625
18.659187,1.318359375
18.6943851,1.2890625
18.7148571,1.259765625
18.7213227,1.2353515625
18.7609819,1.2060546875
18.7612397,1.1865234375
18.8098737,1.1572265625
18.8101186,1.1328125
18.8423028,1.1083984375
18.842566,1.0595703125
18.8622772,1.0400390625
18.881519,1.0302734375
18.925922,1.015625
18.92618,1.0009765625
18.9418687,0.9912109375
18.9629962,0.9765625
19.0043002,0.9619140625
19.0044978,0.9423828125
19.02337,0.927734375
19.0406135,0.9228515625
19.0781457,0.9619140625
19.0834266,1.025390625
19.118475,1.11328125
19.1211359,1.19140625
19.1574899,1.2744140625
19.1904327,1.3427734375
19.1906753,1.4111328125
19.1997718,1.4697265625
19.237113,1.5283203125
19.257739,1.5673828125
19.2626001,1.611328125
19.2994373,1.6357421875
19.3037383,1.6455078125
19.3386255,1.6455078125
19.342731,1.6259765625
19.3783201,1.6015625
19.3973563,1.5673828125
19.4001127,1.5478515625
19.4361428,1.5185546875
19.457385,1.494140625
19.4619046,1.4599609375
19.4970296,1.4306640625
19.5282085,1.396484375
19.5286152,1.3720703125
19.5429798,1.337890625
19.5609786,1.30859375
19.6053045,1.2841796875
19.6055632,1.2548828125
19.6231978,1.2255859375
19.6675895,1.19140625
19.667946,1.162109375
19.6837817,1.1328125
19.7281463,1.1083984375
19.7284626,1.0791015625
19.7440328,1.0546875
19.7610868,1.0302734375
19.7958544,1.015625
19.8173467,1.0009765625
19.8218941,0.986328125
19.8595062,0.966796875
19.8639301,0.947265625
19.8990433,0.9228515625
19.9192342,0.9228515625
19.9234568,0.947265625
19.9410286,1.0009765625
19.9910058,1.0791015625
19.9913021,1.162109375
20.0221007,1.240234375
20.0223013,1.30859375
20.0675105,1.376953125
20.0681006,1.435546875
20.0854747,1.4892578125
20.1012503,1.5283203125
20.1469624,1.5673828125
20.1471598,1.591796875
20.1684502,1.611328125
20.1824297,1.6064453125
20.2173052,1.5966796875
20.2384292,1.58203125
20.2429594,1.5478515625
20.2872248,1.5234375
20.2875863,1.4892578125
20.3084582,1.4697265625
20.3223006,1.4453125
20.3565056,1.416015625
20.3788867,1.38671875
20.3832179,1.357421875
20.4274301,1.3232421875
20.427748,1.2939453125
20.4574815,1.2646484375
20.4665409,1.2060546875
20.4841607,1.1572265625
20.5031877,1.1474609375
20.5385705,1.1328125
20.5444551,1.1181640625
20.5650745,1.103515625
20.6062223,1.07421875
20.6064198,1.0546875
20.6399525,1.025390625
20.6619454,1.0009765625
20.6622465,0.9814453125
20.6986542,0.966796875
20.7036236,0.947265625
20.737388,0.9375
20.7589105,0.9228515625
20.7634109,0.9033203125
20.7977512,0.8837890625
20.8312141,0.8837890625
20.8315332,0.8984375
20.8423011,0.947265625
20.8912786,1.0400390625
20.8915283,1.1181640625
20.9121453,1.2109375
20.9248117,1.2841796875
20.969099,1.357421875
20.9693091,1.416015625
20.9866112,1.4794921875
21.0029097,1.5234375
21.0392217,1.572265625
21.0435545,1.6015625
21.0795945,1.630859375
21.0847928,1.640625
21.1239038,1.6357421875
21.1241999,1.6162109375
21.1591608,1.5966796875
21.1796455,1.5625
21.1823439,1.54296875
21.2170863,1.513671875
21.2392442,1.4794921875
21.2432777,1.4501953125
21.2799231,1.416015625
21.3016008,1.38671875
21.3062005,1.34765625
21.3430516,1.3232421875
21.3484061,1.2890625
21.3837778,1.259765625
21.3839817,1.2255859375
21.4033281,1.1962890625
21.4517938,1.1669921875
21.452233,1.142578125
21.4825056,1.11328125
21.4869041,1.083984375
21.5215279,1.064453125
21.5261338,1.03515625
21.5614788,1.0107421875
21.5818729,0.986328125
21.5848636,0.9716796875
21.620047,0.9521484375
21.6247558,0.9326171875
21.6588263,0.9130859375
21.679729,0.8984375
21.68496,0.8837890625
21.7197765,0.869140625
21.7405667,0.8544921875
21.7429474,0.849609375
21.777665,0.859375
21.8069805,0.9130859375
21.8071967,0.986328125
21.8254564,1.0888671875
21.8689637,1.181640625
21.8692233,1.259765625
21.8876231,1.337890625
21.9040483,1.4013671875
21.9383252,1.474609375
21.9592973,1.5234375
21.9633473,1.572265625
21.9984576,1.6015625
22.0208802,1.630859375
22.027674,1.6357421875
22.0451914,1.630859375
22.0644357,1.6162109375
22.0876202,1.6015625
22.1056325,1.54296875
22.1251518,1.5283203125
22.1635114,1.5087890625
22.1654919,1.4794921875
22.1985761,1.455078125
22.2195096,1.42578125
22.2262909,1.396484375
22.2603998,1.3671875
22.2813589,1.3330078125
22.2840731,1.298828125
22.3202757,1.2744140625
22.3408544,1.2451171875
22.3455547,1.220703125
22.3827727,1.19140625
22.3875368,1.1669921875
22.4083166,1.1328125
22.4273037,1.1083984375
22.4437793,1.0791015625
22.4930391,1.0595703125
22.4933193,1.03515625
22.5210892,1.015625
22.5261984,0.99609375
22.547219,0.9716796875
22.5820377,0.95703125
22.58758,0.9326171875
22.6257513,0.91796875
22.6260472,0.8935546875
22.6551334,0.8984375
22.6638027,0.9326171875
22.6974833,1.0009765625
22.719763,1.0791015625
22.7262372,1.1669921875
22.7617488,1.240234375
22.7885387,1.3134765625
22.7887831,1.38671875
22.8054292,1.4404296875
22.8430381,1.50390625
22.8454903,1.5478515625
22.8829129,1.5966796875
22.8885924,1.62109375
22.9246016,1.640625
22.924905,1.6357421875
22.9616962,1.6259765625
22.9847718,1.5966796875
22.9890129,1.5478515625
23.0066645,1.5185546875
23.0461937,1.4990234375
23.0463944,1.474609375
23.0817607,1.4501953125
23.108244,1.416015625
23.1084496,1.3916015625
23.1438865,1.357421875
23.147952,1.328125
23.1826462,1.2939453125
23.2167838,1.259765625
23.2170905,1.2353515625
23.226115,1.2060546875
23.2604707,1.1767578125
23.2807111,1.1474609375
23.2874357,1.1181640625
23.3221494,1.09375
23.3500415,1.064453125
23.3507381,1.0400390625
23.3671303,1.0205078125
23.386194,1.0009765625
23.4271356,0.9814453125
23.4276449,0.966796875
23.4479492,0.9423828125
23.4843285,0.927734375
23.4887183,0.9033203125
23.5269736,0.888671875
23.5272979,0.8642578125
23.5457572,0.849609375
23.5826865,0.849609375
23.5849928,0.87890625
23.6228602,0.9375
23.6473878,1.0302734375
23.6475877,1.1181640625
23.6928138,1.2060546875
23.693159,1.2841796875
23.7139042,1.3623046875
23.7262296,1.42578125
23.7623683,1.494140625
23.7666868,1.54296875
23.8019352,1.5771484375
23.8219854,1.6064453125
23.8275433,1.62109375
23.8638278,1.62109375
23.8837315,1.611328125
23.8882521,1.5966796875
23.9045265,1.5673828125
23.9414764,1.54296875
23.9621829,1.513671875
23.9668131,1.4892578125
24.0051997,1.455078125
24.0100455,1.4208984375
24.051616,1.38671875
24.0518281,1.357421875
24.0707093,1.328125
24.0855176,1.2890625
24.1280696,1.2646484375
24.1283235,1.23046875
24.1482495,1.2060546875
24.1820559,1.1767578125
24.2014456,1.1474609375
24.2084822,1.1181640625
24.252548,1.09375
24.252943,1.0693359375
24.2727818,1.0498046875
24.2889975,1.025390625
24.3315298,1.005859375
24.3318194,0.9814453125
24.348076,0.966796875
24.3839589,0.9423828125
24.4088771,0.9326171875
24.4090882,0.9228515625
24.4273584,0.9033203125
24.4472658,0.8935546875
24.4821091,0.8837890625
24.5030903,0.888671875
24.5100913,0.927734375
24.5291265,1.0107421875
24.5788801,1.09375
24.57912,1.1865234375
24.5914896,1.259765625
24.6119861,1.3134765625
24.627841,1.357421875
24.6468378,1.4453125
24.6888038,1.5087890625
24.6891453,1.5673828125
24.7129485,1.611328125
24.7303824,1.640625
24.7745151,1.650390625
24.774775,1.6455078125
24.7928759,1.630859375
24.8067325,1.6064453125
24.8413872,1.58203125
24.8625444,1.5576171875
24.8710954,1.5283203125
24.8892332,1.494140625
24.9306273,1.4697265625
24.9309319,1.4404296875
24.9610176,1.4111328125
24.9663117,1.376953125
25.0099693,1.34765625
25.0103306,1.3134765625
25.0544027,1.2841796875
25.0549167,1.25
25.0685342,1.2158203125
25.1022626,1.181640625
25.1236354,1.15234375
25.1333442,1.1181640625
25.1482087,1.0888671875
25.1894492,1.064453125
25.1897123,1.044921875
25.2227029,1.0205078125
25.244844,0.99609375
25.2496547,0.9765625
25.2974599,0.9521484375
25.2977023,0.9326171875
25.305657,0.908203125
25.3437314,0.888671875
25.3464831,0.8837890625
25.3840687,0.9033203125
25.408418,0.9619140625
25.4087346,1.03515625
25.4469761,1.1328125
25.4682965,1.2109375
25.4686269,1.2939453125
25.5204165,1.3623046875
25.520665,1.435546875
25.5411316,1.4892578125
25.5506049,1.5478515625
25.5695495,1.5869140625
25.6057301,1.62109375
25.6304806,1.6357421875
25.6307394,1.640625
25.6764982,1.630859375
25.6767871,1.611328125
25.6922835,1.5869140625
25.7082483,1.552734375
25.7538901,1.5234375
25.7541063,1.494140625
25.7697368,1.4599609375
25.8048677,1.42578125
25.8336899,1.3916015625
25.8339123,1.357421875
25.8519811,1.3232421875
25.8682948,1.2841796875
25.8913698,1.2548828125
25.909438,1.2255859375
25.9276481,1.201171875
25.9598055,1.171875
25.9697701,1.1474609375
25.9916898,1.123046875
26.0386016,1.0888671875
26.0389574,1.064453125
26.051274,1.0302734375
26.0699501,1.015625
26.0897242,0.9912109375
26.1097746,0.9716796875
26.1588534,0.947265625
26.1591106,0.927734375
26.1698174,0.9033203125
26.2042607,0.8837890625
26.2316319,0.859375
26.2319603,0.83984375
26.2489001,0.7958984375
26.2837492,0.8203125
26.3108559,0.8837890625
26.3111371,0.9814453125
26.3457523,1.083984375
26.3532717,1.1767578125
26.3892249,1.26953125
26.3946198,1.34765625
26.4135512,1.42578125
26.4286886,1.4892578125
26.4807389,1.5576171875
26.4809971,1.6064453125
26.4914464,1.650390625
26.5127121,1.669921875
26.5492627,1.6796875
26.5495874,1.669921875
26.5906616,1.650390625
26.5908617,1.62109375
26.6224847,1.591796875
26.6313974,1.5673828125
26.6502651,1.533203125
26.6854311,1.4990234375
26.7067939,1.46484375
26.7114224,1.4306640625
26.7491566,1.3916015625
26.7751546,1.3623046875
26.7753808,1.3232421875
26.7902969,1.2939453125
26.8101906,1.2646484375
26.8461182,1.2353515625
26.8691885,1.2060546875
26.8725932,1.1767578125
26.891471,1.15234375
26.9320937,1.123046875
26.9322991,1.09375
26.9665129,1.083984375
26.9688701,1.0693359375
27.005392,1.0546875
27.0262013,1.0400390625
27.0304965,1.025390625
27.0727692,1.005859375
27.0729666,0.9814453125
27.1184635,0.966796875
27.1189624,0.9521484375
27.133885,0.9716796875
27.1501366,1.0107421875
27.1943043,1.083984375
27.1945753,1.162109375
27.2109088,1.2451171875
27.2549114,1.318359375
27.2551519,1.396484375
27.2729539,1.4697265625
27.3174658,1.5234375
27.3176663,1.5771484375
27.3475879,1.6162109375
27.3499616,1.650390625
27.3842713,1.669921875
27.4050104,1.669921875
27.4115543,1.66015625
27.4464778,1.6357421875
27.469753,1.6015625
27.4745913,1.5673828125
27.4908476,1.533203125
27.52706,1.50390625
27.5316293,1.4697265625
27.5667123,1.435546875
27.5708231,1.3916015625
27.6041949,1.357421875
27.6237489,1.3232421875
27.6339064,1.2841796875
27.6829337,1.2451171875
27.6831683,1.2158203125
27.6909986,1.181640625
27.7284331,1.15234375
27.7313067,1.123046875
27.7653139,1.0986328125
27.7850456,1.07421875
27.7937346,1.044921875
27.8388701,1.0205078125
27.8392277,0.9912109375
27.84982,0.9765625
27.8873507,0.95703125
27.8921518,0.9375
27.927391,0.9228515625
27.9324325,0.8984375
27.9665021,0.8837890625
27.9863536,0.87890625
27.9936618,0.9130859375
28.0293597,0.9716796875
28.0499777,1.0595703125
28.0502684,1.1376953125
28.0844417,1.23046875
28.1065974,1.3134765625
28.1148241,1.3916015625
28.1327436,1.4599609375
28.1676551,1.5234375
28.1875793,1.5673828125
28.1945807,1.611328125
28.2115444,1.6357421875
28.2590567,1.66015625
28.2592618,1.6650390625
28.2719016,1.650390625
28.320208,1.6259765625
28.320546,1.5869140625
28.3336054,1.552734375
28.3545898,1.513671875
28.3763182,1.474609375
28.391126,1.435546875
28.4283098,1.4013671875
28.4578216,1.3671875
28.4581749,1.3330078125
28.4718975,1.3037109375
28.5057038,1.26953125
28.5275201,1.240234375
28.5342249,1.201171875
28.5727499,1.1767578125
28.5729763,1.142578125
28.6133959,1.1181640625
28.6136,1.0888671875
28.6591712,1.064453125
28.6594369,1.03515625
28.6736134,1.0107421875
28.721259,0.9814453125
28.7216132,0.95703125
28.7361179,0.927734375
28.7821516,0.8837890625
28.782381,0.8349609375
28.7916866,0.8349609375
28.8279793,0.830078125
28.8331444,0.8203125
28.8676874,0.810546875
28.8892829,0.80078125
28.8955628,0.7861328125
28.9300617,0.7763671875
28.9354659,0.7861328125
28.9527949,0.8251953125
28.9883938,0.908203125
28.991392,1.015625
29.0268674,1.1328125
29.049188,1.2353515625
29.0545357,1.3330078125
29.0911497,1.4111328125
29.0965645,1.4892578125
29.1118133,1.5478515625
29.1587208,1.6064453125
29.1590813,1.650390625
29.1791329,1.6796875
29.1946456,1.7041015625
29.2292098,1.6943359375
29.2329919,1.6796875
29.2679268,1.650390625
29.2899523,1.6162109375
29.2901647,1.5771484375
29.3304501,1.54296875
29.353003,1.50390625
29.3532648,1.46484375
29.3940184,1.42578125
29.3942882,1.3916015625
29.4304139,1.3525390625
29.4564073,1.3134765625
29.456696,1.26953125
29.4727033,1.240234375
29.4944026,1.201171875
29.533658,1.181640625
29.5338633,1.1474609375
29.5678588,1.11328125
29.5897027,1.0791015625
29.5954284,1.044921875
29.6407549,1.015625
29.6409831,0.9814453125
29.6569712,0.95703125
29.6733648,0.9228515625
29.7117156,0.9033203125
29.7120668,0.8837890625
29.7513981,0.8642578125
29.783368,0.83984375
29.7837155,0.8251953125
29.7968975,0.8056640625
29.8462906,0.7861328125
29.8466177,0.7763671875
29.8545768,0.7568359375
29.8746909,0.751953125
29.9250407,0.7763671875
29.9252456,0.8544921875
29.9347153,0.9521484375
29.9717599,1.0693359375
30.001545,1.1669921875
30.0018222,1.26953125
30.0130224,1.3525390625
30.0484491,1.4404296875
30.0806395,1.5087890625
30.0808398,1.5673828125
30.0945901,1.611328125
30.1385351,1.6455078125
30.138873,1.6552734375
30.1705541,1.669921875
30.1805332,1.66015625
30.1950896,1.630859375
30.2305127,1.6015625
30.2347999,1.572265625
30.2724611,1.54296875
30.2744746,1.5087890625
30.3196773,1.474609375
30.3199956,1.4404296875
30.3500984,1.40625
30.3583336,1.3671875
30.3782927,1.3037109375
30.3943435,1.25
30.4408389,1.240234375
30.4414752,1.2158203125
30.4607091,1.19140625
30.4762947,1.1669921875
30.5179691,1.1328125
30.5182374,1.103515625
30.5378414,1.07421875
30.5816819,1.0498046875
30.5818818,1.0205078125
30.5948484,0.99609375
30.6431334,0.9716796875
30.6434244,0.947265625
30.6557569,0.9228515625
30.6941499,0.9033203125
30.6944514,0.87890625
30.7310775,0.859375
30.7524466,0.8349609375
30.7527049,0.8203125
30.7956174,0.8056640625
30.7959298,0.83984375
30.8270004,0.9130859375
30.8364255,1.005859375
30.8724445,1.1083984375
30.8939663,1.2060546875
30.8982038,1.298828125
30.9143152,1.376953125
30.948885,1.4599609375
30.9689024,1.5185546875
30.9756714,1.572265625
31.0137281,1.611328125
31.0140727,1.6357421875
31.0482538,1.650390625
31.069967,1.66015625
31.0721234,1.6455078125
31.1213427,1.630859375
31.121643,1.6064453125
31.1424667,1.572265625
31.1552138,1.5380859375
31.1925132,1.4990234375
31.1966733,1.46484375
31.2306143,1.42578125
31.2521753,1.3916015625
31.2565549,1.3525390625
31.2937272,1.318359375
31.3277109,1.279296875
31.3279982,1.25
31.3368252,1.2158203125
31.3729653,1.1865234375
31.375078,1.15234375
31.4077364,1.123046875
31.4284477,1.0888671875
31.4372635,1.064453125
31.4736167,1.03515625
31.4940014,1.005859375
31.4942943,0.9765625
31.5416505,0.9521484375
31.5419253,0.927734375
31.5568985,0.908203125
31.5944699,0.888671875
31.597048,0.8740234375
31.6328578,0.8544921875
31.6522359,0.8349609375
31.6544482,0.8203125
31.6897202,0.80078125
31.7117166,0.8056640625
31.7165145,0.83984375
31.7584404,0.9228515625
31.758689,1.03515625
31.7953004,1.142578125
31.7994635,1.2451171875
31.8151693,1.3330078125
31.8602872,1.42578125
31.8604844,1.4990234375
31.8765557,1.5673828125
31.9104817,1.6162109375
31.9312157,1.6552734375
31.9381205,1.6796875
31.973134,1.69921875
31.9998348,1.6943359375
32.0001047,1.689453125
32.0167452,1.6650390625
32.0608924,1.6357421875
32.0611588,1.5966796875
32.076834,1.5673828125
32.1225891,1.533203125
32.1228011,1.494140625
32.1438342,1.4599609375
32.1592068,1.416015625
32.197401,1.3818359375
32.228554,1.3427734375
32.2287536,1.3134765625
32.2366995,1.279296875
32.274586,1.2451171875
32.2956595,1.2060546875
32.2959445,1.1767578125
32.3326011,1.1376953125
32.3538113,1.1083984375
32.3540979,1.07421875
32.3895637,1.044921875
32.4119763,1.0205078125
32.4183291,0.986328125
32.4635262,0.9619140625
32.4638693,0.9326171875
32.4795631,0.9033203125
32.4981595,0.87890625
32.5333066,0.8544921875
32.553565,0.830078125
32.5556652,0.810546875
32.5909435,0.791015625
32.610309,0.78125
32.6171719,0.7568359375
32.6541175,0.7568359375
32.6747539,0.78125
32.6806123,0.8642578125
32.6961605,0.966796875
32.746602,1.09375
32.7468147,1.2109375
32.7561028,1.30859375
32.7933478,1.396484375
32.7960535,1.4697265625
32.8439222,1.533203125
32.8443318,1.58203125
32.8591352,1.6259765625
32.8920586,1.6455078125
32.9125928,1.66015625
32.9169527,1.6552734375
32.9550452,1.6455078125
32.9553446,1.62109375
33.0094145,1.5966796875
33.0096533,1.5576171875
33.0191461,1.5234375
33.0541248,1.4892578125
33.0757012,1.4501953125
33.0811059,1.416015625
33.096724,1.376953125
33.1360572,1.3525390625
33.1363613,1.3232421875
33.1771123,1.2939453125
33.208325,1.2548828125
33.2085696,1.220703125
33.2193392,1.1865234375
33.268814,1.15234375
33.2690112,1.1181640625
33.2899548,1.0888671875
33.2997048,1.0595703125
33.3353084,1.0302734375
33.3375046,0.9912109375
33.3763235,0.9716796875
33.3786516,0.9423828125
33.4138233,0.91796875
33.4348788,0.888671875
33.4351301,0.869140625
33.4871693,0.8447265625
33.4881755,0.8251953125
33.4990368,0.810546875
33.5185618,0.791015625
33.5568764,0.791015625
33.5572224,0.8203125
33.5958632,0.908203125
33.5960654,1.015625
33.6172123,1.1376953125
33.6536207,1.2451171875
33.6591938,1.3427734375
33.7035403,1.435546875
33.7039027,1.4990234375
33.7187068,1.5576171875
33.7545843,1.5966796875
33.7758277,1.6357421875
33.7805623,1.6455078125
33.8153502,1.650390625
33.8346565,1.6357421875
33.8365389,1.62109375
33.8728499,1.591796875
33.8925616,1.5625
33.8995778,1.5234375
33.9364458,1.494140625
33.9420157,1.455078125
33.9779509,1.42578125
33.9783339,1.3818359375
33.99798,1.357421875
34.0354192,1.328125
34.0373617,1.2939453125
34.0723333,1.259765625
34.0950036,1.220703125
34.1010338,1.181640625
34.1205212,1.15234375
34.170802,1.123046875
34.1710939,1.0888671875
34.1777609,1.064453125
34.214188,1.03515625
34.2180576,1.005859375
34.2653891,0.9814453125
34.2657299,0.95703125
34.2962199,0.9326171875
34.3015203,0.9130859375
34.3228873,0.8935546875
34.3383621,0.8642578125
34.3730502,0.849609375
34.3792536,0.8349609375
34.3990279,0.859375
34.4355951,0.9228515625
34.4627488,1.0302734375
34.4630371,1.1376953125
34.481645,1.2451171875
34.5026546,1.3330078125
34.5217457,1.4013671875
34.5382762,1.455078125
34.5749047,1.5380859375
34.602926,1.5966796875
34.6031265,1.650390625
34.6215305,1.6796875
34.6646672,1.708984375
34.6651344,1.7138671875
34.6976893,1.69921875
34.7016099,1.6748046875
34.7194434,1.640625
34.7409631,1.6064453125
34.7766189,1.572265625
34.7796055,1.5380859375
34.818569,1.50390625
34.8380712,1.4697265625
34.8410107,1.4306640625
34.8747657,1.3916015625
34.8946623,1.3525390625
34.8998501,1.328125
34.9406232,1.2890625
34.9409036,1.259765625
34.9764938,1.2255859375
35.0020223,1.1962890625
35.0023727,1.162109375
35.038546,1.1279296875
35.040381,1.0986328125
35.0581131,1.0693359375
35.095716,1.044921875
35.1154812,1.0205078125
35.12045,1.0009765625
35.140192,0.9765625
35.1898387,0.9716796875
35.1902043,0.9521484375
35.2097109,0.9375
35.2167379,0.91796875
35.2681971,0.9033203125
35.2685506,0.8984375
35.2888429,0.9375
35.2985339,1.0205078125
35.3343639,1.11328125
35.3554158,1.220703125
35.3606405,1.3134765625
35.4100049,1.4013671875
35.4103472,1.4794921875
35.4402236,1.552734375
35.4404772,1.611328125
35.4774433,1.6650390625
35.4828102,1.7041015625
35.5012114,1.7333984375
35.5354324,1.748046875
35.5558059,1.7529296875
35.5616703,1.7333984375
35.5973335,1.7041015625
35.6254144,1.669921875
35.6259999,1.6259765625
35.6386493,1.591796875
35.6877902,1.5576171875
35.6881527,1.5234375
35.7077605,1.484375
35.7224051,1.4453125
35.7652052,1.40625
35.7655445,1.3671875
35.7851645,1.3232421875
35.7989298,1.2939453125
35.8424525,1.259765625
35.8427374,1.2255859375
35.8617553,1.19140625
35.8822155,1.162109375
35.9175149,1.123046875
35.9214104,1.09375
35.956313,1.0595703125
35.9761434,1.0302734375
35.9816059,1.005859375
36.0005831,0.9814453125
36.0361992,0.9521484375
36.0429068,0.927734375
36.0915908,0.908203125
36.0919489,0.8837890625
36.1041858,0.859375
36.1233759,0.83984375
36.14511,0.78125
36.158242,0.7421875
36.2001088,0.7568359375
36.2004548,0.80078125
36.2202871,0.8984375
36.2555234,1.0205078125
36.2755344,1.1279296875
36.2825154,1.240234375
36.3160921,1.3330078125
36.3403521,1.42578125
36.3405739,1.494140625
36.3882256,1.5673828125
36.3885903,1.6162109375
36.4082864,1.66015625
36.4221513,1.6845703125
36.456386,1.7041015625
36.4766077,1.6943359375
36.4846089,1.6796875
36.4986936,1.650390625
36.5347818,1.6162109375
36.5601101,1.58203125
36.5607525,1.5478515625
36.5935647,1.513671875
36.6138224,1.474609375
36.6238905,1.435546875
36.6603622,1.396484375
36.6624408,1.357421875
36.6983788,1.318359375
36.7007219,1.2890625
36.7417676,1.2548828125
36.7419736,1.2255859375
36.7624229,1.19140625
36.7972693,1.162109375
36.8200988,1.1279296875
36.824554,1.09375
36.8400484,1.064453125
36.8825653,1.03515625
36.8829078,1.015625
36.9172053,0.986328125
36.9444533,0.9619140625
36.9446544,0.9375
36.9770996,0.9228515625
36.998847,0.8984375
37.0043888,0.8837890625
37.0532997,0.8642578125
37.053694,0.83984375
37.0733541,0.8251953125
37.0795259,0.83984375
37.1154023,0.888671875
37.1364102,0.986328125
37.1434669,1.0888671875
37.1940428,1.1962890625
37.1943418,1.2841796875
37.2049042,1.3818359375
37.2407629,1.46484375
37.2410752,1.5283203125
37.2750187,1.591796875
37.3004705,1.6357421875
37.3035201,1.669921875
37.3380504,1.689453125
37.3625552,1.69921875
37.3629054,1.689453125
37.3959103,1.6650390625
37.4182398,1.630859375
37.4212606,1.5966796875
37.4724401,1.5625
37.4727139,1.533203125
37.4829223,1.494140625
37.5190162,1.4599609375
37.5240635,1.42578125
37.5581678,1.38671875
37.5801529,1.34765625
37.5807646,1.30859375
37.6181486,1.279296875
37.622085,1.25
37.6553055,1.2158203125
37.6758997,1.181640625
37.6828702,1.15234375
37.7191342,1.11328125
37.7241211,1.083984375
37.7412497,1.0498046875
37.7754353,1.025390625
37.7955395,1.0009765625
37.8025124,0.9765625
37.8364637,0.9521484375
37.8580744,0.9326171875
37.8656238,0.908203125
37.9008743,0.87890625
37.9047468,0.859375
37.9400719,0.83984375
37.9605149,0.8544921875
37.9607616,0.9130859375
37.9964353,1.0107421875
38.0165439,1.11328125
38.0248749,1.220703125
38.0743924,1.3134765625
38.0747355,1.396484375
38.0940149,1.4697265625
38.1040214,1.5380859375
38.1372387,1.58203125
38.1422178,1.6259765625
38.1821321,1.6650390625
38.182495,1.6796875
38.2024271,1.6845703125
38.2358924,1.6748046875
38.2579753,1.6552734375
38.2661286,1.62109375
38.3061176,1.5869140625
38.3064079,1.54296875
38.3220577,1.5087890625
38.3565462,1.474609375
38.3785481,1.4453125
38.3868082,1.4013671875
38.4054283,1.3623046875
38.4451824,1.3232421875
38.4453894,1.2841796875
38.4621163,1.2451171875
38.5082245,1.2158203125
38.5085866,1.1865234375
38.5279928,1.1474609375
38.5605751,1.11328125
38.5677749,1.0791015625
38.585389,1.044921875
38.6069932,1.015625
38.6462624,0.986328125
38.646539,0.95703125
38.6804052,0.8984375
38.7024678,0.87890625
38.7028201,0.8642578125
38.7398183,0.849609375
38.760085,0.8447265625
38.7649974,0.8251953125
38.8024028,0.8056640625
38.824022,0.7958984375
38.8242437,0.7958984375
38.8647993,0.8544921875
38.864999,0.9375
38.8859902,1.064453125
38.9280396,1.171875
38.9282425,1.279296875
38.9475979,1.3671875
38.9842317,1.455078125
38.9868454,1.5185546875
39.0312918,1.58203125
39.0316514,1.62109375
39.0441983,1.6650390625
39.079588,1.689453125
39.083924,1.69921875
39.1194177,1.689453125
39.1466137,1.6748046875
39.146935,1.6455078125
39.1946454,1.6064453125
39.1950079,1.5673828125
39.212885,1.5283203125
39.2236926,1.4892578125
39.2715536,1.455078125
39.2719077,1.42578125
39.2915067,1.3916015625
39.306774,1.357421875
39.3496517,1.3134765625
39.3499702,1.279296875
39.3635605,1.2353515625
39.4110455,1.2060546875
39.4113414,1.171875
39.4244124,1.1376953125
39.4735931,1.103515625
39.4738419,1.064453125
39.5036989,1.0302734375
39.5066309,0.99609375
39.5421502,0.95703125
39.5669143,0.9228515625
39.5671177,0.888671875
39.5836594,0.8544921875
39.6297539,0.8251953125
39.6302726,0.80078125
39.6600911,0.78125
39.6649636,0.751953125
39.7004023,0.732421875
39.7201922,0.703125
39.7272436,0.68359375
39.7433947,0.654296875
39.7817506,0.6689453125
39.7845808,0.732421875
39.8195145,0.8447265625
39.8389417,0.99609375
39.84599,1.123046875
39.8803677,1.25
39.9027068,1.3525390625
39.9090445,1.4501953125
39.9241068,1.5234375
39.9710294,1.591796875
39.9713884,1.6357421875
39.9908988,1.6748046875
40.0057345,1.689453125
40.0418204,1.7041015625
40.0671067,1.689453125
40.0673764,1.669921875
40.1035339,1.640625
40.1228912,1.6015625
40.1248945,1.5673828125
40.1608701,1.533203125
40.188548,1.4990234375
40.189109,1.46484375
40.2196718,1.42578125
40.2398524,1.38671875
40.2485254,1.34765625
40.2694915,1.30859375
40.2882336,1.25
40.3051733,1.1962890625
40.3403981,1.1767578125
40.3623616,1.15234375
40.3678022,1.1328125
40.389393,1.0986328125
40.4072183,1.07421875
40.4414518,1.0498046875
40.4621782,1.015625
40.4695623,0.986328125
40.4874012,0.95703125
40.5061107,0.9375
40.5465002,0.9130859375
40.5467781,0.8984375
40.5692267,0.8740234375
40.5892398,0.8544921875
40.6241462,0.8349609375
40.6289581,0.810546875
40.6448778,0.791015625
40.6892011,0.791015625
40.6893981,0.8203125
40.7067183,0.91796875
40.753355,1.0400390625
40.7536683,1.1572265625
40.7701068,1.2744140625
40.8050115,1.3671875
40.8100034,1.4599609375
40.8247496,1.5234375
40.8579719,1.591796875
40.8941144,1.6357421875
40.8944625,1.6748046875
40.9071764,1.6943359375
40.9422515,1.69921875
40.9624573,1.689453125
40.9694197,1.6650390625
40.9857917,1.630859375
41.0335732,1.5966796875
41.033917,1.5625
41.0646273,1.5283203125
41.0648882,1.494140625
41.1095438,1.455078125
41.1098037,1.416015625
41.1298453,1.376953125
41.1641584,1.3427734375
41.1842347,1.3037109375
41.1894375,1.2646484375
41.2062211,1.23046875
41.2425018,1.19140625
41.2464093,1.1572265625
41.2806058,1.1181640625
41.3026549,1.083984375
41.3089304,1.0595703125
41.3447706,1.025390625
41.3493633,0.99609375
41.3846941,0.966796875
41.4049231,0.9326171875
41.4052711,0.91796875
41.4398792,0.8935546875
41.460513,0.87890625
41.4692014,0.849609375
41.5127923,0.8349609375
41.5130796,0.8056640625
41.5484293,0.7861328125
41.548724,0.7666015625
41.5659789,0.7958984375
41.6046144,0.869140625
41.6252869,1.0009765625
41.6271284,1.1181640625
41.6613773,1.2451171875
41.6816043,1.34765625
41.6896439,1.4453125
41.7284279,1.5283203125
41.7287291,1.591796875
41.7466363,1.6455078125
41.782412,1.6845703125
41.7863099,1.708984375
41.8207276,1.71875
41.8419732,1.7236328125
41.8488552,1.708984375
41.8850503,1.6796875
41.8853382,1.640625
41.9090291,1.6064453125
41.9413062,1.5380859375
41.9487655,1.513671875
41.9908811,1.4794921875
41.9912224,1.4501953125
42.0252378,1.416015625
42.029343,1.376953125
42.0670128,1.337890625
42.0891216,1.3037109375
42.0893862,1.2646484375
42.1315933,1.2255859375
42.131906,1.1962890625
42.1473268,1.162109375
42.1935287,1.1279296875
42.1938948,1.0888671875
42.2134682,1.0546875
42.2301103,1.015625
42.2645186,0.986328125
42.2847859,0.9521484375
42.2868227,0.927734375
42.3222781,0.9033203125
42.3424789,0.888671875
42.3475308,0.869140625
42.3816303,0.849609375
42.4038331,0.8349609375
42.4120544,0.810546875
42.4308386,0.7958984375
42.4465907,0.78125
42.4931624,0.810546875
42.493459,0.888671875
42.5130808,1.0205078125
42.5294631,1.1474609375
42.5702077,1.26953125
42.5704232,1.3720703125
42.6053743,1.4697265625
42.6414671,1.54296875
42.6417268,1.62109375
42.6489749,1.6796875
42.6697596,1.71875
42.6878056,1.748046875
42.7336107,1.7626953125
42.7339528,1.7626953125
42.7649883,1.7431640625
42.771466,1.7138671875
42.8104527,1.6796875
42.8409948,1.640625
42.8412545,1.5966796875
42.8484639,1.5625
42.8862253,1.5234375
42.9179793,1.4892578125
42.918187,1.4501953125
42.9310037,1.40625
42.9681054,1.3671875
42.9708747,1.328125
43.0052146,1.2890625
43.0259187,1.25
43.0286601,1.2158203125
43.0639236,1.1767578125
43.0838117,1.142578125
43.0912864,1.0986328125
43.1269578,1.064453125
43.1319082,1.025390625
43.1658721,0.99609375
43.187037,0.95703125
43.1893186,0.927734375
43.2241722,0.8984375
43.243953,0.87890625
43.2521396,0.8544921875
43.2884397,0.8349609375
43.2887523,0.8154296875
43.324441,0.791015625
43.3440568,0.7666015625
43.3482791,0.7470703125
43.3830674,0.7666015625
43.4066569,0.830078125
43.4107178,0.9521484375
43.4304237,1.0791015625
43.4654032,1.2109375
43.4915084,1.318359375
43.4917922,1.4306640625
43.5083727,1.5087890625
43.5419862,1.591796875
43.5623004,1.6455078125
43.5692324,1.6943359375
43.6028968,1.71875
43.625236,1.7431640625
43.6320228,1.7431640625
43.6520839,1.728515625
43.6955547,1.69921875
43.6959964,1.66015625
43.7129876,1.6259765625
43.7291393,1.58203125
43.7496422,1.5478515625
43.7718286,1.513671875
43.8081457,1.474609375
43.8100038,1.435546875
43.8460961,1.4013671875
43.8706662,1.3623046875
43.8738534,1.328125
43.8891077,1.2939453125
43.9335884,1.259765625
43.9339563,1.23046875
43.9538289,1.19140625
43.9712442,1.162109375
44.0133531,1.123046875
44.0135526,1.09375
44.0349833,1.0595703125
44.070357,1.0302734375
44.0706547,0.99609375
44.1049297,0.9765625
44.1343364,0.9521484375
44.1347028,0.9375
44.1523296,0.9130859375
44.1975164,0.8935546875
44.1977229,0.8642578125
44.2126217,0.8544921875
44.2291764,0.8642578125
44.2656168,0.947265625
44.2695649,1.0595703125
44.3078087,1.1669921875
44.3133641,1.2744140625
44.3295202,1.3671875
44.3686809,1.4501953125
44.3704849,1.5185546875
44.4055676,1.5869140625
44.4254604,1.630859375
44.4344976,1.6455078125
44.4493171,1.6455078125
44.4846253,1.669921875
44.5048398,1.6796875
44.5098912,1.669921875
44.5466412,1.650390625
44.5706144,1.62109375
44.5708774,1.5869140625
44.6157946,1.5478515625
44.616138,1.5087890625
44.6372442,1.4697265625
44.651516,1.435546875
44.6866785,1.396484375
44.6907694,1.3623046875
44.7245569,1.3232421875
44.74607,1.2890625
44.7530504,1.25
44.7886495,1.2158203125
44.7889424,1.1767578125
44.8248431,1.142578125
44.8520875,1.1083984375
44.8523876,1.07421875
44.8882526,1.0400390625
44.917857,1.015625
44.9181591,0.986328125
44.9326727,0.95703125
44.9667418,0.927734375
44.9865851,0.8984375
44.9908271,0.87890625
45.0271782,0.8544921875
45.0477506,0.8349609375
45.0520728,0.83984375
45.0900536,0.9033203125
45.1200746,1.0009765625
45.1203275,1.1181640625
45.1304518,1.220703125
45.16695,1.328125
45.1888236,1.4111328125
45.189024,1.4990234375
45.2303257,1.5625
45.2624556,1.611328125
45.2627054,1.6552734375
45.2739615,1.6796875
45.3089715,1.69921875
45.3137834,1.69921875
45.3489603,1.6796875
45.3724626,1.6552734375
45.3727561,1.62109375
45.3923526,1.591796875
45.4345747,1.5625
45.4350937,1.5283203125
45.4697527,1.494140625
45.4742679,1.455078125
45.5084546,1.416015625
45.5286197,1.3720703125
45.5306021,1.3427734375
45.5661219,1.30859375
45.587713,1.2744140625
45.5923874,1.2353515625
45.6286301,1.1962890625
45.6492371,1.162109375
45.6542904,1.123046875
45.6904715,1.0888671875
45.69077,1.0546875
45.7124659,1.025390625
45.7497712,0.9912109375
45.754719,0.9619140625
45.7900796,0.9326171875
45.7920645,0.9130859375
45.8270205,0.888671875
45.8498286,0.8642578125
45.8549544,0.8447265625
45.8725588,0.8203125
45.8938827,0.80078125
45.9296969,0.78125
45.9345688,0.78125
45.9728864,0.8251953125
45.9731542,0.9326171875
46.0090765,1.0546875
46.0338178,1.1865234375
46.0340766,1.2939453125
46.0572675,1.3720703125
46.073049,1.4404296875
46.1161486,1.5380859375
46.1163471,1.6064453125
46.1335454,1.6650390625
46.1779172,1.708984375
46.1781211,1.7431640625
46.1939914,1.7529296875
46.2290413,1.7431640625
46.2588442,1.71875
46.2590984,1.689453125
46.2746092,1.650390625
46.3114585,1.611328125
46.3117392,1.572265625
46.3487479,1.533203125
46.3703203,1.494140625
46.3748705,1.455078125
46.4159436,1.4111328125
46.4165054,1.3720703125
46.4355425,1.3427734375
46.4730907,1.30859375
46.4733776,1.2744140625
46.5196269,1.240234375
46.5201414,1.201171875
46.53354,1.162109375
46.5693269,1.123046875
46.5996384,1.09375
46.5999186,1.0595703125
46.6139471,1.03515625
46.6505286,1.0009765625
46.6558674,0.9814453125
46.6928393,0.947265625
46.6931575,0.927734375
46.7276284,0.8984375
46.7537099,0.87890625
46.7542504,0.859375
46.7713494,0.83984375
46.8173343,0.8203125
46.8176165,0.8056640625
46.8463596,0.8203125
46.8564848,0.87890625
46.8751574,0.986328125
46.8954244,1.103515625
46.9323883,1.2255859375
46.9370949,1.3232421875
46.9581492,1.4208984375
46.9739805,1.4990234375
47.0224595,1.572265625
47.0227765,1.630859375
47.0331788,1.6796875
47.0692016,1.7041015625
47.0898411,1.7333984375
47.0961615,1.728515625
47.1335023,1.71875
47.1619511,1.6943359375
47.1624548,1.650390625
47.1749126,1.611328125
47.2215369,1.572265625
47.22177,1.533203125
47.2352226,1.494140625
47.2844657,1.455078125
47.2846935,1.4111328125
47.3152012,1.3720703125
47.3154291,1.3330078125
47.3333629,1.298828125
47.3771387,1.259765625
47.3774529,1.2255859375
47.4213995,1.1865234375
47.421601,1.15234375
47.4364088,1.11328125
47.4712764,1.0888671875
47.492293,1.0546875
47.4925472,1.025390625
47.5302384,0.99609375
47.5613528,0.966796875
47.5615788,0.9423828125
47.5764886,0.91796875
47.6118279,0.8935546875
47.6162617,0.869140625
47.649708,0.8447265625
47.6701813,0.8203125
47.6726683,0.810546875
47.7063306,0.7861328125
47.7326924,0.7763671875
47.7328918,0.7568359375
47.7730587,0.7763671875
47.7773384,0.859375
47.8262598,0.9765625
47.8265574,1.103515625
47.8379239,1.220703125
47.887625,1.3330078125
47.8878328,1.4208984375
47.8936541,1.513671875
47.9278773,1.5771484375
47.9501549,1.6357421875
47.9571895,1.669921875
47.976499,1.7041015625
48.0129302,1.7138671875
48.0371898,1.71875
48.0375584,1.7041015625
48.0547737,1.6796875
48.0976944,1.6455078125
48.0979762,1.611328125
48.1442001,1.5771484375
48.1445511,1.533203125
48.1586744,1.4892578125
48.1775984,1.4501953125
48.2141207,1.40625
48.2144101,1.3671875
48.2346196,1.3330078125
48.2548929,1.298828125
48.29894,1.2646484375
48.2992472,1.23046875
48.3213414,1.19140625
48.3368635,1.1572265625
48.3582033,1.123046875
48.3733071,1.0888671875
48.4091224,1.0546875
48.4300809,1.0302734375
48.4351045,1.0009765625
48.4813988,0.9765625
48.4818922,0.947265625
48.498862,0.927734375
48.5349746,0.9033203125
48.537516,0.888671875
48.5575552,0.8642578125
48.5917646,0.8203125
48.6117124,0.80078125
48.6145714,0.80078125
48.6492099,0.7861328125
48.6845572,0.7763671875
48.6849765,0.7763671875
48.6979696,0.8203125
48.7333855,0.908203125
48.7377243,1.0400390625
48.7737141,1.1669921875
48.806815,1.26953125
48.8071649,1.376953125
48.8168246,1.4599609375
48.8509828,1.533203125
48.8725525,1.591796875
48.8789542,1.640625
48.9150487,1.669921875
48.9192809,1.6943359375
48.9362361,1.69921875
48.9789113,1.69921875
48.9791201,1.6796875
48.996601,1.66015625
49.0309833,1.6259765625
49.0527983,1.5869140625
49.0584029,1.5576171875
49.0789862,1.513671875
49.0994156,1.4794921875
49.1164075,1.435546875
49.1362125,1.40625
49.1805892,1.3720703125
49.1810576,1.337890625
49.1986661,1.298828125
49.2183245,1.26953125
49.2538002,1.2255859375
49.2585587,1.1962890625
49.2744457,1.1572265625
49.3199739,1.1279296875
49.3203671,1.0986328125
49.3400486,1.0693359375
49.358869,1.03515625
49.3789014,1.0107421875
49.41421,0.986328125
49.4193319,0.95703125
49.4539999,0.9326171875
49.4797636,0.908203125
49.4800888,0.8837890625
49.4975046,0.8642578125
49.5159802,0.859375
49.5555633,0.8447265625
49.5558757,0.830078125
49.5894963,0.810546875
49.6122681,0.7958984375
49.6195086,0.791015625
49.6391186,0.8251953125
49.6557275,0.9033203125
49.6957877,1.0302734375
49.6961608,1.1669921875
49.7441826,1.2744140625
49.7444566,1.3818359375
49.7594446,1.46484375
49.7931222,1.54296875
49.8002847,1.6015625
49.8194885,1.6552734375
49.8374358,1.689453125
49.8821912,1.71875
49.8824094,1.728515625
49.8987021,1.728515625
49.9440804,1.708984375
49.9443952,1.6748046875
49.957874,1.640625
49.9960413,1.6015625
49.9963827,1.5625
50.0337768,1.533203125
50.0355481,1.50390625
50.0712824,1.46484375
50.0921612,1.435546875
50.0966343,1.4013671875
50.1335782,1.3623046875
50.164499,1.328125
50.1649846,1.298828125
50.1791245,1.259765625
50.2001295,1.201171875
50.2170829,1.142578125
50.2546779,1.1279296875
50.2593551,1.103515625
50.2796199,1.083984375
50.3197432,1.0595703125
50.3200666,1.03515625
50.3549737,1.0107421875
50.3833079,0.9814453125
50.3835388,0.9521484375
50.3975763,0.927734375
50.4352466,0.9130859375
50.4396797,0.8935546875
50.4751867,0.87890625
50.4796121,0.859375
50.5001597,0.83984375
50.5359746,0.830078125
50.5414994,0.869140625
50.5564395,0.947265625
50.6002446,1.0693359375
50.6004809,1.1865234375
50.6212619,1.298828125
50.6394987,1.38671875
50.6806569,1.4794921875
50.6980156,1.5576171875
50.7000549,1.611328125
50.7348804,1.66015625
50.7583305,1.6943359375
50.7585957,1.71875
50.7786418,1.728515625
50.8160013,1.728515625
50.8208101,1.708984375
50.8560467,1.6845703125
50.8612086,1.6455078125
50.8962804,1.6015625
50.8964848,1.5625
50.9408598,1.5283203125
50.9411785,1.494140625
50.9699522,1.4599609375
50.9798291,1.4306640625
51.0158719,1.3916015625
51.0212807,1.357421875
51.0594346,1.3232421875
51.0597377,1.2890625
51.1047705,1.25
51.1050709,1.220703125
51.125416,1.1865234375
51.1397728,1.1572265625
51.1593938,1.1279296875
51.1941049,1.0986328125
51.1988188,1.0693359375
51.2339365,1.0400390625
51.2656162,1.0107421875
51.265824,0.9814453125
51.2764415,0.9521484375
51.3123797,0.9326171875
51.343058,0.91796875
51.343389,0.8935546875
51.3615291,0.869140625
51.4051233,0.8447265625
51.4057207,0.8203125
51.4220688,0.8056640625
51.4585768,0.8203125
51.4587779,0.8837890625
51.4798905,0.9912109375
51.5202798,1.1083984375
51.5205887,1.220703125
51.5574159,1.3232421875
51.562457,1.416015625
51.5815728,1.494140625
51.6184135,1.5576171875
51.6211044,1.62109375
51.6391586,1.6552734375
51.6595114,1.689453125
51.6943646,1.708984375
51.6993199,1.71875
51.7456235,1.7041015625
51.7460934,1.6796875
51.7766689,1.6455078125
51.7827185,1.611328125
51.7980785,1.5673828125
51.8335951,1.5380859375
51.8564189,1.4697265625
51.8612741,1.4453125
51.9104626,1.416015625
51.9107215,1.3818359375
51.9214317,1.34765625
51.941516,1.3232421875
51.9763549,1.2841796875
51.996409,1.25
52.0026897,1.2109375
52.0200623,1.1767578125
52.0563244,1.1474609375
52.0605188,1.1181640625
52.0987347,1.09375
52.0989734,1.0595703125
52.1329519,1.03515625
52.1548282,1.005859375
52.1622939,0.9765625
52.1809757,0.947265625
52.1976639,0.9228515625
52.2328604,0.9033203125
52.2530056,0.8837890625
52.2608797,0.8642578125
52.2950955,0.8447265625
52.3169531,0.8251953125
52.3227532,0.8056640625
52.3596897,0.7958984375
52.3600313,0.8056640625
52.3793269,0.8837890625
52.4149403,0.99609375
52.4375886,1.1181640625
52.4404197,1.2255859375
52.4742268,1.3330078125
52.4964984,1.416015625
52.5034339,1.4990234375
52.5194984,1.5576171875
52.5573263,1.611328125
52.5599444,1.650390625
52.5958896,1.689453125
52.62646,1.7138671875
52.6266868,1.708984375
52.6427466,1.69921875
52.6620673,1.669921875
52.6957622,1.640625
52.7165627,1.6064453125
52.7235543,1.572265625
52.7402214,1.533203125
52.7744859,1.4990234375
52.7932051,1.46484375
52.8041597,1.435546875
52.8216606,1.4013671875
52.8592024,1.3720703125
52.8634508,1.3330078125
52.9003506,1.298828125
52.9047615,1.2646484375
52.921341,1.23046875
52.9405206,1.201171875
52.9867508,1.171875
52.9871225,1.142578125
53.0176527,1.11328125
53.0230697,1.083984375
53.0428467,1.0546875
53.0777387,1.025390625
53.0999821,0.99609375
53.1003256,0.9814453125
53.1341823,0.95703125
53.1564993,0.9375
53.1613528,0.9228515625
53.2006999,0.8984375
53.2211833,0.87890625
53.2232776,0.859375
53.2416935,0.8642578125
53.2613565,0.8935546875
53.3096045,0.986328125
53.3099351,1.0888671875
53.3194513,1.201171875
53.3567324,1.2939453125
53.3863836,1.38671875
53.3869407,1.455078125
53.4042697,1.5283203125
53.4208813,1.5771484375
53.4637427,1.630859375
53.4640367,1.66015625
53.4828161,1.6845703125
53.5254643,1.689453125
53.5258207,1.6845703125
53.5586106,1.6650390625
53.5634452,1.630859375
53.5994545,1.5966796875
53.6044228,1.5576171875
53.6396481,1.533203125
53.6399643,1.494140625
53.6756904,1.46484375
53.6956621,1.4306640625
53.7029121,1.4013671875
53.7427875,1.3671875
53.7431338,1.337890625
53.7650552,1.298828125
53.7834154,1.2646484375
53.8017923,1.2255859375
53.8234231,1.201171875
53.8425315,1.1669921875
53.8636438,1.142578125
53.882679,1.1083984375
53.9171593,1.0791015625
53.9381522,1.044921875
53.9456122,1.015625
53.9902268,0.986328125
53.9905043,0.95703125
54.0014856,0.9326171875
54.0354386,0.9130859375
54.0558833,0.8935546875
54.0637342,0.8740234375
54.0843137,0.8544921875
54.1281584,0.830078125
54.1283579,0.8154296875
54.1402328,0.8203125
54.1912214,0.8837890625
54.1914455,0.99609375
54.2041461,1.0986328125
54.2396113,1.2158203125
54.2439631,1.30859375
54.2826249,1.40625
54.2828223,1.4794921875
54.31902,1.552734375
54.3401675,1.6015625
54.3450694,1.6259765625
54.3633118,1.6552734375
54.3989553,1.6943359375
54.4016768,1.7041015625
54.4395058,1.69921875
54.4441607,1.6748046875
54.4813605,1.6455078125
54.4835044,1.6064453125
54.517413,1.572265625
54.53756,1.533203125
54.5431264,1.4892578125
54.5625632,1.455078125
54.6111535,1.4208984375
54.6113653,1.38671875
54.6236972,1.34765625
54.6463703,1.3134765625
54.6647329,1.279296875
54.704016,1.2451171875
54.7044874,1.2109375
54.7361855,1.1767578125
54.7435198,1.1474609375
54.7758823,1.1181640625
54.7975309,1.083984375
54.8044175,1.0595703125
54.838305,1.03515625
54.8604166,1.0009765625
54.8672162,0.9814453125
54.8812042,0.9521484375
54.9167659,0.9326171875
54.9383384,0.908203125
54.9446558,0.8984375
54.9646431,0.9130859375
55.0135344,0.9765625
55.013881,1.0546875
55.0265122,1.15234375
55.042331,1.240234375
55.0775444,1.3330078125
55.1063787,1.4111328125
55.1067198,1.484375
55.1235277,1.54296875
55.1698715,1.5966796875
55.1702504,1.640625
55.2016597,1.66015625
55.2067611,1.6748046875
55.2489417,1.669921875
55.2491449,1.6552734375
55.2642962,1.6259765625
55.2993525,1.5966796875
55.3034959,1.5673828125
55.3398449,1.533203125
55.3714805,1.494140625
55.3718295,1.455078125
55.385198,1.416015625
55.4222561,1.3818359375
55.4224538,1.3427734375
55.4569651,1.3134765625
55.4826403,1.2841796875
55.4829401,1.2451171875
55.526955,1.2158203125
55.5272722,1.1767578125
55.5562373,1.142578125
55.5674524,1.1083984375
55.5864133,1.07421875
55.6058726,1.0400390625
55.6241936,1.0107421875
55.6693189,0.986328125
55.6696737,0.966796875
55.6897908,0.9423828125
55.7048315,0.9228515625
55.7407328,0.8984375
55.7450854,0.8740234375
55.7787941,0.849609375
55.7836301,0.8349609375
55.8185492,0.849609375
55.8240824,0.8935546875
55.8572246,0.986328125
55.8789578,1.0888671875
55.8860772,1.1962890625
55.9328207,1.2841796875
55.9331216,1.376953125
55.9479417,1.4501953125
55.9678303,1.494140625
55.986846,1.5283203125
56.004494,1.5869140625
56.026292,1.630859375
56.0619205,1.6650390625
56.0643998,1.6748046875
56.0996325,1.669921875
56.1215648,1.6552734375
56.1277707,1.62109375
56.1470348,1.5869140625
56.1654336,1.552734375
56.2125895,1.5234375
56.2128242,1.4892578125
56.2261679,1.455078125
56.272873,1.416015625
56.2732117,1.3818359375
56.28691,1.3427734375
56.323572,1.30859375
56.3238902,1.26953125
56.3582425,1.240234375
56.3791744,1.2109375
56.3839185,1.1767578125
56.4204822,1.1474609375
56.4260698,1.1181640625
56.4630663,1.083984375
56.4899605,1.0498046875
56.4902519,1.025390625
56.5025203,0.99609375
56.551716,0.9765625
56.5519212,0.95703125
56.573524,0.9375
56.5874476,0.91796875
56.6313631,0.8935546875
56.6317239,0.87890625
56.6490663,0.87890625
56.6653779,0.927734375
56.6860211,1.015625
56.7047692,1.1181640625
56.7547251,1.220703125
56.7549817,1.318359375
56.7665977,1.396484375
56.7871571,1.474609375
56.8326783,1.533203125
56.8330115,1.591796875
56.8631044,1.630859375
56.8695021,1.6650390625
56.8850137,1.6748046875
56.9215572,1.6845703125
56.9260508,1.669921875
56.9608196,1.650390625
56.9805526,1.6162109375
56.9859968,1.5771484375
57.0200063,1.533203125
57.0407664,1.494140625
57.0433901,1.4501953125
57.0793378,1.4208984375
57.1106436,1.38671875
57.1109157,1.34765625
57.1281294,1.3134765625
57.1480755,1.2744140625
57.1844878,1.240234375
57.1898524,1.201171875
57.2082552,1.1669921875
57.2265835,1.1328125
57.2621338,1.103515625
57.2643013,1.07421875
57.2999139,1.044921875
57.3203929,1.015625
57.3271785,0.9912109375
57.3619107,0.9619140625
57.3827136,0.9375
57.3873495,0.9228515625
57.4222429,0.8935546875
57.424017,0.87890625
57.4589359,0.8544921875
57.4807323,0.849609375
57.4856592,0.87890625
57.5195994,0.95703125
57.5398063,1.0400390625
57.5478737,1.1474609375
57.5656034,1.2353515625
57.6026289,1.3330078125
57.6070615,1.3818359375
57.6262314,1.46484375
57.6677547,1.5283203125
57.6680128,1.5869140625
57.6879634,1.6259765625
57.7235686,1.6650390625
57.7290429,1.6845703125
57.778708,1.6796875
57.7789194,1.6650390625
57.8102783,1.6357421875
57.8105379,1.6015625
57.828219,1.5625
57.8703638,1.5283203125
57.8706948,1.4892578125
57.9169572,1.4501953125
57.917575,1.4111328125
57.9281808,1.3720703125
57.9458554,1.328125
57.9957963,1.298828125
57.9961482,1.2646484375
58.0259563,1.2353515625
58.0286584,1.201171875
58.0636143,1.1669921875
58.0699468,1.1328125
58.1210557,1.103515625
58.1213335,1.0693359375
58.1255225,1.03515625
58.16623,1.0107421875
58.1665449,0.9814453125
58.2040393,0.95703125
58.2083799,0.927734375
58.2438759,0.908203125
58.2493468,0.8837890625
58.2913231,0.869140625
58.2918434,0.8447265625
58.3062018,0.830078125
58.3401459,0.810546875
58.3615516,0.80078125
58.3657999,0.810546875
58.4130162,0.859375
58.4132772,0.9619140625
58.443417,1.064453125
58.4480068,1.171875
58.4705729,1.2646484375
58.5057536,1.328125
58.5368832,1.4111328125
58.537171,1.494140625
58.5475677,1.552734375
58.5968219,1.6064453125
58.5971198,1.640625
58.6081502,1.6650390625
58.6426593,1.669921875
58.6628266,1.66015625
58.669753,1.640625
58.6861427,1.6015625
58.7217163,1.572265625
58.727764,1.533203125
58.7719638,1.4990234375
58.7723355,1.4599609375
58.7936903,1.42578125
58.8110927,1.38671875
58.8449921,1.3525390625
58.8452132,1.30859375
58.8806589,1.279296875
58.9118871,1.240234375
58.9122349,1.2060546875
58.9296504,1.1669921875
58.948934,1.1328125
58.9844538,1.09375
59.0059069,1.064453125
59.0110156,1.03515625
59.0279039,1.0009765625
59.064591,0.9716796875
59.0677351,0.9423828125
59.1147207,0.91796875
59.1149331,0.8935546875
59.1362939,0.869140625
59.1496393,0.849609375
59.1861181,0.830078125
59.1863496,0.810546875
59.2377616,0.7958984375
59.2379757,0.78125
59.2469977,0.7666015625
59.2834868,0.7666015625
59.3159205,0.8056640625
59.3162905,0.9033203125
59.3298729,1.015625
59.3644648,1.1328125
59.3869568,1.2353515625
59.3916446,1.337890625
59.4083743,1.416015625
59.443617,1.494140625
59.4648433,1.552734375
59.4704486,1.611328125
59.5221565,1.6455078125
59.5224277,1.6748046875
59.5307233,1.6796875
59.5668047,1.6748046875
59.5670234,1.6552734375
59.6159384,1.630859375
59.6162378,1.5966796875
59.6292254,1.5625
59.6644783,1.5283203125
59.6854274,1.4892578125
59.6907851,1.4501953125
59.7252093,1.4111328125
59.7463347,1.3720703125
59.7466753,1.3427734375
59.7865726,1.3134765625
59.8175733,1.2841796875
59.817818,1.2548828125
59.83002,1.2255859375
59.8648665,1.19140625
59.8857126,1.1572265625
59.8900801,1.1279296875
59.9079642,1.09375
59.9416663,1.064453125
59.9635373,1.03515625
59.9698124,1.005859375
59.9901153,0.9765625
60.0268375,0.9521484375
60.0310528,0.9228515625
60.0800094,0.888671875
60.080223,0.8642578125
60.091628,0.8349609375
60.1128575,0.7763671875
60.1294995,0.732421875
60.1487152,0.7568359375
60.1881919,0.8251953125
60.1902785,0.9375
60.2270289,1.0546875
60.2318687,1.171875
60.2669889,1.26953125
60.2710603,1.3671875
60.3147114,1.4501953125
60.3149117,1.5087890625
60.3301445,1.5771484375
60.3748008,1.62109375
60.3750606,1.6552734375
60.3923015,1.6748046875
60.4115802,1.6796875
60.4527358,1.6650390625
60.4530178,1.640625
60.4843214,1.6064453125
60.4888877,1.572265625
60.5305304,1.533203125
60.5308076,1.4990234375
60.5775527,1.4599609375
60.577769,1.4208984375
60.6079624,1.3916015625
60.6136276,1.34765625
60.6319711,1.3134765625
60.6491934,1.2744140625
60.699057,1.2451171875
60.6993435,1.2109375
60.7093465,1.1767578125
60.7434007,1.142578125
60.7644699,1.1083984375
60.7712157,1.07421875
60.807434,1.044921875
60.8079106,1.015625
60.8288748,0.9912109375
60.8714244,0.9619140625
60.8717401,0.9375
60.9079638,0.9130859375
60.9126619,0.8935546875
60.9312921,0.869140625
60.9779904,0.83984375
60.9784729,0.8203125
60.9991757,0.7958984375
61.011696,0.78125
61.0465616,0.7861328125
61.0508624,0.849609375
61.0876515,0.9521484375
61.090098,1.07421875
61.1325022,1.1865234375
61.1327136,1.2939453125
61.153363,1.3818359375
61.1870899,1.4697265625
61.1873529,1.533203125
61.2234503,1.6015625
61.2583977,1.6552734375
61.2586511,1.6845703125
61.2714929,1.708984375
61.2926453,1.708984375
61.3302083,1.7041015625
61.3304549,1.669921875
61.3807773,1.640625
61.3811492,1.5966796875
61.4018484,1.5625
61.4107945,1.5234375
61.4492604,1.484375
61.4494667,1.4453125
61.4914916,1.40625
61.5218093,1.3623046875
61.5222904,1.328125
61.5283693,1.2841796875
61.5654107,1.25
61.5848782,1.2158203125
61.5916476,1.1767578125
61.6308076,1.1474609375
61.6311471,1.1083984375
61.6781136,1.07421875
61.6783196,1.0400390625
61.6934516,1.0107421875
61.712936,0.9765625
61.7340048,0.9521484375
61.7516546,0.8935546875
61.7715617,0.8837890625
61.8106118,0.8740234375
61.8108672,0.8740234375
61.8572565,0.8642578125
61.8575195,0.8544921875
61.8893185,0.8447265625
61.8940139,0.8203125
61.9298824,0.830078125
61.9516912,0.87890625
61.9520585,0.986328125
61.9731922,1.0986328125
62.0104153,1.220703125
62.0112185,1.318359375
62.0608486,1.4208984375
62.0610917,1.494140625
62.0747263,1.572265625
62.0934666,1.6259765625
62.1117074,1.6796875
62.1310944,1.7138671875
62.1698406,1.7431640625
62.1744222,1.7431640625
62.1940638,1.748046875
62.2305102,1.71875
62.2354498,1.6845703125
62.2774558,1.6455078125
62.2777715,1.6015625
62.2907977,1.5625
62.3257911,1.5283203125
62.3478817,1.494140625
62.3523189,1.4599609375
62.4019923,1.42578125
62.4022023,1.38671875
62.4128798,1.34765625
62.4479666,1.30859375
62.4521507,1.279296875
62.4726188,1.2451171875
62.5084055,1.2109375
62.5111943,1.181640625
62.5456322,1.1376953125
62.5669669,1.103515625
62.5745954,1.07421875
62.6085184,1.044921875
62.62906,1.0107421875
62.6349977,0.986328125
62.652751,0.95703125
62.6718223,0.9375
62.714988,0.91796875
62.7153335,0.8984375
62.749729,0.869140625
62.7525913,0.859375
62.7876726,0.87890625
62.8083825,0.947265625
62.8111211,1.03515625
62.8443311,1.162109375
62.8660996,1.26953125
62.8729471,1.357421875
62.9165487,1.4404296875
62.9170168,1.5087890625
62.9368982,1.5673828125
62.9554454,1.611328125
62.9984835,1.6455078125
62.9987824,1.6650390625
63.0119188,1.6796875
63.0581984,1.6796875
63.0584144,1.6650390625
63.0737515,1.630859375
63.1236997,1.5966796875
63.1239779,1.5576171875
63.134199,1.5185546875
63.1677578,1.484375
63.1902149,1.4404296875
63.1905766,1.40625
63.2325702,1.3720703125
63.2632847,1.3427734375
63.2636302,1.30859375
63.2751742,1.2744140625
63.3244544,1.240234375
63.3246793,1.2060546875
63.332991,1.171875
63.370218,1.1474609375
63.370653,1.1181640625
63.4083757,1.0986328125
63.4322924,1.0693359375
63.4350607,1.0400390625
63.4713578,1.0107421875
63.4734593,0.9912109375
63.5099465,0.9716796875
63.529455,0.9423828125
63.5353163,0.9228515625
63.5512934,0.8984375
63.5856132,0.8837890625
63.6088968,0.8642578125
63.6166793,0.8544921875
63.634804,0.8740234375
63.6722494,0.9423828125
63.7016029,1.0302734375
63.701895,1.1328125
63.7113388,1.220703125
63.7472658,1.3134765625
63.7806617,1.3916015625
63.7808694,1.46484375
63.7943787,1.5283203125
63.8330503,1.572265625
63.8332609,1.6064453125
63.8719932,1.630859375
63.8949577,1.6552734375
63.8951685,1.650390625
63.9138564,1.6455078125
63.9487836,1.62109375
63.9536667,1.591796875
64.0040782,1.5576171875
64.0043335,1.5234375
64.0242511,1.484375
64.0374828,1.4453125
64.05308,1.4111328125
64.0966291,1.376953125
64.0968314,1.337890625
64.1134038,1.3134765625
64.1500523,1.279296875
64.1759759,1.2451171875
64.1761778,1.2109375
64.2228879,1.171875
64.2230915,1.1376953125
64.2465767,1.103515625
64.2585682,1.0498046875
64.2743286,1.025390625
64.2955604,1.005859375
64.3162894,0.986328125
64.3347523,0.9619140625
64.371325,0.9375
64.4014147,0.9228515625
64.4016178,0.8984375
64.4176742,0.87890625
64.4639065,0.8642578125
64.4641115,0.8349609375
64.4749187,0.8203125
64.4951727,0.8056640625
64.5315395,0.8251953125
64.5581268,0.87890625
64.5584473,0.9814453125
64.6038165,1.083984375
64.604098,1.19140625
64.6162983,1.279296875
64.6343133,1.376953125
64.6839384,1.4501953125
64.6841939,1.5185546875
64.7155388,1.5673828125
64.7158599,1.611328125
64.7618652,1.6357421875
64.7622424,1.66015625
64.7797692,1.66015625
64.795841,1.6455078125
64.8149784,1.6259765625
64.8347255,1.5966796875
64.8808541,1.5673828125
64.8811607,1.533203125
64.8955512,1.50390625
64.94465,1.4697265625
64.9449955,1.435546875
64.9655441,1.4013671875
64.9728473,1.3720703125
65.007399,1.337890625
65.0366521,1.3134765625
65.0372511,1.279296875
65.055551,1.2451171875
65.0917861,1.2158203125
65.0964895,1.1767578125
65.1335994,1.1474609375
65.1380227,1.11328125
65.1754334,1.083984375
65.1757813,1.0546875
65.2133212,1.0302734375
65.2135997,1.005859375
65.2565033,0.9814453125
65.2567525,0.95703125
65.2872985,0.9375
65.2979067,0.9130859375
65.3483982,0.8935546875
65.348609,0.8642578125
65.3533318,0.8544921875
65.3901687,0.8642578125
65.3948859,0.927734375
65.4304428,1.025390625
65.4495523,1.1181640625
65.4564283,1.220703125
65.4916043,1.3037109375
65.5151586,1.3818359375
65.5153541,1.4453125
65.5522317,1.513671875
65.5564646,1.5625
65.5769484,1.6015625
65.6131946,1.6259765625
65.6150383,1.6455078125
65.6480725,1.6455078125
65.668824,1.6357421875
65.6733965,1.611328125
65.7093215,1.5869140625
65.7299194,1.5576171875
65.7367978,1.5234375
65.7862156,1.4892578125
65.7866742,1.4501953125
65.8008546,1.4111328125
65.820226,1.376953125
65.8668032,1.3427734375
65.8670033,1.3037109375
65.8792627,1.2451171875
65.8967351,1.19140625
65.945161,1.1767578125
65.9455576,1.1572265625
65.9565625,1.142578125
66.0078275,1.11328125
66.0081243,1.0888671875
66.019255,1.0546875
66.0558946,1.03515625
66.061165,1.0107421875
66.0753508,0.9765625
66.1140895,0.9521484375
66.1143268,0.9326171875
66.158341,0.9130859375
66.1586159,0.888671875
66.1796659,0.8740234375
66.1989043,0.849609375
66.2417395,0.830078125
66.2420016,0.8203125
66.2619238,0.859375
66.2776556,0.9375
66.2971355,1.0498046875
66.3362047,1.15234375
66.336402,1.25
66.3874195,1.337890625
66.3879091,1.4111328125
66.4083326,1.474609375
66.4149633,1.5283203125
66.4518188,1.5869140625
66.4818671,1.6259765625
66.4821483,1.6552734375
66.4985813,1.6650390625
66.5342802,1.6650390625
66.5597704,1.6455078125
66.559973,1.62109375
66.5748799,1.58203125
66.6103928,1.552734375
66.6390007,1.513671875
66.6392845,1.484375
66.6854217,1.4501953125
66.6856307,1.4208984375
66.6996193,1.38671875
66.7189583,1.3525390625
66.765267,1.318359375
66.7656039,1.2841796875
66.7822807,1.2451171875
66.7959341,1.2158203125
66.831777,1.1865234375
66.8522526,1.162109375
66.8577149,1.1279296875
66.8920765,1.103515625
66.9137381,1.0693359375
66.9202728,1.044921875
66.966041,1.0205078125
66.9663088,0.9912109375
66.9749175,0.9716796875
67.0111591,0.9619140625
67.0333223,0.9375
67.0382946,0.9228515625
67.0854854,0.8984375
67.0860712,0.87890625
67.1067706,0.8544921875
67.1188912,0.8740234375
67.136283,0.9228515625
67.1705653,1.015625
67.1922351,1.1083984375
67.1995569,1.2158203125
67.2178545,1.298828125
67.2537948,1.38671875
67.2853771,1.455078125
67.2857932,1.5234375
67.2977888,1.5673828125
67.3168163,1.62109375
67.3597886,1.6552734375
67.3599912,1.669921875
67.3796292,1.6796875
67.3989132,1.669921875
67.4496351,1.6455078125
67.4499065,1.611328125
67.4615797,1.5771484375
67.4779555,1.54296875
67.5282037,1.5087890625
67.5284834,1.4453125
67.5374929,1.416015625
67.5754461,1.38671875
67.5776419,1.357421875
67.6151339,1.3232421875
67.6346539,1.2890625
67.6398766,1.2548828125
67.6822393,1.220703125
67.68263,1.1865234375
67.6972525,1.15234375
67.7349668,1.1279296875
67.7371984,1.0986328125
67.7728251,1.07421875
67.8063661,1.044921875
67.8065652,1.0205078125
67.8190673,0.9912109375
67.8583678,0.966796875
67.8585848,0.9375
67.8765831,0.9228515625
67.9098874,0.8984375
67.931151,0.8740234375
67.9375783,0.849609375
67.9730037,0.849609375
67.9940713,0.869140625
68.0008763,0.9228515625
68.0354488,1.0205078125
68.0357562,1.11328125
68.0899882,1.2158203125
68.0905608,1.298828125
68.0990699,1.3818359375
68.1347992,1.4501953125
68.1683279,1.513671875
68.1685284,1.5576171875
68.1824019,1.5966796875
68.1986801,1.62109375
68.2450275,1.6455078125
68.2452305,1.650390625
68.257443,1.640625
68.292239,1.62109375
68.3129373,1.5869140625
68.3192356,1.5478515625
68.3537687,1.5087890625
68.3743327,1.474609375
68.3811921,1.435546875
68.4164426,1.396484375
68.4375455,1.357421875
68.4377527,1.3232421875
68.4728095,1.2890625
68.4954922,1.259765625
68.4996513,1.2255859375
68.5209996,1.1865234375
68.5415595,1.15234375
68.5763862,1.1181640625
68.5785082,1.083984375
68.6201707,1.0595703125
68.6203713,1.03515625
68.6407969,1.0009765625
68.6771732,0.9765625
68.6825643,0.9423828125
68.7252961,0.9228515625
68.725583,0.8984375
68.7416781,0.87890625
68.7761284,0.859375
68.7763879,0.8447265625
68.8123936,0.8251953125
68.8381044,0.810546875
68.8383719,0.7861328125
68.8868042,0.791015625
68.8870811,0.8203125
68.9178603,0.9033203125
68.9221429,1.015625
68.9404465,1.123046875
68.9598957,1.2353515625
68.9806374,1.328125
69.0147649,1.4208984375
69.0203052,1.494140625
69.0573264,1.5625
69.0627003,1.6064453125
69.0979386,1.650390625
69.0987122,1.669921875
69.1200908,1.6943359375
69.1677249,1.689453125
69.1680713,1.6748046875
69.1808022,1.6455078125
69.2278717,1.611328125
69.2283258,1.572265625
69.2411276,1.54296875
69.2758838,1.50390625
69.3072264,1.46484375
69.307503,1.42578125
69.320985,1.38671875
69.3568099,1.3525390625
69.362066,1.3134765625
69.3818013,1.2841796875
69.4013026,1.25
69.4310837,1.2158203125
69.4420574,1.1767578125
69.480099,1.142578125
69.4803254,1.103515625
69.5236747,1.07421875
69.5239015,1.044921875
69.5414578,1.0205078125
69.5884297,0.9912109375
69.5887857,0.9619140625
69.6017432,0.9326171875
69.6509668,0.8984375
69.6514023,0.87890625
69.6614421,0.859375
69.698444,0.83984375
69.6986489,0.8154296875
69.7454878,0.80078125
69.7457325,0.791015625
69.7750749,0.83984375
69.7822898,0.9130859375
69.8188082,1.0302734375
69.8193042,1.1328125
69.8674124,1.240234375
69.8676499,1.328125
69.8811607,1.4208984375
69.92911,1.494140625
69.9293139,1.5478515625
69.9422244,1.5966796875
69.9800451,1.630859375
69.9819471,1.650390625
70.003878,1.6650390625
70.0480269,1.640625
70.0482898,1.630859375
70.0613754,1.611328125
70.0982519,1.58203125
70.1024295,1.5478515625
70.1358407,1.5087890625
70.1570521,1.474609375
70.1636792,1.435546875
70.2121206,1.396484375
70.2124483,1.3623046875
70.2217645,1.3232421875
70.2583139,1.2890625
70.2631222,1.2548828125
70.2978096,1.23046875
70.3027842,1.19140625
70.3503982,1.162109375
70.3506048,1.123046875
70.3652458,1.0888671875
70.3811501,1.0498046875
70.4014731,1.0205078125
70.4437685,0.986328125
70.4440313,0.95703125
70.4786507,0.9228515625
70.4811989,0.8935546875
70.5191409,0.859375
70.5416667,0.8447265625
70.5418909,0.8203125
70.5616783,0.7958984375
70.5975393,0.78125
70.5999264,0.76171875
70.6332954,0.7470703125
70.6538086,0.7275390625
70.6623811,0.7373046875
70.7001977,0.80078125
70.7044932,0.9130859375
70.7208698,1.0302734375
70.7571257,1.1572265625
70.7617602,1.2646484375
70.8000809,1.3671875
70.8031608,1.4453125
70.8386018,1.5185546875
70.8602348,1.58203125
70.8647112,1.6162109375
70.9096268,1.6455078125
70.9099688,1.66015625
70.9242834,1.6650390625
70.9398872,1.6552734375
70.9742716,1.630859375
70.9955177,1.6015625
71.0047136,1.5625
71.0231834,1.5283203125
71.0582832,1.494140625
71.080734,1.4599609375
71.0848997,1.4208984375
71.1010166,1.3818359375
71.136655,1.34765625
71.1416288,1.30859375
71.1756672,1.279296875
71.1955301,1.2451171875
71.204651,1.2060546875
71.2514154,1.171875
71.2516159,1.1376953125
71.2658359,1.103515625
71.2813236,1.064453125
71.3047957,1.0400390625
71.3224298,1.0107421875
71.3633701,0.9814453125
71.3637098,0.9521484375
71.4104611,0.927734375
71.4108045,0.9033203125
71.430561,0.888671875
71.4399828,0.869140625
71.4752565,0.849609375
71.5003755,0.83984375
71.5032028,0.8203125
71.5471435,0.8056640625
71.5474242,0.7861328125
71.5641546,0.78125
71.613517,0.7861328125
71.6138303,0.8544921875
71.6264375,0.9521484375
71.6467395,1.0546875
71.6618631,1.142578125
71.7001912,1.26953125
71.7023355,1.3720703125
71.7369028,1.46484375
71.7570613,1.533203125
71.764097,1.5966796875
71.8000053,1.6357421875
71.8278768,1.669921875
71.8282269,1.6845703125
71.8427239,1.6845703125
71.8775209,1.6748046875
71.9015675,1.650390625
71.9019175,1.6162109375
71.9487011,1.58203125
71.9489091,1.54296875
71.9697596,1.50390625
71.9878543,1.46484375
72.0032148,1.42578125
72.022744,1.3916015625
72.0436193,1.357421875
72.0801403,1.3330078125
72.0829645,1.298828125
72.1171491,1.2646484375
72.1379005,1.2353515625
72.1447463,1.1962890625
72.1813448,1.162109375
72.1815543,1.123046875
72.2166489,1.09375
72.2371784,1.0595703125
72.2446345,1.0302734375
72.2790483,0.99609375
72.315378,0.966796875
72.3156304,0.9375
72.3271798,0.91796875
72.3432742,0.888671875
72.3639879,0.8740234375
72.4043921,0.8544921875
72.4046663,0.83984375
72.4514184,0.8154296875
72.451865,0.80078125
72.4657144,0.7861328125
72.5068278,0.80078125
72.5071195,0.8740234375
72.528132,0.9814453125
72.5471547,1.0986328125
72.5644647,1.2109375
72.584938,1.318359375
72.6220466,1.4111328125
72.6267969,1.4892578125
72.6449405,1.552734375
72.6834908,1.6015625
72.7053574,1.640625
72.7056192,1.6650390625
72.7242117,1.6796875
72.7622591,1.6845703125
72.7625974,1.6748046875
72.8073129,1.650390625
72.8075473,1.6162109375
72.8282214,1.58203125
72.8464585,1.5478515625
72.8662819,1.5087890625
72.9164729,1.4697265625
72.916807,1.4306640625
72.9234613,1.396484375
72.958692,1.3623046875
72.9798013,1.328125
72.9841585,1.2890625
73.0187119,1.2548828125
73.0395693,1.2158203125
73.0460357,1.181640625
73.0635284,1.142578125
73.1032637,1.123046875
73.1035404,1.09375
73.1393433,1.064453125
73.1583121,1.03515625
73.164531,1.0009765625
73.2028564,0.9716796875
73.2058192,0.9375
73.2515521,0.9130859375
73.2517682,0.87890625
73.268967,0.859375
73.2845356,0.8056640625
73.329221,0.791015625
73.3295125,0.7763671875
73.3488836,0.7666015625
73.3666681,0.7470703125
73.4080465,0.732421875
73.4083124,0.7373046875
73.4539351,0.7763671875
73.4544422,0.8837890625
73.4642806,1.005859375
73.5007773,1.142578125
73.504941,1.259765625
73.5405628,1.3623046875
73.5621352,1.4453125
73.5666122,1.5185546875
73.6097374,1.5771484375
73.6100936,1.630859375
73.6245649,1.66015625
73.6704415,1.6845703125
73.6707973,1.6943359375
73.6844337,1.6845703125
73.7208086,1.6650390625
73.7483298,1.640625
73.7485306,1.6064453125
73.7681296,1.5625
73.8114368,1.5283203125
73.8117875,1.4892578125
73.8243442,1.455078125
73.8588276,1.4208984375
73.8796683,1.3916015625
73.8867771,1.3525390625
73.9366274,1.318359375
73.9369408,1.279296875
73.9481132,1.2451171875
73.9648524,1.2060546875
73.9998385,1.1767578125
74.0048808,1.1474609375
74.0426878,1.11328125
74.0467316,1.083984375
74.0897289,1.0498046875
74.089968,1.0205078125
74.1367447,0.99609375
74.1370994,0.9765625
74.1475996,0.9521484375
74.1845492,0.908203125
74.1847576,0.888671875
74.2170234,0.8837890625
74.2449862,0.869140625
74.2468428,0.859375
74.2820083,0.83984375
74.3018618,0.8251953125
74.3068586,0.830078125
74.342337,0.8837890625
74.3617597,0.9716796875
74.3671551,1.0986328125
74.3876375,1.220703125
74.4060754,1.3232421875
74.4479626,1.4208984375
74.4483035,1.4990234375
74.4785444,1.5673828125
74.4895532,1.6259765625
74.53945,1.669921875
74.5396987,1.6943359375
74.5475781,1.71875
74.5652682,1.71875
74.6016412,1.708984375
74.6212193,1.6845703125
74.6262186,1.6552734375
74.6635526,1.6162109375
74.6685436,1.5771484375
74.7104877,1.54296875
74.7108543,1.4990234375
74.7413133,1.46484375
74.74681,1.42578125
74.7858592,1.396484375
74.7861774,1.3525390625
74.8214921,1.3134765625
74.8420402,1.2744140625
74.8468864,1.240234375
74.8826204,1.2060546875
74.8878686,1.1767578125
74.9071874,1.142578125
74.9259501,1.1083984375
74.9617972,1.07421875
74.9897648,1.0400390625
74.9900403,1.005859375
75.0372922,0.9765625
75.0376423,0.947265625
75.0498937,0.91796875
75.0847491,0.888671875
75.0849826,0.8642578125
75.1049869,0.8447265625
75.1435097,0.8203125
75.1634364,0.810546875
75.1676353,0.8056640625
75.2009773,0.8544921875
75.2206508,0.9375
75.2291583,1.0546875
75.2458532,1.162109375
75.2820648,1.279296875
75.2867396,1.3720703125
75.3313817,1.46484375
75.3316774,1.54296875
75.3479841,1.5966796875
75.3932633,1.650390625
75.3936484,1.6796875
75.422093,1.7041015625
75.4271475,1.7138671875
75.4697581,1.7138671875
75.4700381,1.6943359375
75.4871529,1.669921875
75.5207752,1.6357421875
75.5429843,1.6015625
75.5499957,1.5625
75.5858243,1.5234375
75.5861109,1.484375
75.6259804,1.4501953125
75.6262573,1.416015625
75.6635922,1.3916015625
75.688733,1.357421875
75.6890352,1.3232421875
75.7330447,1.2890625
75.7333572,1.2548828125
75.7479605,1.220703125
75.7689979,1.1865234375
75.8123649,1.1279296875
75.8128256,1.0791015625
75.8449208,1.0693359375
75.8497235,1.0498046875
75.8887259,1.03515625
75.8890776,1.0107421875
75.921098,0.99609375
75.9431233,0.9716796875
75.9515576,0.947265625
75.9988402,0.927734375
75.999086,0.9033203125
76.0089669,0.888671875
76.0435925,0.869140625
76.0487982,0.8544921875
76.0830913,0.8544921875
76.1031019,0.8984375
76.1111912,0.9765625
76.1453378,1.0888671875
76.1456791,1.19140625
76.1798462,1.30859375
76.2002332,1.4013671875
76.2072594,1.4990234375
76.2432155,1.572265625
76.2629735,1.6357421875
76.2688777,1.6845703125
76.3045512,1.728515625
76.3249683,1.748046875
76.3268101,1.7529296875
76.3620847,1.7578125
76.367205,1.7333984375
76.4042428,1.7041015625
76.426105,1.6650390625
76.4301519,1.6259765625
76.4654032,1.58203125
76.4710564,1.54296875
76.4866593,1.494140625
76.5233522,1.4599609375
76.5294693,1.4208984375
76.5740279,1.38671875
76.5742286,1.34765625
76.5892902,1.30859375
76.6228386,1.26953125
76.6423592,1.2255859375
76.6512868,1.19140625
76.6999614,1.15234375
76.7003388,1.1181640625
76.7199302,1.083984375
76.7267701,1.0546875
76.7619389,1.025390625
76.7824364,1.0009765625
76.7913146,0.966796875
76.8391308,0.9423828125
76.8393998,0.9130859375
76.8525281,0.888671875
76.8677521,0.8642578125
76.9031769,0.8447265625
76.922474,0.8251953125
76.9301516,0.8154296875
76.9786026,0.80078125
76.9788775,0.791015625
76.9904611,0.8203125
77.0264225,0.8935546875
77.0458463,1.005859375
77.04768,1.1181640625
77.0858669,1.2353515625
77.1078275,1.3330078125
77.1080963,1.42578125
77.1461704,1.50390625
77.1511493,1.5673828125
77.1701476,1.6162109375
77.2111114,1.66015625
77.2117599,1.689453125
77.2315828,1.708984375
77.248896,1.7138671875
77.2832228,1.69921875
77.3033784,1.669921875
77.3112862,1.6357421875
77.3447668,1.6015625
77.3657548,1.5576171875
77.3708689,1.5185546875
77.3874988,1.4794921875
77.4281627,1.4453125
77.4283898,1.376953125
77.4761902,1.357421875
77.4765464,1.328125
77.5073031,1.298828125
77.5121621,1.2646484375
77.5332376,1.23046875
77.5823039,1.1962890625
77.5825646,1.171875
77.5922683,1.1376953125
77.6098028,1.103515625
77.6452272,1.07421875
77.6783626,1.044921875
77.6786678,1.0205078125
77.6918699,0.9912109375
77.7139206,0.9716796875
77.731488,0.947265625
77.7675409,0.9228515625
77.7677407,0.8984375
77.8023725,0.87890625
77.8226441,0.859375
77.8309361,0.8447265625
77.8658938,0.8447265625
77.8697208,0.8984375
77.9097346,0.9912109375
77.9320917,1.0888671875
77.9323943,1.201171875
77.9505642,1.2939453125
77.9689119,1.3916015625
78.0188234,1.4697265625
78.0191829,1.54296875
78.0496054,1.5966796875
78.0498837,1.640625
78.0964996,1.669921875
78.0967949,1.6943359375
78.1260049,1.6943359375
78.1290941,1.689453125
78.1728761,1.669921875
78.1730798,1.6357421875
78.1936953,1.5966796875
78.2286985,1.572265625
78.2330317,1.5380859375
78.2686741,1.50390625
78.2729658,1.46484375
78.3131678,1.4306640625
78.3137201,1.3916015625
78.3307356,1.3525390625
78.366751,1.3232421875
78.3719091,1.2890625
78.3916475,1.25
78.4268617,1.2109375
78.4307803,1.1767578125
78.4547814,1.142578125
78.4943125,1.11328125
78.4945177,1.0791015625
78.5101111,1.0546875
78.5446311,1.0302734375
78.5748919,1.0009765625
78.5751374,0.9765625
78.5941016,0.947265625
78.6138354,0.927734375
78.6490031,0.9033203125
78.6540485,0.8837890625
78.6688508,0.859375
78.7026972,0.8447265625
78.7237416,0.8251953125
78.7314624,0.8154296875
78.7536223,0.8251953125
78.7903553,0.888671875
78.7928257,0.9814453125
78.8369212,1.0986328125
78.8371486,1.1962890625
78.8498038,1.30859375
78.8717979,1.4013671875
78.9074047,1.474609375
78.9126466,1.5478515625
78.9495179,1.6064453125
78.9548187,1.650390625
78.9743086,1.6796875
79.0112774,1.7041015625
79.0115273,1.7041015625
79.0460279,1.6943359375
79.0667544,1.669921875
79.0712021,1.640625
79.1187089,1.6015625
79.1190007,1.5625
79.1322515,1.5234375
79.1802741,1.4794921875
79.1805674,1.4453125
79.2013632,1.40625
79.2161762,1.3623046875
79.2307951,1.328125
79.2526275,1.298828125
79.2887489,1.2646484375
79.2933284,1.2353515625
79.3304944,1.201171875
79.3352861,1.1669921875
79.3713936,1.1328125
79.3761582,1.103515625
79.3914413,1.064453125
79.4256694,1.0400390625
79.4464653,1.015625
79.4513571,0.9912109375
79.488804,0.9619140625
79.4929761,0.947265625
79.5146335,0.9326171875
79.5499481,0.908203125
79.5545183,0.888671875
79.5697762,0.8642578125
79.6082022,0.849609375
79.6297829,0.830078125
79.6356816,0.830078125
79.6539797,0.859375
79.7017652,0.9375
79.7020364,1.0400390625
79.7168572,1.15234375
79.7305701,1.2548828125
79.765658,1.3525390625
79.7869173,1.435546875
79.7937736,1.5087890625
79.8293252,1.5771484375
79.8335783,1.6162109375
79.8680974,1.6552734375
79.8894834,1.669921875
79.895874,1.6845703125
79.9157421,1.669921875
79.9526675,1.6259765625
79.9528757,1.6015625
79.9974131,1.58203125
79.9977225,1.552734375
80.0149262,1.5283203125
80.0522351,1.494140625
80.0525577,1.4599609375
80.0941202,1.42578125
80.1251999,1.3916015625
80.125482,1.3525390625
80.1330665,1.328125
80.153328,1.298828125
80.1723333,1.259765625
80.1934532,1.2255859375
80.2319187,1.19140625
80.2523455,1.1572265625
80.2553462,1.1279296875
80.2898272,1.103515625
80.3119541,1.0791015625
80.3121569,1.0546875
80.3478194,1.03515625
80.3675818,1.015625
80.3734553,0.99609375
80.407399,0.9765625
80.4284769,0.9521484375
80.4358037,0.9326171875
80.473203,0.91796875
80.4734281,0.8984375
80.5095641,0.927734375
80.514349,0.986328125
80.5334103,1.0888671875
80.5676229,1.1767578125
80.5871993,1.2744140625
80.5945922,1.3525390625
80.6337183,1.4306640625
80.6340133,1.494140625
80.6539072,1.5576171875
80.6977921,1.6064453125
80.698004,1.6455078125
80.714288,1.669921875
80.7587623,1.6845703125
80.7589907,1.6796875
80.7931619,1.669921875
80.7950721,1.6455078125
80.8311104,1.6064453125
80.8350317,1.572265625
80.8542825,1.5380859375
80.8908635,1.5087890625
80.8957378,1.474609375
80.9463392,1.4453125
80.9466855,1.40625
80.956636,1.3720703125
80.9929006,1.337890625
80.9975112,1.30859375
81.0144298,1.26953125
81.0545302,1.25
81.0548609,1.2158203125
81.075444,1.19140625
81.1160725,1.1669921875
81.1162756,1.1376953125
81.1624722,1.1083984375
81.1626714,1.083984375
81.1779221,1.0595703125
81.1940446,1.025390625
81.2409508,1.0107421875
81.2414453,0.9912109375
81.2534416,0.9765625
81.2897128,0.9521484375
81.3076649,0.9375
81.3159846,0.9130859375
81.3521971,0.8935546875
81.3524108,0.888671875
81.3816412,0.9228515625
81.3934163,0.9912109375
81.4283043,1.09375
81.4500328,1.19140625
81.4561529,1.2744140625
81.4772857,1.357421875
81.5121197,1.42578125
81.5162986,1.4892578125
81.5378732,1.5380859375
81.5575947,1.5576171875
81.5736876,1.5673828125
81.6142217,1.6064453125
81.6145644,1.6259765625
81.6480686,1.630859375
81.6686007,1.6162109375
81.6754208,1.5966796875
81.7116611,1.5673828125
81.7163448,1.533203125
81.7519175,1.50390625
81.7777294,1.4697265625
81.7779739,1.435546875
81.795316,1.40625
81.8395783,1.3818359375
81.8399014,1.34765625
81.859967,1.3134765625
81.8758462,1.2841796875
81.9110156,1.25
81.934613,1.2158203125
81.9348874,1.19140625
81.9809997,1.162109375
81.981202,1.1376953125
81.9965321,1.1083984375
82.042256,1.083984375
82.0427703,1.0546875
82.0596542,1.03515625
82.0790545,1.0107421875
82.0938671,0.986328125
82.1343228,0.9716796875
82.1346277,0.95703125
82.1546089,0.9423828125
82.1899928,0.9228515625
82.2104276,0.9033203125
82.216401,0.8837890625
82.2594463,0.8837890625
82.2599826,0.9228515625
82.2900091,1.005859375
82.2942824,1.09375
82.3307603,1.201171875
82.3524118,1.2890625
82.3570192,1.3671875
82.3984481,1.4501953125
82.3987289,1.4990234375
82.4181534,1.552734375
82.4624267,1.58203125
82.4627461,1.611328125
82.4942831,1.62109375
82.4945928,1.630859375
82.5395553,1.62109375
82.5398872,1.6015625
82.5608306,1.572265625
82.5797174,1.54296875
82.5988183,1.5087890625
82.6388374,1.474609375
82.639096,1.4453125
82.654683,1.416015625
82.6999236,1.38671875
82.7002363,1.3623046875
82.7181137,1.3330078125
82.7381552,1.298828125
82.7580027,1.26953125
82.8079826,1.240234375
82.8083887,1.2060546875
82.8153828,1.1767578125
82.8365478,1.1572265625
82.8711156,1.1328125
82.8765131,1.1083984375
82.911277,1.083984375
82.9328806,1.0546875
82.9400234,1.025390625
82.9584663,1.005859375
82.9751015,0.9765625
83.0118733,0.9521484375
83.016183,0.9423828125
83.067586,0.91796875
83.0679067,0.8984375
83.0767301,0.8740234375
83.1159587,0.859375
83.1162282,0.849609375
83.1607373,0.8837890625
83.1609822,0.9521484375
83.1912047,1.0546875
83.1957404,1.1181640625
83.2311283,1.2255859375
83.2361951,1.30859375
83.2856148,1.396484375
83.2861292,1.455078125
83.3155394,1.513671875
83.3179973,1.552734375
83.3529951,1.5966796875
83.374195,1.62109375
83.3763829,1.630859375
83.4096962,1.630859375
83.4310105,1.62109375
83.4373903,1.5966796875
83.4859038,1.5673828125
83.4863155,1.5380859375
83.4997812,1.50390625
83.5214205,1.4697265625
83.5364125,1.435546875
83.5796751,1.4111328125
83.5798837,1.376953125
83.597438,1.3525390625
83.642373,1.318359375
83.6426726,1.2890625
83.6710626,1.259765625
83.6797121,1.2255859375
83.7146976,1.19140625
83.7149577,1.1572265625
83.7491451,1.1328125
83.771599,1.103515625
83.7786575,1.07421875
83.7997323,1.0498046875
83.8210377,1.025390625
83.8386427,0.99609375
83.8747681,0.9765625
83.8987476,0.9521484375
83.8992363,0.9326171875
83.9175836,0.9130859375
83.9599215,0.8984375
83.9601251,0.87890625
83.9786832,0.8642578125
84.013882,0.849609375
84.0392967,0.8251953125
84.039556,0.8154296875
84.0624556,0.8056640625
84.0813631,0.8203125
84.0968414,0.8984375
84.1464648,1.015625
84.1467256,1.123046875
84.1599749,1.23046875
84.1944475,1.3134765625
84.1988569,1.396484375
84.2349493,1.455078125
84.2560974,1.513671875
84.2564054,1.552734375
84.3019076,1.5869140625
84.3026688,1.62109375
84.3239635,1.630859375
84.3395704,1.6259765625
84.3809663,1.6162109375
84.38132,1.6064453125
84.4162194,1.5771484375
84.4203382,1.552734375
84.4375124,1.5185546875
84.4753367,1.4892578125
84.4756904,1.4599609375
84.5216266,1.435546875
84.5220871,1.396484375
84.5415375,1.3671875
84.5779425,1.328125
84.5782583,1.298828125
84.5964943,1.259765625
84.6321227,1.2353515625
84.662679,1.2060546875
84.6628785,1.1767578125
84.6801162,1.142578125
84.700213,1.11328125
84.7196567,1.083984375
84.7409654,1.0498046875
84.7769568,1.025390625
84.7773038,0.9912109375
84.8146379,0.9716796875
84.8201107,0.947265625
84.8400926,0.9228515625
84.8581387,0.9033203125
84.8958917,0.8837890625
84.9159509,0.8642578125
84.9205653,0.83984375
84.9561295,0.830078125
84.991292,0.8056640625
84.9915834,0.7861328125
84.9985526,0.771484375
85.0190208,0.80078125
85.0694014,0.869140625
85.0697407,0.9814453125
85.0810113,1.0888671875
85.1254741,1.1962890625
85.1257803,1.279296875
85.1430978,1.3720703125
85.1584864,1.435546875
85.1791891,1.50390625
85.2193987,1.552734375
85.2196087,1.591796875
85.2652183,1.611328125
85.2655082,1.6357421875
85.2858612,1.630859375
85.3017421,1.611328125
85.3210676,1.5869140625
85.3387142,1.5576171875
85.3594957,1.5283203125
85.4061072,1.4990234375
85.406462,1.474609375
85.4192256,1.4453125
85.4544095,1.4111328125
85.4762267,1.3818359375
85.4836647,1.3525390625
85.4971515,1.318359375
85.5182825,1.2939453125
85.563735,1.2646484375
85.5640762,1.240234375
85.5785058,1.2109375
85.614405,1.181640625
85.6353534,1.15234375
85.642807,1.123046875
85.6781449,1.0986328125
85.6814164,1.064453125
85.7011033,1.015625
85.7181589,0.966796875
85.7573068,0.9619140625
85.7604278,0.947265625
85.7813611,0.9423828125
85.8247968,0.927734375
85.8249961,0.91796875
85.8414326,0.8984375
85.8777179,0.8837890625
85.9089303,0.8642578125
85.9091896,0.869140625
85.9201184,0.9033203125
85.9596036,0.966796875
85.9598086,1.0693359375
86.0065412,1.162109375
86.0067658,1.259765625
86.036724,1.337890625
86.041249,1.4208984375
86.0588165,1.484375
86.0959236,1.5478515625
86.1009761,1.591796875
86.1366145,1.6357421875
86.1396333,1.6552734375
86.176029,1.669921875
86.2087268,1.66015625
86.2090701,1.6455078125
86.2227812,1.62109375
86.2399921,1.5869140625
86.2863769,1.552734375
86.2866398,1.5234375
86.3077322,1.494140625
86.3224909,1.455078125
86.3401821,1.4208984375
86.3789581,1.38671875
86.3833212,1.3525390625
86.4004518,1.3232421875
86.4404899,1.298828125
86.4408067,1.2744140625
86.4880249,1.2451171875
86.4882987,1.2158203125
86.5016165,1.1865234375
86.5406508,1.15234375
86.542417,1.123046875
86.5756174,1.0888671875
86.5971068,1.0595703125
86.6042264,1.025390625
86.6199409,1.0009765625
86.6655355,0.9765625
86.6658823,0.9521484375
86.6967491,0.9326171875
86.7013407,0.9130859375
86.7442044,0.8984375
86.7444815,0.869140625
86.7724428,0.849609375
86.7796805,0.830078125
86.8197268,0.8349609375
86.8199259,0.8740234375
86.8420731,0.966796875
86.8900495,1.0791015625
86.890367,1.1767578125
86.9201155,1.2744140625
86.9222961,1.3623046875
86.9590368,1.4453125
86.9814291,1.5087890625
86.9817803,1.572265625
87.0168626,1.6162109375
87.021146,1.6552734375
87.0577521,1.6748046875
87.0789823,1.6845703125
87.0837,1.669921875
87.1196597,1.6552734375
87.1200671,1.630859375
87.1577665,1.6015625
87.1892792,1.5673828125
87.1896309,1.54296875
87.2014418,1.5087890625
87.2396176,1.474609375
87.2698251,1.435546875
87.2703144,1.4013671875
87.2827035,1.3671875
87.3015265,1.3330078125
87.347169,1.3037109375
87.3477011,1.2451171875
87.3608878,1.2255859375
87.3964233,1.1962890625
87.4171326,1.171875
87.4215918,1.142578125
87.4573341,1.123046875
87.4772473,1.09375
87.4838233,1.0693359375
87.5189193,1.044921875
87.5208565,1.015625
87.5564099,0.99609375
87.5803132,0.9765625
87.5831846,0.95703125
87.619792,0.9326171875
87.6248768,0.91796875
87.6442179,0.8935546875
87.6882925,0.869140625
87.688612,0.849609375
87.7001245,0.859375
87.7363366,0.8984375
87.75816,0.986328125
87.7630435,1.0791015625
87.7985606,1.1865234375
87.8036436,1.26953125
87.8374093,1.357421875
87.8578959,1.435546875
87.8601706,1.494140625
87.8957309,1.552734375
87.9157918,1.5966796875
87.9205195,1.630859375
87.9543733,1.650390625
87.9747176,1.66015625
87.983405,1.650390625
88.0198766,1.630859375
88.0201377,1.6015625
88.064421,1.572265625
88.0648924,1.54296875
88.0852414,1.5087890625
88.1012166,1.474609375
88.1350683,1.4453125
88.1563003,1.416015625
88.1661452,1.3818359375
88.1868101,1.34765625
88.2361406,1.3134765625
88.2364974,1.279296875
88.2420132,1.2451171875
88.282498,1.2158203125
88.3112472,1.19140625
88.311555,1.162109375
88.3246863,1.1328125
88.3734988,1.103515625
88.3740549,1.07421875
88.3857294,1.0498046875
88.4040814,1.025390625
88.4246831,1.0009765625
88.4426453,0.9765625
88.4808394,0.966796875
88.4833085,0.95703125
88.5176003,0.9375
88.53779,0.9228515625
88.5445553,0.9033203125
88.5782825,0.8837890625
88.5989063,0.8740234375
88.6016457,0.9033203125
88.6369642,0.966796875
88.6684379,1.0595703125
88.6687917,1.15234375
88.6829911,1.25
88.725293,1.3330078125
88.725598,1.416015625
88.745248,1.4794921875
88.7798851,1.5478515625
88.7803982,1.6015625
88.818882,1.640625
88.8518247,1.669921875
88.8520298,1.6796875
88.8645244,1.6796875
88.9132696,1.6650390625
88.9135328,1.640625
88.9343906,1.611328125
88.9427631,1.5869140625
88.9800229,1.552734375
88.9847162,1.5283203125
89.0225345,1.494140625
89.0227386,1.46484375
89.0686107,1.4306640625
89.0689122,1.396484375
89.0897423,1.3623046875
89.1072487,1.3330078125
89.1274209,1.298828125
89.1432602,1.2646484375
89.1794885,1.240234375
89.1866574,1.2109375
89.2053031,1.1865234375
89.2396353,1.1572265625
89.2442698,1.1328125
89.2781482,1.103515625
89.2988308,1.0791015625
89.3014741,1.0546875
89.3378572,1.0302734375
89.3666843,1.0107421875
89.3668917,0.99609375
89.401265,0.9716796875
89.4062239,0.9521484375
89.444823,0.9375
89.4765624,0.9130859375
89.4768828,0.9130859375
89.4832714,0.9521484375
89.5194035,1.0302734375
89.5249504,1.1181640625
89.5622292,1.2109375
89.5682196,1.2890625
89.5872408,1.3720703125
89.6067942,1.435546875
89.6431223,1.4990234375
89.6433262,1.54296875
89.6853844,1.5869140625
89.6856282,1.6162109375
89.7066566,1.640625
89.7422673,1.6455078125
89.7425836,1.6455078125
89.7802733,1.6259765625
89.8108267,1.591796875
89.811097,1.5625
89.8279425,1.5283203125
89.8467985,1.474609375
89.8649276,1.4404296875
89.8988375,1.4208984375
89.9066817,1.3916015625
89.9425009,1.3671875
89.9445314,1.3330078125
89.9794162,1.3037109375
90.011429,1.26953125
90.011689,1.2451171875
90.0227718,1.2158203125
90.0618074,1.1865234375
90.0620071,1.1669921875
90.1000728,1.1376953125
90.1206823,1.11328125
90.1247366,1.083984375
90.1577943,1.0595703125
90.1805831,1.0302734375
90.1878399,1.0107421875
90.2035498,0.986328125
90.240297,0.9716796875
90.244363,0.9521484375
90.2803498,0.9375
90.285308,0.91796875
90.3243414,0.9033203125
90.3552975,0.87890625
90.3555183,0.869140625
90.3627654,0.869140625
90.4015709,0.9228515625
90.4317257,1.005859375
90.4320432,1.09375
90.4440748,1.181640625
90.4793607,1.259765625
90.486662,1.3330078125
90.5225918,1.4013671875
90.5280188,1.46484375
90.543174,1.5185546875
90.5874135,1.5673828125
90.5877554,1.6015625
90.6093702,1.6259765625
90.6249767,1.6357421875
90.6674483,1.6259765625
90.6677467,1.6064453125
90.7138148,1.5771484375
90.7140713,1.552734375
90.7265341,1.513671875
90.762752,1.484375
90.7849478,1.4453125
90.7851471,1.4208984375
90.8219151,1.3916015625
90.8265603,1.3623046875
90.8696731,1.328125
90.8698769,1.298828125
90.9005174,1.2646484375
90.9071356,1.2353515625
90.9234879,1.201171875
90.9645662,1.171875
90.980046,1.142578125
90.9878933,1.1181640625
91.0080322,1.083984375
91.0456016,1.064453125
91.0458023,1.03515625
91.0799703,1.005859375
91.1003466,0.9814453125
91.1057009,0.95703125
91.1544758,0.9375
91.1546824,0.9130859375
91.1660635,0.8935546875
91.1870153,0.8740234375
91.2227887,0.859375
91.2279849,0.83984375
91.2795082,0.8154296875
91.2798898,0.791015625
91.2857044,0.78125
91.3244424,0.791015625
91.3247675,0.8447265625
91.3702998,0.9326171875
91.3705159,1.025390625
91.4013088,1.1279296875
91.4094107,1.2109375
91.4294809,1.298828125
91.4484014,1.3623046875
91.4700449,1.4013671875
91.4874837,1.42578125
91.5063524,1.4892578125
91.5261676,1.5283203125
91.5682052,1.5625
91.5684046,1.5771484375
91.6027838,1.5771484375
91.6239588,1.5625
91.6297292,1.54296875
91.6465032,1.513671875
91.6842462,1.4892578125
91.6846591,1.46484375
91.7193758,1.435546875
91.7408963,1.4111328125
91.7491176,1.3818359375
91.7850298,1.3525390625
91.7873501,1.3232421875
91.8254672,1.2939453125
91.8256842,1.2646484375
91.8553327,1.2451171875
91.8661966,1.220703125
91.9197574,1.1962890625
91.9201092,1.171875
91.9368303,1.142578125
91.9474113,1.11328125
91.9817636,1.0888671875
92.0020319,1.064453125
92.0040402,1.03515625
92.0381997,1.0205078125
92.0596635,1.005859375
92.0681315,0.9912109375
92.106875,0.9716796875
92.1071351,0.95703125
92.1429891,0.9375
92.1685676,0.9228515625
92.1687725,0.8984375
92.1862534,0.8935546875
92.2306596,0.8935546875
92.2308537,0.9423828125
92.2478751,1.015625
92.2941188,1.103515625
92.2944148,1.1865234375
92.3098893,1.2744140625
92.3301807,1.34765625
92.3523707,1.4111328125
92.3703435,1.4697265625
92.3875552,1.5087890625
92.4357155,1.552734375
92.4365238,1.58203125
92.447695,1.5966796875
92.4833116,1.6015625
92.5153149,1.591796875
92.5155274,1.572265625
92.5305405,1.54296875
92.5469752,1.513671875
92.5852876,1.4990234375
92.585638,1.4697265625
92.6242022,1.4453125
92.6552601,1.4208984375
92.6554563,1.38671875
92.6703434,1.357421875
92.7048802,1.328125
92.7241461,1.298828125
92.7264439,1.2646484375
92.761323,1.2353515625
92.7824364,1.2060546875
92.789459,1.181640625
92.8408803,1.15234375
92.8411762,1.1279296875
92.8481866,1.0986328125
92.8869583,1.07421875
92.9039489,1.044921875
92.9064394,1.0302734375
92.942884,1.0107421875
92.9684895,0.99609375
92.968733,0.9765625
93.0150223,0.95703125
93.0153285,0.9375
93.0301399,0.9228515625
93.0692317,0.9033203125
93.0695504,0.8837890625
93.0929313,0.8837890625
93.1074785,0.8837890625
93.1461308,0.9619140625
93.1755638,1.0546875
93.1757733,1.1572265625
93.1890073,1.2451171875
93.2282233,1.328125
93.2285726,1.4013671875
93.2642368,1.4697265625
93.2860515,1.5283203125
93.2864017,1.5673828125
93.3367797,1.6064453125
93.3370604,1.630859375
93.3653061,1.6455078125
93.3696187,1.640625
93.4032903,1.6259765625
93.4234115,1.6015625
93.4313611,1.572265625
93.4474344,1.5380859375
93.4836369,1.5087890625
93.4881389,1.474609375
93.5338766,1.4453125
93.5342188,1.416015625
93.5550399,1.38671875
93.5708192,1.34765625
93.612344,1.328125
93.612602,1.298828125
93.6435073,1.2646484375
93.6478905,1.240234375
93.6900318,1.2158203125
93.6903812,1.1865234375
93.7102157,1.1572265625
93.7467704,1.1328125
93.7492006,1.0986328125
93.7872641,1.07421875
93.7876156,1.0498046875
93.8231165,1.025390625
93.8280243,1.0009765625
93.862377,0.986328125
93.8828552,0.9619140625
93.8904013,0.9423828125
93.924604,0.927734375
93.946043,0.9033203125
93.9522776,0.8837890625
93.9720052,0.8544921875
93.9927859,0.849609375
94.0093189,0.8642578125
94.0453667,0.9326171875
94.0505389,1.0205078125
94.0708097,1.123046875
94.1069578,1.2109375
94.1113157,1.3037109375
94.1571342,1.376953125
94.1573801,1.4501953125
94.1683769,1.50390625
94.2063748,1.5576171875
94.2132323,1.5966796875
94.2296014,1.6357421875
94.2640501,1.650390625
94.284785,1.6455078125
94.2905664,1.6357421875
94.3399451,1.6064453125
94.3402239,1.5771484375
94.3504543,1.5380859375
94.3862385,1.513671875
94.3909581,1.4794921875
94.409782,1.4501953125
94.4488801,1.416015625
94.4493849,1.3818359375
94.5044139,1.34765625
94.5047659,1.318359375
94.5093113,1.279296875
94.5297362,1.2548828125
94.5663069,1.2255859375
94.571162,1.201171875
94.6050398,1.171875
94.6095165,1.1474609375
94.6439205,1.1279296875
94.665001,1.0986328125
94.6732648,1.07421875
94.6889488,1.0498046875
94.7262726,1.0302734375
94.7314951,1.005859375
94.7656359,0.9912109375
94.771234,0.966796875
94.8087922,0.947265625
94.8089963,0.9228515625
94.8603476,0.9033203125
94.8606281,0.8740234375
94.8893187,0.87890625
94.8915841,0.9130859375
94.9273361,0.9765625
94.927562,1.07421875
94.9685864,1.171875
94.9989728,1.26953125
94.9991743,1.34765625
95.0130612,1.42578125
95.0319382,1.4892578125
95.0687147,1.54296875
95.0689703,1.58203125
95.0921893,1.6162109375
95.1261603,1.6357421875
95.1302827,1.650390625
95.1670021,1.640625
95.1715879,1.62109375
95.2076345,1.5966796875
95.2121524,1.5576171875
95.2484954,1.5234375
95.2487834,1.4892578125
95.2704189,1.46484375
95.3070478,1.435546875
95.3116073,1.40625
95.3629056,1.3720703125
95.3632227,1.3427734375
95.3719896,1.3037109375
95.4089476,1.2744140625
95.4091629,1.240234375
95.4298327,1.2109375
95.4656827,1.181640625
95.4713951,1.15234375
95.5083305,1.123046875
95.5123202,1.0986328125
95.5511317,1.0693359375
95.5513295,1.03515625
95.5990088,1.0107421875
95.5992924,0.9814453125
95.6140987,0.927734375
95.6319565,0.8837890625
95.6503154,0.888671875
95.6914511,0.8837890625
95.6917187,0.8740234375
95.7221157,0.8642578125
95.7339539,0.849609375
95.7708732,0.859375
95.7710963,0.91796875
95.7914219,1.0009765625
95.8247408,1.103515625
95.8468014,1.2158203125
95.8533363,1.298828125
95.9008136,1.38671875
95.9010843,1.455078125
95.9136811,1.5234375
95.9492868,1.5673828125
95.9546932,1.611328125
95.9694907,1.6357421875
96.0086198,1.6552734375
96.0294001,1.66015625
96.0313079,1.650390625
96.0706687,1.6259765625
96.0916335,1.5966796875
96.0918906,1.5625
96.1283145,1.533203125
96.1492191,1.494140625
96.149517,1.4697265625
96.1708379,1.4404296875
96.2060937,1.40625
96.2267661,1.376953125
96.2318369,1.3427734375
96.2688932,1.3134765625
96.2745485,1.279296875
96.3110693,1.2451171875
96.3113953,1.2109375
96.3469283,1.181640625
96.3516445,1.1474609375
96.3738156,1.1181640625
96.4088453,1.0888671875
96.412306,1.064453125
96.4468353,1.03515625
96.4680351,1.005859375
96.4738316,0.986328125
96.522329,0.9619140625
96.522529,0.9375
96.5446048,0.9130859375
96.5535203,0.8984375
96.5996,0.8837890625
96.5997976,0.869140625
96.6140381,0.8447265625
96.6604726,0.830078125
96.6607654,0.830078125
96.6822257,0.888671875
96.6919943,0.966796875
96.713743,1.0791015625
96.7321517,1.1865234375
96.7722918,1.2841796875
96.7725507,1.3720703125
96.8051232,1.4599609375
96.8265426,1.5283203125
96.833748,1.5771484375
96.8693518,1.6259765625
96.8897636,1.6552734375
96.8918963,1.6845703125
96.9263288,1.6943359375
96.9466103,1.6943359375
96.9530474,1.669921875
96.9888909,1.640625
96.9934732,1.6064453125
97.028884,1.5673828125
97.0498512,1.5283203125
97.0526143,1.4990234375
97.0855011,1.46484375
97.1068085,1.4306640625
97.1132477,1.396484375
97.1597888,1.3623046875
97.160083,1.3232421875
97.1809594,1.2890625
97.1939042,1.259765625
97.2151486,1.220703125
97.2356921,1.1669921875
97.2521002,1.11328125
97.2841804,1.0986328125
97.3160766,1.0791015625
97.3162794,1.0693359375
97.35019,1.044921875
97.354599,1.025390625
97.3935073,1.0009765625
97.4149671,0.9814453125
97.4152802,0.9521484375
97.4325935,0.947265625
97.476976,0.927734375
97.4774498,0.908203125
97.4938548,0.8935546875
97.5287685,0.8740234375
97.5509309,0.8544921875
97.555803,0.83984375
97.5920277,0.849609375
97.5922295,0.9033203125
97.6300913,0.99609375
97.6519222,1.0986328125
97.6524908,1.201171875
97.6937139,1.2939453125
97.6939614,1.3916015625
97.727352,1.46484375
97.7477666,1.533203125
97.7543957,1.5966796875
97.7892544,1.630859375
97.8085946,1.669921875
97.8134781,1.689453125
97.850245,1.69921875
97.8551372,1.6845703125
97.8769341,1.66015625
97.8962704,1.6259765625
97.9430609,1.5869140625
97.9432589,1.5478515625
97.9514935,1.513671875
97.9896051,1.4794921875
97.9948659,1.4453125
98.0360101,1.4111328125
98.0363217,1.376953125
98.081885,1.3330078125
98.0821671,1.3037109375
98.0960906,1.2646484375
98.1294843,1.2255859375
98.1498819,1.19140625
98.1520147,1.15234375
98.1895308,1.123046875
98.1938631,1.09375
98.2294341,1.0693359375
98.2505682,1.0400390625
98.2552832,1.0107421875
98.2963984,0.9814453125
98.296677,0.95703125
98.3141566,0.927734375
98.359976,0.908203125
98.3603313,0.888671875
98.3753271,0.869140625
98.3953153,0.8544921875
98.4437927,0.830078125
98.4440612,0.8056640625
98.473957,0.791015625
98.4761278,0.8203125
98.5103212,0.8837890625
98.5150221,0.9912109375
98.5482337,1.0986328125
98.5683539,1.2109375
98.5748288,1.3037109375
98.6125313,1.3916015625
98.6144421,1.46484375
98.6494044,1.533203125
98.6767399,1.5869140625
98.6770277,1.630859375
98.6946489,1.66015625
98.7318308,1.6845703125
98.754392,1.6943359375
98.754615,1.6796875
98.8003299,1.6552734375
98.8005927,1.62109375
98.8191757,1.58203125
98.8343505,1.5478515625
98.8553959,1.513671875
98.8929256,1.4794921875
98.8952685,1.4404296875
98.9322399,1.40625
98.9376269,1.3671875
98.9865944,1.3330078125
98.9868741,1.298828125
98.9977498,1.259765625
99.0473002,1.220703125
99.0476209,1.19140625
99.054077,1.1572265625
99.0945258,1.123046875
99.0947253,1.09375
99.1402491,1.0693359375
99.1405629,1.03515625
99.1600153,1.005859375
99.1777619,0.9716796875
99.2181459,0.947265625
99.2185046,0.91796875
99.2355446,0.9033203125
99.2552969,0.8837890625
99.2955706,0.8642578125
99.2958143,0.849609375
99.3260543,0.830078125
99.3355573,0.8056640625
99.3725818,0.791015625
99.4042848,0.7861328125
99.4044926,0.8203125
99.4156987,0.9130859375
99.4520342,1.025390625
99.4567866,1.142578125
99.4983341,1.2451171875
99.4986131,1.3525390625
99.5434836,1.4306640625
99.5440281,1.50390625
99.5546184,1.5625
99.5891576,1.6162109375
99.6136802,1.66015625
99.6139131,1.689453125
99.6370655,1.69921875
99.6864434,1.6943359375
99.6866382,1.6796875
99.6975267,1.6455078125
99.718295,1.6064453125
99.7384839,1.572265625
99.7878253,1.5087890625
99.788227,1.484375
99.8190536,1.455078125
99.8193638,1.42578125
99.8388548,1.3916015625
99.8573878,1.357421875
99.8926562,1.3232421875
99.8976074,1.2890625
99.9329796,1.25
99.9583814,1.2109375
99.9585811,1.1767578125
99.9927919,1.142578125
99.9954566,1.11328125
100.037711,1.0791015625
100.0664228,1.044921875
100.0667318,1.0107421875
100.0779067,0.9765625
100.1141831,0.9423828125
100.140532,0.9130859375
100.1407531,0.8935546875
100.1560091,0.869140625
100.2031645,0.849609375
100.2034482,0.830078125
100.2251048,0.8056640625
100.2377594,0.7861328125
100.2798334,0.7763671875
100.280093,0.751953125
100.3117794,0.7373046875
100.3160497,0.7421875
100.3504595,0.771484375
100.3724507,0.869140625
100.376719,0.986328125
100.4209446,1.123046875
100.4211783,1.2353515625
100.4412301,1.34765625
100.4569962,1.4306640625
100.4967352,1.5185546875
100.4970577,1.58203125
100.5427246,1.640625
100.5430084,1.6796875
100.5639044,1.708984375
100.5779304,1.7138671875
100.6146823,1.708984375
100.6201022,1.6845703125
100.6568229,1.6650390625
100.6611798,1.6259765625
100.6778563,1.5869140625
100.71611,1.5478515625
100.7164024,1.5087890625
100.7598151,1.474609375
100.7600993,1.4404296875
100.8071266,1.4111328125
100.8073903,1.376953125
100.8193186,1.3427734375
100.8546796,1.30859375
100.8571753,1.2744140625
100.8945622,1.2451171875
100.8986434,1.2158203125
100.9477118,1.1865234375
100.9479335,1.15234375
100.9586731,1.123046875
100.9950845,1.0888671875
101.0273157,1.0595703125
101.0278434,1.025390625
101.0383238,1.0107421875
101.0735701,0.9814453125
101.0767416,0.9619140625
101.1206162,0.9375
101.1208342,0.91796875
101.1500461,0.8935546875
101.1600984,0.869140625
101.176511,0.8447265625
101.2110366,0.8251953125
101.2434533,0.810546875
