fs,t,y
51.66362725242239,0.7066604000000001,1.201171875
,0.7266454000000002,1.201171875
,0.7636451000000002,1.298828125
,0.7667796999999998,1.474609375
,0.8058030999999999,1.7333984375
,0.8064078000000001,1.9970703125
,0.8307828000000002,2.265625
,0.8456459999999999,2.4462890625
,0.8895426999999998,2.626953125
,0.8899697,2.734375
,0.9106608,2.7880859375
,0.9272649999999998,2.7734375
,0.9485242999999999,2.7099609375
,0.9856745999999998,2.6123046875
,0.9888072000000001,2.5048828125
,1.0091165000000002,2.392578125
,1.0252907000000002,2.28515625
,1.0605262,2.1923828125
,1.0821181000000002,2.119140625
,1.0873305000000002,2.0458984375
,1.1089563,1.9775390625
,1.1281441,1.9091796875
,1.1492543,1.8408203125
,1.1696448,1.767578125
,1.1859128,1.6943359375
,1.2061351,1.62109375
,1.2266827,1.54296875
,1.2665427,1.4697265625
,1.2669351999999998,1.40625
,1.3048437000000002,1.3330078125
,1.3071842,1.2548828125
,1.3590604000000002,1.181640625
,1.3595473,1.1279296875
,1.3649144999999998,1.11328125
,1.4018321,1.1962890625
,1.422027,1.3623046875
,1.4287333000000002,1.611328125
,1.4492219999999998,1.85546875
,1.4689911000000002,2.099609375
,1.5055006,2.294921875
,1.5085967,2.44140625
,1.5270769999999998,2.51953125
,1.5638410999999999,2.568359375
,1.5684719999999999,2.5244140625
,1.5871259000000002,2.4755859375
,1.6209996000000002,2.3876953125
,1.6413796999999999,2.2900390625
,1.6499621000000002,2.177734375
,1.6703286,2.0849609375
,1.6909660999999998,2.0068359375
,1.7104903999999999,1.943359375
,1.7615655000000001,1.8798828125
,1.7619372000000002,1.8115234375
,1.7665323000000002,1.7578125
,1.8070727999999998,1.6943359375
,1.8075416,1.630859375
,1.8440710999999999,1.5673828125
,1.8502174999999998,1.494140625
,1.8875891,1.42578125
,1.8905666,1.3623046875
,1.9073702,1.2939453125
,1.9281223,1.2353515625
,1.9478300000000002,1.1767578125
,1.9830606,1.123046875
,2.0040649000000004,1.07421875
,2.0097965,1.0546875
,2.0292043,1.123046875
,2.0639858,1.2646484375
,2.0842554,1.494140625
,2.084624,1.7333984375
,2.1340294,1.982421875
,2.1344019000000003,2.16796875
,2.1549952,2.314453125
,2.1695094,2.392578125
,2.2134460000000002,2.4267578125
,2.2140538999999997,2.3974609375
,2.2300503999999997,2.333984375
,2.2502752,2.24609375
,2.2715476,2.1337890625
,2.2924479,2.03125
,2.3092496999999996,1.9580078125
,2.3290594000000002,1.89453125
,2.3506030000000004,1.8408203125
,2.3975089,1.787109375
,2.3979568,1.7431640625
,2.4124451999999996,1.6943359375
,2.4309491000000003,1.640625
,2.4516937,1.5869140625
,2.4692786,1.533203125
,2.4898403,1.4794921875
,2.5090433,1.4208984375
,2.5316023000000003,1.3623046875
,2.5493895,1.298828125
,2.5979446,1.2353515625
,2.5983340000000004,1.181640625
,2.6104893000000002,1.1279296875
,2.6470675999999997,1.0888671875
,2.6474431999999997,1.083984375
,2.6911341999999996,1.162109375
,2.6917472,1.318359375
,2.7082110999999998,1.54296875
,2.7464408999999996,1.767578125
,2.7520239,1.9873046875
,2.770726,2.1435546875
,2.8150787,2.2705078125
,2.8155216000000003,2.333984375
,2.8282974000000003,2.3583984375
,2.8638766999999996,2.333984375
,2.8928279000000003,2.2705078125
,2.8934300000000004,2.1875
,2.9107253999999996,2.1044921875
,2.9306946,2.0166015625
,2.9521471999999997,1.943359375
,2.9723295,1.875
,2.9927957000000003,1.81640625
,3.0347007,1.73828125
,3.0355290999999998,1.689453125
,3.0502174999999996,1.640625
,3.070329,1.5869140625
,3.0901235,1.5234375
,3.1263256999999998,1.4599609375
,3.1317284,1.3916015625
,3.1663702999999996,1.3232421875
,3.1714407,1.259765625
,3.2062844000000004,1.1962890625
,3.2108385000000004,1.1376953125
,3.2306146,1.0791015625
,3.2514196999999996,1.0205078125
,3.272455,0.9765625
,3.2923478,0.9716796875
,3.3110988,1.0546875
,3.3623443999999996,1.2158203125
,3.3627513999999996,1.46484375
,3.3921618999999996,1.708984375
,3.3925340000000004,1.9580078125
,3.4100773999999996,2.1337890625
,3.4548053000000003,2.2802734375
,3.4551736,2.3583984375
,3.4715055,2.3974609375
,3.5180914999999997,2.3779296875
,3.5184564,2.32421875
,3.5302388000000002,2.236328125
,3.5497123000000004,2.1533203125
,3.5946225,2.060546875
,3.5950881,1.9775390625
,3.6116373,1.904296875
,3.6315207000000003,1.8359375
,3.6527056,1.77734375
,3.6881812,1.7236328125
,3.6936298,1.6650390625
,3.7329349,1.6015625
,3.7333160999999997,1.533203125
,3.7664054,1.46484375
,3.7694675,1.4013671875
,3.8128864,1.3330078125
,3.8132497,1.2646484375
,3.8452731,1.19140625
,3.8532023000000004,1.1181640625
,3.8879189,1.0546875
,3.8938654,0.99609375
,3.9300708,0.9423828125
,3.9306839,0.9228515625
,3.9673198999999997,0.99609375
,3.9696781999999997,1.1328125
,4.0072027,1.3671875
,4.0106454,1.6064453125
,4.0462958,1.8359375
,4.0649418,2.0068359375
,4.0718206,2.138671875
,4.0907301,2.2119140625
,4.1112183,2.255859375
,4.1465499,2.2509765625
,4.1498274,2.2021484375
,4.186486,2.119140625
,4.1928445,2.03125
,4.2294953,1.943359375
,4.2323762,1.865234375
,4.2529324,1.787109375
,4.2695594,1.7236328125
,4.3056897,1.6650390625
,4.312127,1.6162109375
,4.3313308,1.5625
,4.3537056,1.4990234375
,4.3731397,1.4306640625
,4.4129127,1.3623046875
,4.4135155,1.2890625
,4.4482382,1.2255859375
,4.4685099,1.162109375
,4.471643,1.0986328125
,4.5084249,1.03515625
,4.5113273,0.9814453125
,4.5323843,0.9228515625
,4.568966,0.869140625
,4.571982,0.830078125
,4.6096178,0.83984375
,4.6123494,0.9228515625
,4.652333,1.0986328125
,4.6530253,1.3134765625
,4.6703198,1.5625
,4.7067709,1.7578125
,4.7273308,1.9287109375
,4.7321211,2.0361328125
,4.7712174,2.109375
,4.7908848,2.138671875
,4.7935676,2.119140625
,4.8107654,2.060546875
,4.8482955,1.9921875
,4.8528088,1.9140625
,4.8725374,1.845703125
,4.8934671,1.7724609375
,4.9304917,1.7138671875
,4.9332277,1.6552734375
,4.9542214,1.6064453125
,4.9923051,1.5625
,4.9927812,1.513671875
,5.0101064,1.4697265625
,5.0457245,1.416015625
,5.068345,1.3525390625
,5.0734581,1.2939453125
,5.108403,1.2353515625
,5.1140017,1.1767578125
,5.1341757,1.1181640625
,5.1551487,1.0595703125
,5.1751181,1.0009765625
,5.2119468,0.9619140625
,5.2123445,0.9228515625
,5.2327562,0.908203125
,5.2694207,0.9326171875
,5.272189,1.03515625
,5.315354,1.2109375
,5.3157344,1.4453125
,5.335204,1.66015625
,5.3554377,1.865234375
,5.3725577,2.01171875
,5.4249133,2.1240234375
,5.4254818,2.1826171875
,5.4344978,2.197265625
,5.4688728,2.16796875
,5.4744136,2.119140625
,5.4953178,2.05078125
,5.5143375,1.982421875
,5.5518446,1.923828125
,5.5524364,1.8603515625
,5.5952413,1.81640625
,5.5956234,1.7724609375
,5.6128488,1.7333984375
,5.6522316,1.6943359375
,5.6526901,1.650390625
,5.6911825,1.6015625
,5.6957059,1.5478515625
,5.7111488,1.494140625
,5.7535586,1.4453125
,5.7541341,1.3916015625
,5.7734284,1.3330078125
,5.7943066,1.2744140625
,5.8289517,1.2158203125
,5.8342474,1.162109375
,5.8539058,1.11328125
,5.8909327,1.0693359375
,5.8951819,1.0546875
,5.9323936,1.103515625
,5.9330214,1.23046875
,5.968774,1.4404296875
,5.9733385,1.6650390625
,6.0119878,1.8994140625
,6.012691500000001,2.080078125
,6.051189900000001,2.2216796875
,6.0560125,2.314453125
,6.0923357,2.36328125
,6.093047500000001,2.36328125
,6.1137809999999995,2.333984375
,6.158523000000001,2.265625
,6.1589952,2.1875
,6.1736561000000005,2.1142578125
,6.2127616,2.0458984375
,6.213186200000001,1.9873046875
,6.2504428,1.93359375
,6.257435299999999,1.8798828125
,6.2733972,1.8310546875
,6.307825299999999,1.7919921875
,6.312943199999999,1.7431640625
,6.361088799999999,1.689453125
,6.3616636,1.6259765625
,6.376495500000001,1.572265625
,6.395962900000001,1.513671875
,6.4296565999999995,1.455078125
,6.4516428,1.3916015625
,6.4524528,1.3232421875
,6.477988699999999,1.2646484375
,6.493210899999999,1.19140625
,6.5283280999999995,1.1572265625
,6.5494228,1.1181640625
,6.555602199999999,1.1083984375
,6.575619,1.162109375
,6.611189700000001,1.3134765625
,6.616153000000001,1.5234375
,6.6534146,1.77734375
,6.6538544,2.001953125
,6.691507700000001,2.20703125
,6.6969756,2.3583984375
,6.7161455,2.470703125
,6.7362182,2.5244140625
,6.7827649999999995,2.5439453125
,6.783449299999999,2.509765625
,6.7972596,2.4365234375
,6.818828699999999,2.353515625
,6.8341657,2.265625
,6.868591199999999,2.177734375
,6.888957100000001,2.109375
,6.895910600000001,2.0458984375
,6.9170842,1.9873046875
,6.9676103000000005,1.9384765625
,6.967974999999999,1.884765625
,6.9774397,1.8310546875
,6.9934528,1.7724609375
,7.045190099999999,1.71875
,7.0457789,1.6650390625
,7.052669399999999,1.6064453125
,7.0890559,1.54296875
,7.110040700000001,1.474609375
,7.1146115000000005,1.4111328125
,7.149957000000001,1.34765625
,7.1701788,1.2890625
,7.1729009,1.23046875
,7.217118899999999,1.1865234375
,7.2177045,1.142578125
,7.2382945,1.1962890625
,7.257232800000001,1.337890625
,7.2931737000000005,1.5576171875
,7.296183299999999,1.787109375
,7.3182464,2.0263671875
,7.357646600000001,2.2119140625
,7.3580255,2.3681640625
,7.374083199999999,2.470703125
,7.420530299999999,2.5341796875
,7.421128599999999,2.548828125
,7.43675,2.509765625
,7.4728806,2.44140625
,7.4760624,2.353515625
,7.512167099999999,2.2607421875
,7.517748299999999,2.16796875
,7.553887899999999,2.0947265625
,7.554564299999999,2.0263671875
,7.586583600000001,1.97265625
,7.6066441000000005,1.9189453125
,7.6149769,1.8603515625
,7.650324599999999,1.796875
,7.6726554,1.7333984375
,7.6779545,1.6748046875
,7.697935599999999,1.611328125
,7.749105800000001,1.54296875
,7.7494654,1.4697265625
,7.755880299999999,1.40625
,7.7762253999999995,1.3427734375
,7.7960764000000005,1.279296875
,7.842302699999999,1.220703125
,7.8428883,1.162109375
,7.856993900000001,1.1083984375
,7.878653699999999,1.09375
,7.8979984000000005,1.1376953125
,7.920465699999999,1.2646484375
,7.9369736,1.455078125
,7.9560461,1.71875
,7.977613099999999,1.953125
,8.0136075,2.1630859375
,8.0192401,2.3095703125
,8.0381896,2.421875
,8.0565684,2.4755859375
,8.0941382,2.470703125
,8.1195907,2.4267578125
,8.1204722,2.353515625
,8.1362074,2.2705078125
,8.1709505,2.1826171875
,8.1915298,2.099609375
,8.1970233,2.0263671875
,8.2445913,1.9580078125
,8.2450324,1.904296875
,8.2582993,1.8505859375
,8.2775865,1.796875
,8.3218255,1.7529296875
,8.3222446,1.69921875
,8.3370078,1.640625
,8.3567833,1.5869140625
,8.3917611,1.5283203125
,8.4124715,1.4697265625
,8.4203921,1.40625
,8.4406835,1.34765625
,8.4563957,1.2890625
,8.4767717,1.2451171875
,8.5119586,1.19140625
,8.516407,1.1572265625
,8.5558723,1.1572265625
,8.5756933,1.2646484375
,8.5774505,1.4306640625
,8.612368,1.6650390625
,8.6329818,1.8896484375
,8.6403735,2.08984375
,8.6578354,2.24609375
,8.6763263,2.3876953125
,8.7105007,2.4658203125
,8.7318411,2.48046875
,8.7368966,2.4560546875
,8.7742284,2.3974609375
,8.7795696,2.314453125
,8.8225126,2.236328125
,8.8229054,2.1533203125
,8.8371333,2.080078125
,8.8582394,2.01171875
,8.8773445,1.9580078125
,8.9159739,1.904296875
,8.9166336,1.8505859375
,8.9554848,1.796875
,8.9584235,1.748046875
,8.9955377,1.6845703125
,9.0157551,1.630859375
,9.0162232,1.5673828125
,9.0374685,1.513671875
,9.0592178,1.4501953125
,9.0788722,1.3916015625
,9.0978622,1.328125
,9.1365818,1.26953125
,9.141934,1.2109375
,9.1608434,1.1767578125
,9.1761154,1.181640625
,9.2140497,1.298828125
,9.2187679,1.484375
,9.2380767,1.73828125
,9.2748912,1.982421875
,9.2777942,2.216796875
,9.3143417,2.392578125
,9.3205166,2.5341796875
,9.3399422,2.6220703125
,9.3753827,2.6513671875
,9.3804019,2.63671875
,9.3978079,2.578125
,9.4427373,2.5
,9.4431135,2.4169921875
,9.4586731,2.32421875
,9.496049,2.2314453125
,9.4993428,2.1484375
,9.5347048,2.0751953125
,9.5553235,2.0068359375
,9.5569549,1.9482421875
,9.5925302,1.89453125
,9.5967779,1.8310546875
,9.6438762,1.767578125
,9.6442353,1.7041015625
,9.6600912,1.640625
,9.696563,1.5771484375
,9.7008408,1.5087890625
,9.7214576,1.4404296875
,9.7394888,1.3671875
,9.7576995,1.3037109375
,9.7981921,1.25
,9.798558,1.220703125
,9.8333663,1.259765625
,9.8553752,1.40625
,9.8616541,1.6162109375
,9.8808894,1.884765625
,9.898624,2.12890625
,9.9318198,2.3583984375
,9.9405391,2.51953125
,9.9584969,2.646484375
,9.995347,2.7197265625
,10.0002925,2.734375
,10.0359399,2.705078125
,10.0560825,2.6318359375
,10.0614039,2.5341796875
,10.0816741,2.4267578125
,10.1026789,2.333984375
,10.1188609,2.24609375
,10.1545457,2.16796875
,10.1597339,2.1044921875
,10.1791287,2.03125
,10.213283,1.97265625
,10.2348277,1.9091796875
,10.2417167,1.845703125
,10.2801118,1.7724609375
,10.300439,1.7041015625
,10.3010304,1.630859375
,10.3205198,1.5625
,10.3560976,1.4990234375
,10.3585348,1.4306640625
,10.3952229,1.3623046875
,10.415884,1.2939453125
,10.4233867,1.2353515625
,10.4430886,1.2109375
,10.4596493,1.2548828125
,10.493998,1.40625
,10.5162156,1.6162109375
,10.5208702,1.8798828125
,10.5572924,2.1142578125
,10.5603591,2.314453125
,10.6085997,2.4560546875
,10.6091989,2.5634765625
,10.6231072,2.6171875
,10.6403504,2.6171875
,10.6597671,2.578125
,10.6960223,2.5
,10.6992605,2.392578125
,10.7204996,2.28515625
,10.7579448,2.1875
,10.7612424,2.109375
,10.7996319,2.0361328125
,10.8017614,1.9677734375
,10.8359871,1.8994140625
,10.85767,1.8359375
,10.8595507,1.7822265625
,10.9038853,1.71875
,10.9044616,1.650390625
,10.9242222,1.58203125
,10.9425808,1.5087890625
,10.9786406,1.4306640625
,10.9834617,1.357421875
,11.0038943,1.279296875
,11.0189849,1.201171875
,11.0577033,1.142578125
,11.0624316,1.083984375
,11.0807539,1.07421875
,11.1200716,1.142578125
,11.1204458,1.30859375
,11.1597132,1.5185546875
,11.1642976,1.7578125
,11.1803079,1.9677734375
,11.2148653,2.1484375
,11.2462317,2.265625
,11.2468118,2.34375
,11.261238,2.36328125
,11.2816065,2.333984375
,11.3021094,2.2705078125
,11.3383128,2.1826171875
,11.3583193,2.0849609375
,11.3586868,1.9921875
,11.3952753,1.9140625
,11.4011513,1.845703125
,11.4494592,1.787109375
,11.4500339,1.7236328125
,11.4613718,1.66015625
,11.4956916,1.6015625
,11.525808,1.54296875
,11.5261741,1.484375
,11.5445662,1.416015625
,11.5878652,1.3427734375
,11.5882271,1.26953125
,11.6085024,1.201171875
,11.6242219,1.142578125
,11.6429865,1.0888671875
,11.6788994,1.025390625
,11.6815145,0.966796875
,11.717857,0.9326171875
,11.7385458,0.9521484375
,11.7417583,1.0498046875
,11.7616754,1.23046875
,11.7818979,1.435546875
,11.8169895,1.66015625
,11.8218773,1.8408203125
,11.8580562,1.9873046875
,11.8641631,2.0751953125
,11.9005359,2.12890625
,11.9056303,2.12890625
,11.9217701,2.0849609375
,11.9574521,2.0263671875
,11.960979,1.9580078125
,12.010373,1.8798828125
,12.0107414,1.8017578125
,12.0231809,1.73828125
,12.0583868,1.6796875
,12.0641,1.630859375
,12.0801769,1.5869140625
,12.1174187,1.5478515625
,12.1203258,1.5087890625
,12.1582725,1.4697265625
,12.1612981,1.42578125
,12.1827362,1.3818359375
,12.2192884,1.328125
,12.2241151,1.26953125
,12.2605467,1.2109375
,12.2888301,1.15234375
,12.2894144,1.0986328125
,12.3007764,1.0498046875
,12.3212596,1.0205078125
,12.3582303,1.0302734375
,12.3643723,1.123046875
,12.3833614,1.279296875
,12.4053279,1.4892578125
,12.4241895,1.6845703125
,12.4616422,1.8701171875
,12.4621993,2.001953125
,12.4836637,2.1044921875
,12.5038457,2.158203125
,12.5238149,2.1728515625
,12.5444422,2.1435546875
,12.5647426,2.0849609375
,12.5852196,2.0068359375
,12.6044012,1.9384765625
,12.6421584,1.8701171875
,12.6427686,1.8115234375
,12.6791317,1.767578125
,12.6820647,1.71875
,12.7204504,1.6748046875
,12.7236561,1.6357421875
,12.7752078,1.5869140625
,12.7757927,1.5380859375
,12.7846259,1.4892578125
,12.8018035,1.435546875
,12.8357255,1.3818359375
,12.856439,1.328125
,12.8621267,1.240234375
,12.8996643,1.1962890625
,12.9040868,1.142578125
,12.9254547,1.0986328125
,12.9463685,1.0693359375
,12.9660166,1.083984375
,12.9860089,1.162109375
,13.0237842,1.328125
,13.0243283,1.5283203125
,13.04289,1.767578125
,13.0792895,1.9677734375
,13.0852019,2.138671875
,13.1059333,2.255859375
,13.1255653,2.3388671875
,13.1617182,2.3779296875
,13.1669161,2.3779296875
,13.1857312,2.3486328125
,13.2012074,2.28515625
,13.2362339,2.216796875
,13.2574524,2.1533203125
,13.2647187,2.08984375
,13.2855346,2.0263671875
,13.304803,1.9775390625
,13.3518884,1.923828125
,13.3524718,1.865234375
,13.3624645,1.81640625
,13.3823096,1.767578125
,13.4175374,1.7138671875
,13.4389936,1.66015625
,13.4441041,1.5966796875
,13.4652228,1.533203125
,13.4853814,1.474609375
,13.506295,1.4111328125
,13.525874,1.3525390625
,13.5468047,1.2890625
,13.5673081,1.2158203125
,13.5834777,1.181640625
,13.6306499,1.2548828125
,13.6310081,1.38671875
,13.6519038,1.591796875
,13.6667083,1.796875
,13.6871072,2.01171875
,13.7062437,2.177734375
,13.7436843,2.314453125
,13.744156,2.392578125
,13.7620844,2.4462890625
,13.8012598,2.4462890625
,13.8209677,2.4169921875
,13.8240358,2.3486328125
,13.8632928,2.2705078125
,13.8658916,2.1923828125
,13.9093808,2.119140625
,13.9098353,2.05078125
,13.9241003,1.9970703125
,13.9709495,1.9482421875
,13.9713097,1.89453125
,13.9857172,1.8359375
,14.034106999999999,1.7724609375
,14.034703799999999,1.7138671875
,14.046214599999999,1.650390625
,14.079743100000002,1.5869140625
,14.0996171,1.5185546875
,14.1029896,1.4501953125
,14.1433127,1.3916015625
,14.143685300000001,1.3330078125
,14.182521000000001,1.2744140625
,14.186803300000001,1.220703125
,14.206359800000001,1.181640625
,14.2513234,1.1669921875
,14.2516976,1.240234375
,14.2671728,1.376953125
,14.2894593,1.5673828125
,14.3044553,1.7626953125
,14.3404564,1.982421875
,14.345829599999998,2.1435546875
,14.3904779,2.275390625
,14.391048000000001,2.34375
,14.405698000000001,2.3779296875
,14.444111500000002,2.3583984375
,14.4487646,2.314453125
,14.467832399999999,2.2412109375
,14.4850381,2.1533203125
,14.522458100000001,2.0751953125
,14.527078199999998,2.0068359375
,14.5460867,1.9384765625
,14.5939573,1.8896484375
,14.5945253,1.8408203125
,14.608711199999998,1.787109375
,14.6289892,1.728515625
,14.6456023,1.669921875
,14.6663472,1.6162109375
,14.687202800000001,1.5673828125
,14.707484000000001,1.5087890625
,14.725690700000001,1.4501953125
,14.7610661,1.3818359375
,14.7815559,1.3232421875
,14.786682899999999,1.26953125
,14.8248982,1.2158203125
,14.825456599999999,1.1669921875
,14.8623877,1.1328125
,14.8668369,1.123046875
,14.885571500000001,1.19140625
,14.921603099999999,1.328125
,14.9267261,1.533203125
,14.965015099999999,1.73828125
,14.9679276,1.9384765625
,14.989397,2.080078125
,15.0101753,2.177734375
,15.0262739,2.2412109375
,15.0627396,2.275390625
,15.065265,2.255859375
,15.109507399999998,2.20703125
,15.110039400000002,2.1337890625
,15.130472300000001,2.0654296875
,15.1477246,1.9921875
,15.168443,1.9287109375
,15.218507599999999,1.8701171875
,15.2192516,1.826171875
,15.224644699999999,1.7919921875
,15.2603912,1.7578125
,15.280689299999999,1.7138671875
,15.287671499999998,1.6650390625
,15.3263775,1.6064453125
,15.3290556,1.5576171875
,15.348042499999998,1.50390625
,15.364432999999998,1.4453125
,15.4022364,1.396484375
,15.4047856,1.3427734375
,15.4521692,1.2841796875
,15.4527048,1.2353515625
,15.4682682,1.1865234375
,15.4875368,1.1572265625
,15.5304426,1.171875
,15.5309189,1.2744140625
,15.546661400000001,1.4404296875
,15.566147099999998,1.669921875
,15.5879883,1.875
,15.607927,2.0703125
,15.644444100000001,2.2021484375
,15.6477012,2.3046875
,15.669026800000001,2.3583984375
,15.688804300000001,2.3681640625
,15.7105414,2.333984375
,15.7445205,2.265625
,15.750894800000001,2.1923828125
,15.7661604,2.119140625
,15.7878981,2.0556640625
,15.8088454,1.9970703125
,15.8291021,1.943359375
,15.8683376,1.884765625
,15.8689489,1.8408203125
,15.9062661,1.7919921875
,15.909493699999999,1.748046875
,15.9263154,1.689453125
,15.947811999999999,1.6357421875
,15.969335999999998,1.58203125
,15.9875301,1.5234375
,16.0088775,1.46484375
,16.0313844,1.40625
,16.0497033,1.3525390625
,16.0846808,1.2890625
,16.090914,1.2353515625
,16.1079356,1.19140625
,16.1276,1.1669921875
,16.1483555,1.201171875
,16.1986939,1.3232421875
,16.1990673,1.5087890625
,16.2087389,1.7529296875
,16.2307601,1.9775390625
,16.2488355,2.197265625
,16.2666123,2.3486328125
,16.3006548,2.4755859375
,16.3223232,2.548828125
,16.3292092,2.587890625
,16.365386,2.568359375
,16.3686664,2.5146484375
,16.406778,2.431640625
,16.4095864,2.3388671875
,16.4456233,2.2509765625
,16.4793306,2.1728515625
,16.4797326,2.109375
,16.4873446,2.0458984375
,16.5076722,1.9921875
,16.5564457,1.943359375
,16.5570359,1.884765625
,16.5701441,1.826171875
,16.6173295,1.7578125
,16.6176982,1.6943359375
,16.6298331,1.630859375
,16.6462863,1.5673828125
,16.6837987,1.5087890625
,16.6886783,1.4501953125
,16.7085133,1.38671875
,16.7435738,1.328125
,16.7653476,1.2744140625
,16.7698984,1.2451171875
,16.7916201,1.2548828125
,16.8266897,1.3671875
,16.8273118,1.54296875
,16.8474525,1.787109375
,16.8701351,2.021484375
,16.8902718,2.236328125
,16.9246167,2.3876953125
,16.9306927,2.5048828125
,16.9496516,2.578125
,16.9714993,2.607421875
,16.9890754,2.5830078125
,17.0088883,2.51953125
,17.0276229,2.4267578125
,17.0698413,2.32421875
,17.0704313,2.2216796875
,17.0884739,2.138671875
,17.1254544,2.0654296875
,17.1317308,1.9970703125
,17.1507839,1.9287109375
,17.1875433,1.865234375
,17.1910248,1.806640625
,17.2099687,1.7431640625
,17.2467451,1.6796875
,17.2511689,1.6162109375
,17.2868732,1.552734375
,17.2894642,1.4892578125
,17.3340332,1.4306640625
,17.3344597,1.3720703125
,17.3513763,1.30859375
,17.3717464,1.2548828125
,17.3890396,1.201171875
,17.4101053,1.171875
,17.4321605,1.181640625
,17.4494746,1.279296875
,17.4700576,1.4501953125
,17.5060447,1.6845703125
,17.5119211,1.9140625
,17.5570702,2.1337890625
,17.5574315,2.294921875
,17.577069,2.421875
,17.5877145,2.490234375
,17.6260012,2.509765625
,17.6317861,2.490234375
,17.6516163,2.4267578125
,17.6981792,2.3388671875
,17.6985508,2.2314453125
,17.7107137,2.1337890625
,17.7454423,2.0556640625
,17.7482762,1.9921875
,17.7855538,1.9287109375
,17.788969,1.875
,17.8398108,1.81640625
,17.8403664,1.7626953125
,17.8593626,1.708984375
,17.8734156,1.650390625
,17.8930449,1.58203125
,17.9316272,1.5185546875
,17.9323557,1.4599609375
,17.9485535,1.4013671875
,17.9992303,1.34765625
,17.9997356,1.2890625
,18.0098492,1.23046875
,18.0457212,1.1767578125
,18.0664955,1.142578125
,18.0734789,1.15234375
,18.0934557,1.240234375
,18.1103219,1.4013671875
,18.1310994,1.640625
,18.1511563,1.865234375
,18.1711234,2.080078125
,18.1911045,2.236328125
,18.2114706,2.34375
,18.2465056,2.40234375
,18.2680871,2.4072265625
,18.2692445,2.373046875
,18.2882789,2.32421875
,18.3226827,2.24609375
,18.3554167,2.1630859375
,18.3559985,2.0849609375
,18.3713004,2.0166015625
,18.4164575,1.9580078125
,18.4168193,1.9091796875
,18.4380905,1.8603515625
,18.4502861,1.8115234375
,18.470367,1.767578125
,18.4914653,1.71875
,18.525298,1.6650390625
,18.530433,1.6064453125
,18.5639638,1.552734375
,18.5850137,1.4892578125
,18.5933415,1.4306640625
,18.6134179,1.3720703125
,18.6340754,1.3134765625
,18.6805127,1.2548828125
,18.6810174,1.201171875
,18.6928181,1.181640625
,18.7120759,1.2109375
,18.7493113,1.3330078125
,18.7538579,1.5087890625
,18.7888135,1.73828125
,18.7923646,1.953125
,18.8353017,2.158203125
,18.8356614,2.2998046875
,18.8520382,2.412109375
,18.8708797,2.4609375
,18.9081491,2.4658203125
,18.9111695,2.431640625
,18.9447675,2.3583984375
,18.9664457,2.2705078125
,18.9732789,2.177734375
,19.0090646,2.08984375
,19.0394835,2.01171875
,19.0398428,1.9482421875
,19.0527366,1.89453125
,19.0886872,1.8359375
,19.0929983,1.7822265625
,19.1137806,1.7236328125
,19.1627152,1.6650390625
,19.1634202,1.6015625
,19.1686272,1.54296875
,19.1901313,1.484375
,19.2102163,1.4208984375
,19.2448827,1.3525390625
,19.2648518,1.2939453125
,19.2721599,1.23046875
,19.293363,1.1767578125
,19.3146056,1.123046875
,19.3350979,1.1083984375
,19.3542819,1.1474609375
,19.3962655,1.2939453125
,19.3966589,1.4892578125
,19.4111753,1.7431640625
,19.4473699,1.9677734375
,19.4759529,2.1728515625
,19.476465,2.314453125
,19.4937547,2.421875
,19.514225,2.4755859375
,19.553958,2.4853515625
,19.5545384,2.4462890625
,19.5702575,2.3876953125
,19.6147458,2.3046875
,19.6153248,2.216796875
,19.6344988,2.12890625
,19.6531914,2.0556640625
,19.6919916,1.982421875
,19.6952286,1.9189453125
,19.7414233,1.865234375
,19.7417898,1.8017578125
,19.7521312,1.748046875
,19.7894695,1.6845703125
,19.7927989,1.6259765625
,19.8131753,1.5673828125
,19.8334422,1.50390625
,19.8832631,1.4404296875
,19.8835664,1.376953125
,19.8958534,1.30859375
,19.9150697,1.2451171875
,19.9371592,1.162109375
,19.952275,1.0888671875
,19.9882965,1.07421875
,19.9935086,1.103515625
,20.0277037,1.220703125
,20.0466473,1.40625
,20.054389,1.630859375
,20.0921863,1.8408203125
,20.0979347,2.041015625
,20.1116187,2.177734375
,20.1485357,2.294921875
,20.1529772,2.353515625
,20.1886071,2.3681640625
,20.1938003,2.333984375
,20.2296016,2.275390625
,20.249936,2.1923828125
,20.2551274,2.109375
,20.2921899,2.0166015625
,20.293087,1.93359375
,20.3211747,1.8701171875
,20.3333713,1.8115234375
,20.3683843,1.767578125
,20.3891873,1.71875
,20.3944474,1.6650390625
,20.4305311,1.6064453125
,20.4634066,1.54296875
,20.4640038,1.484375
,20.4738352,1.4306640625
,20.5095569,1.3671875
,20.5129966,1.3037109375
,20.5494384,1.25
,20.5549283,1.1865234375
,20.592866,1.1279296875
,20.5958624,1.07421875
,20.6325253,1.03515625
,20.6358337,1.0302734375
,20.6583098,1.0888671875
,20.6737109,1.2255859375
,20.7096299,1.455078125
,20.7305872,1.669921875
,20.735411,1.8798828125
,20.756211,2.0263671875
,20.7919687,2.1484375
,20.7970079,2.2119140625
,20.8321343,2.236328125
,20.8325124,2.20703125
,20.8700543,2.1728515625
,20.8728753,2.1044921875
,20.9096029,2.03125
,20.9289992,1.962890625
,20.9340838,1.904296875
,20.9691725,1.8408203125
,20.9896925,1.787109375
,20.9967469,1.7333984375
,21.0133812,1.6845703125
,21.0593755,1.640625
,21.059977,1.591796875
,21.0906767,1.5380859375
,21.0955045,1.4892578125
,21.1365166,1.4404296875
,21.137213,1.38671875
,21.1572987,1.328125
,21.1911472,1.2744140625
,21.2130943,1.2109375
,21.2136768,1.1669921875
,21.2621665,1.1181640625
,21.2627581,1.0888671875
,21.2919979,1.083984375
,21.2973139,1.15234375
,21.3168247,1.2890625
,21.3517413,1.4990234375
,21.3563764,1.7041015625
,21.3918501,1.884765625
,21.4162965,2.03125
,21.4168843,2.1533203125
,21.4352016,2.2265625
,21.4697948,2.255859375
,21.4901943,2.236328125
,21.495878,2.1923828125
,21.531021,2.1337890625
,21.5517676,2.0703125
,21.5570062,2.01171875
,21.5743391,1.9482421875
,21.6171336,1.8994140625
,21.6177121,1.8505859375
,21.6370642,1.806640625
,21.6792606,1.767578125
,21.6797258,1.71875
,21.697942,1.669921875
,21.7324471,1.6162109375
,21.753368,1.5625
,21.7538791,1.513671875
,21.7889139,1.46484375
,21.8112864,1.40625
,21.8156099,1.3525390625
,21.8526059,1.2939453125
,21.8722602,1.2353515625
,21.8767482,1.1865234375
,21.9131751,1.15234375
,21.9135383,1.15234375
,21.9608744,1.25
,21.9613149,1.4013671875
,21.9817444,1.6162109375
,21.9971805,1.81640625
,22.0319104,2.0166015625
,22.0377975,2.1630859375
,22.0579515,2.275390625
,22.0931534,2.3388671875
,22.0981542,2.373046875
,22.1163988,2.3583984375
,22.1632725,2.32421875
,22.1637995,2.2607421875
,22.1752701,2.1875
,22.2107219,2.1142578125
,22.2307354,2.0556640625
,22.2383805,1.9970703125
,22.2906383,1.9384765625
,22.2912226,1.884765625
,22.2933617,1.8359375
,22.3360237,1.7919921875
,22.336618,1.7431640625
,22.3565059,1.689453125
,22.3914284,1.630859375
,22.4121349,1.58203125
,22.4172316,1.5283203125
,22.4640589,1.4697265625
,22.4646364,1.416015625
,22.4761627,1.357421875
,22.5102063,1.3037109375
,22.5309747,1.25
,22.5375608,1.23046875
,22.5900886,1.25
,22.5906726,1.357421875
,22.5983244,1.5283203125
,22.6333992,1.748046875
,22.6368401,1.962890625
,22.6560866,2.16796875
,22.7015864,2.314453125
,22.7021987,2.4267578125
,22.7319388,2.490234375
,22.7388876,2.5146484375
,22.7772949,2.5048828125
,22.7776607,2.4560546875
,22.8124487,2.3779296875
,22.8331636,2.2900390625
,22.8398538,2.2021484375
,22.8564672,2.1337890625
,22.9033739,2.0751953125
,22.9039286,2.0166015625
,22.9339246,1.9580078125
,22.9401342,1.904296875
,22.9586927,1.8505859375
,22.9928,1.796875
,23.0144809,1.7333984375
,23.0149542,1.6650390625
,23.0518572,1.6064453125
,23.0570575,1.5478515625
,23.104707,1.4892578125
,23.1050786,1.42578125
,23.1192458,1.3671875
,23.1545992,1.30859375
,23.1610707,1.25
,23.1980654,1.2158203125
,23.198431,1.2255859375
,23.216641,1.328125
,23.2515322,1.4990234375
,23.2585247,1.7138671875
,23.3066648,1.9189453125
,23.3072465,2.119140625
,23.3188747,2.2607421875
,23.3531904,2.3681640625
,23.3735318,2.4267578125
,23.3785125,2.451171875
,23.4174901,2.431640625
,23.4179396,2.3779296875
,23.4630108,2.3046875
,23.4636188,2.216796875
,23.4805635,2.12890625
,23.5158005,2.0556640625
,23.5187307,1.9921875
,23.5556344,1.923828125
,23.5771479,1.875
,23.5777384,1.81640625
,23.6129191,1.7626953125
,23.6176454,1.7138671875
,23.6522577,1.6552734375
,23.6734162,1.591796875
,23.6789336,1.5283203125
,23.7150634,1.46484375
,23.7204277,1.40625
,23.7545709,1.3427734375
,23.7765691,1.279296875
,23.7769521,1.2255859375
,23.8149086,1.171875
,23.8356378,1.1376953125
,23.8400114,1.142578125
,23.8612639,1.2255859375
,23.8957642,1.3720703125
,23.9017007,1.5771484375
,23.9185437,1.77734375
,23.9529746,1.9775390625
,23.9577116,2.1240234375
,23.9942868,2.2265625
,23.9987313,2.2802734375
,24.0197769,2.2900390625
,24.0548993,2.2607421875
,24.0611475,2.20703125
,24.098016,2.12890625
,24.0986148,2.0458984375
,24.1322216,1.97265625
,24.1394414,1.9091796875
,24.1744041,1.8505859375
,24.1798028,1.796875
,24.213847,1.748046875
,24.234696,1.69921875
,24.2396796,1.6455078125
,24.2821571,1.5966796875
,24.2827569,1.54296875
,24.3019553,1.4892578125
,24.3194977,1.4404296875
,24.3403203,1.3818359375
,24.3754349,1.3232421875
,24.3798986,1.26953125
,24.4250076,1.2158203125
,24.4255947,1.162109375
,24.4421173,1.1181640625
,24.4871184,1.0986328125
,24.487698,1.1279296875
,24.4977938,1.2548828125
,24.5342645,1.4208984375
,24.5543064,1.6357421875
,24.5597586,1.81640625
,24.597864,1.9873046875
,24.6023056,2.099609375
,24.6232834,2.177734375
,24.6382767,2.20703125
,24.673043,2.2021484375
,24.693128,2.1533203125
,24.6987595,2.08984375
,24.736144,2.0166015625
,24.739194,1.9482421875
,24.7758249,1.8798828125
,24.7805478,1.81640625
,24.829303,1.767578125
,24.8297634,1.728515625
,24.8505103,1.689453125
,24.8604878,1.650390625
,24.9050665,1.611328125
,24.9054324,1.5673828125
,24.9209673,1.5185546875
,24.9565415,1.46484375
,24.9775704,1.416015625
,24.9804916,1.357421875
,25.0168986,1.3037109375
,25.0370572,1.2548828125
,25.0374551,1.2060546875
,25.0752651,1.1669921875
,25.1089637,1.1328125
,25.10933,1.1572265625
,25.121052,1.2451171875
,25.1576951,1.416015625
,25.1777518,1.6162109375
,25.1827284,1.8310546875
,25.1989498,2.0068359375
,25.2339176,2.158203125
,25.2553651,2.2509765625
,25.2602835,2.3095703125
,25.3141972,2.3193359375
,25.3146636,2.2900390625
,25.3226405,2.2265625
,25.3570142,2.1630859375
,25.3773981,2.0849609375
,25.3807992,2.0166015625
,25.3994279,1.9580078125
,25.4339659,1.904296875
,25.4549128,1.8505859375
,25.4626534,1.806640625
,25.4977875,1.7626953125
,25.50227,1.7138671875
,25.5367839,1.6650390625
,25.5570362,1.611328125
,25.5641854,1.5625
,25.5813097,1.4892578125
,25.6022823,1.4453125
,25.6212312,1.396484375
,25.6571864,1.34765625
,25.6620808,1.3037109375
,25.7041722,1.25
,25.7045537,1.2109375
,25.7253161,1.1962890625
,25.7439811,1.259765625
,25.7596347,1.38671875
,25.7798628,1.5966796875
,25.8135566,1.8115234375
,25.8341812,2.03125
,25.8447238,2.1923828125
,25.8625668,2.333984375
,25.8994798,2.412109375
,25.9023159,2.4609375
,25.9213311,2.4560546875
,25.9554064,2.431640625
,25.9602478,2.3681640625
,25.9955022,2.294921875
,26.0155497,2.2119140625
,26.0209987,2.1337890625
,26.0626621,2.0654296875
,26.0630786,2.0068359375
,26.0827047,1.943359375
,26.1014737,1.8896484375
,26.1393543,1.8408203125
,26.1417351,1.7919921875
,26.1624119,1.728515625
,26.2024275,1.669921875
,26.2030177,1.6015625
,26.2358867,1.54296875
,26.2566666,1.484375
,26.2632666,1.42578125
,26.2978997,1.34765625
,26.3045999,1.279296875
,26.3229336,1.2109375
,26.3425013,1.181640625
,26.3794706,1.171875
,26.3842781,1.23046875
,26.4200859,1.3525390625
,26.4247999,1.5478515625
,26.4764404,1.7578125
,26.4770411,1.97265625
,26.4798004,2.1435546875
,26.5133571,2.2900390625
,26.5347045,2.3681640625
,26.5444503,2.4169921875
,26.5633881,2.4169921875
,26.5990703,2.3779296875
,26.6037428,2.3095703125
,26.6457912,2.2265625
,26.6461567,2.138671875
,26.6638615,2.0556640625
,26.6813531,1.982421875
,26.7164575,1.9189453125
,26.7371702,1.8505859375
,26.7428691,1.7919921875
,26.7779457,1.728515625
,26.797974,1.6748046875
,26.8040463,1.611328125
,26.8228544,1.54296875
,26.8646789,1.484375
,26.8656172,1.42578125
,26.8835018,1.3623046875
,26.9282872,1.3037109375
,26.9287568,1.2451171875
,26.9438757,1.19140625
,26.9789407,1.1279296875
,26.9835142,1.07421875
,27.0074261,1.044921875
,27.0510557,1.044921875
,27.0514138,1.1328125
,27.0634977,1.30859375
,27.1135892,1.513671875
,27.1140131,1.7333984375
,27.1432248,1.9189453125
,27.1435917,2.0751953125
,27.1905577,2.1728515625
,27.1911263,2.2412109375
,27.2109442,2.2607421875
,27.2208625,2.2509765625
,27.243492,2.2021484375
,27.2825685,2.1337890625
,27.2829301,2.0458984375
,27.3034467,1.962890625
,27.3454869,1.89453125
,27.3458444,1.8359375
,27.3664708,1.77734375
,27.3832309,1.71875
,27.4184825,1.669921875
,27.4234349,1.62109375
,27.4585925,1.572265625
,27.4648824,1.5234375
,27.5027112,1.4697265625
,27.50739,1.40625
,27.526474,1.3525390625
,27.5414058,1.2939453125
,27.5778625,1.25
,27.5972547,1.201171875
,27.6027197,1.1474609375
,27.6388538,1.09375
,27.6438268,1.0498046875
,27.6805249,1.044921875
,27.6852419,1.0888671875
,27.7210239,1.2109375
,27.7268808,1.38671875
,27.7691013,1.6064453125
,27.7694968,1.8017578125
,27.7847724,1.982421875
,27.8199544,2.099609375
,27.8256008,2.1826171875
,27.8605033,2.2216796875
,27.8811977,2.216796875
,27.8858555,2.177734375
,27.9221388,2.1142578125
,27.9275312,2.041015625
,27.9436983,1.962890625
,27.9793153,1.9091796875
,28.0010801,1.85546875
,28.0055771,1.796875
,28.0258819,1.7529296875
,28.0608111,1.708984375
,28.0814853,1.6650390625
,28.086596,1.6162109375
,28.1049081,1.5673828125
,28.1399985,1.5185546875
,28.1432796,1.4697265625
,28.1802635,1.416015625
,28.1856772,1.3671875
,28.2217673,1.3134765625
,28.227548,1.259765625
,28.2460052,1.2060546875
,28.2662771,1.1572265625
,28.2837553,1.1083984375
,28.3198097,1.0888671875
,28.3227745,1.1083984375
,28.3572767,1.2109375
,28.3780567,1.376953125
,28.3857094,1.591796875
,28.4070149,1.8017578125
,28.4280085,1.9921875
,28.4628718,2.1337890625
,28.4676373,2.24609375
,28.4839791,2.3046875
,28.5202104,2.333984375
,28.5498939,2.314453125
,28.5502673,2.275390625
,28.5655564,2.20703125
,28.5995625,2.12890625
,28.6212438,2.0556640625
,28.628602,1.9970703125
,28.663912,1.9384765625
,28.6642754,1.884765625
,28.7017954,1.8359375
,28.7025385,1.787109375
,28.7495818,1.73828125
,28.7499472,1.6845703125
,28.7675615,1.6259765625
,28.8129276,1.5673828125
,28.8133909,1.513671875
,28.8258247,1.455078125
,28.8609524,1.4013671875
,28.8639647,1.34765625
,28.8997042,1.2841796875
,28.9221458,1.2353515625
,28.9265534,1.1865234375
,28.9615242,1.1474609375
,28.9685507,1.1279296875
,28.9892884,1.1767578125
,29.0052894,1.298828125
,29.0403244,1.50390625
,29.046375,1.7236328125
,29.0654181,1.9580078125
,29.1005612,2.138671875
,29.1055499,2.294921875
,29.1412565,2.392578125
,29.1619942,2.451171875
,29.1698702,2.4658203125
,29.1886437,2.44140625
,29.2231859,2.3779296875
,29.2447622,2.2900390625
,29.2452502,2.20703125
,29.2810392,2.12890625
,29.302326,2.060546875
,29.3070452,1.9970703125
,29.3579167,1.93359375
,29.3584018,1.875
,29.3697634,1.8115234375
,29.3855888,1.7529296875
,29.4360468,1.6943359375
,29.4368381,1.630859375
,29.4461291,1.572265625
,29.4834882,1.50390625
,29.4858415,1.4453125
,29.5298497,1.38671875
,29.530209,1.318359375
,29.5595915,1.2451171875
,29.5646192,1.19140625
,29.6025314,1.1376953125
,29.6082049,1.103515625
,29.6277479,1.0888671875
,29.6467269,1.1328125
,29.6807205,1.26953125
,29.701873,1.46484375
,29.7098443,1.7041015625
,29.7247888,1.9189453125
,29.7610556,2.1142578125
,29.7671966,2.255859375
,29.8029213,2.3583984375
,29.8058772,2.4072265625
,29.8433206,2.412109375
,29.8478875,2.373046875
,29.882645,2.294921875
,29.9049735,2.197265625
,29.9099722,2.099609375
,29.9513965,2.001953125
,29.9517563,1.9287109375
,29.9678254,1.875
,30.0019664,1.8115234375
,30.022660000000002,1.7431640625
,30.027963999999997,1.6796875
,30.075052999999997,1.630859375
,30.075549700000003,1.5869140625
,30.096435200000002,1.533203125
,30.1057968,1.4697265625
,30.139783,1.40625
,30.1612224,1.357421875
,30.166886400000003,1.3037109375
,30.204122400000003,1.2451171875
,30.208632100000003,1.181640625
,30.243628299999997,1.1279296875
,30.2490534,1.083984375
,30.2943698,1.0498046875
,30.2947408,1.0498046875
,30.305857500000002,1.1279296875
,30.3569081,1.2841796875
,30.3573496,1.5087890625
,30.3879198,1.728515625
,30.3883916,1.943359375
,30.425947700000002,2.0947265625
,30.4290176,2.2265625
,30.445644100000003,2.3046875
,30.483229299999998,2.34375
,30.486178600000002,2.32421875
,30.5075086,2.275390625
,30.559654100000003,2.20703125
,30.560246900000003,2.1240234375
,30.567957800000002,2.0361328125
,30.6041053,1.9677734375
,30.6102962,1.9189453125
,30.653809600000002,1.865234375
,30.6543869,1.806640625
,30.683290900000003,1.7529296875
,30.686564699999998,1.7138671875
,30.732783400000002,1.6748046875
,30.7333792,1.630859375
,30.747748199999997,1.572265625
,30.782359300000003,1.513671875
,30.801496299999997,1.455078125
,30.8096939,1.3916015625
,30.8554836,1.328125
,30.855850599999997,1.26953125
,30.876078,1.2255859375
,30.8896491,1.171875
,30.9086206,1.1328125
,30.9425673,1.11328125
,30.963542500000003,1.1669921875
,30.969594999999998,1.2939453125
,31.0108478,1.494140625
,31.0114411,1.7041015625
,31.040901499999997,1.9189453125
,31.047539299999997,2.0849609375
,31.083526300000003,2.2119140625
,31.089877,2.28515625
,31.1243872,2.3193359375
,31.1302837,2.3046875
,31.1797075,2.2607421875
,31.180133599999998,2.1923828125
,31.200148300000002,2.1142578125
,31.2111564,2.0458984375
,31.228932399999998,1.962890625
,31.272567199999997,1.9189453125
,31.2731456,1.875
,31.2907357,1.826171875
,31.326143799999997,1.7822265625
,31.330224299999998,1.73828125
,31.365237800000003,1.6943359375
,31.385626000000002,1.650390625
,31.388823799999997,1.6015625
,31.407865700000002,1.552734375
,31.4425917,1.5087890625
,31.463468300000002,1.455078125
,31.4674992,1.4013671875
,31.503094400000002,1.34765625
,31.5235166,1.2939453125
,31.531799,1.2353515625
,31.567871599999997,1.19140625
,31.5682397,1.19140625
,31.6026954,1.279296875
,31.623672,1.42578125
,31.629064399999997,1.640625
,31.6650056,1.85546875
,31.6707204,2.0654296875
,31.708754,2.2216796875
,31.710865400000003,2.34375
,31.728169,2.4072265625
,31.7637202,2.4462890625
,31.770414199999998,2.421875
,31.789640300000002,2.373046875
,31.825197699999997,2.3046875
,31.845689800000002,2.216796875
,31.850701899999997,2.1337890625
,31.896819100000002,2.060546875
,31.897415600000002,1.9970703125
,31.908132799999997,1.943359375
,31.9415568,1.8896484375
,31.972726700000003,1.8212890625
,31.973294199999998,1.7822265625
,31.9895218,1.73828125
,32.0333778,1.689453125
,32.0339624,1.640625
,32.0538943,1.591796875
,32.072499,1.533203125
,32.1074243,1.4697265625
,32.1125148,1.416015625
,32.1285322,1.357421875
,32.1643687,1.3134765625
,32.1706787,1.2646484375
,32.2067669,1.240234375
,32.211907,1.2744140625
,32.2505562,1.4111328125
,32.2510052,1.6015625
,32.2990198,1.845703125
,32.2995976,2.0654296875
,32.3288524,2.275390625
,32.329218,2.4267578125
,32.3656532,2.5390625
,32.3703312,2.59765625
,32.4228026,2.6123046875
,32.4233178,2.578125
,32.4325081,2.5048828125
,32.4691691,2.4169921875
,32.4697747,2.3193359375
,32.4892907,2.2314453125
,32.526352,2.1533203125
,32.528617,2.0849609375
,32.5650067,2.0361328125
,32.5854869,1.9775390625
,32.5913088,1.9189453125
,32.6269924,1.85546875
,32.647622,1.796875
,32.6530125,1.728515625
,32.6692697,1.66015625
,32.7083234,1.6162109375
,32.7385766,1.572265625
,32.7390045,1.513671875
,32.7519073,1.4599609375
,32.7877609,1.4013671875
,32.7928707,1.34765625
,32.8273334,1.2939453125
,32.8474403,1.2841796875
,32.8500618,1.328125
,32.8885337,1.4892578125
,32.8890766,1.69921875
,32.9224417,1.943359375
,32.9437549,2.158203125
,32.9538508,2.34375
,33.0056915,2.4658203125
,33.0062669,2.5537109375
,33.0089734,2.5927734375
,33.0439566,2.59765625
,33.0648933,2.548828125
,33.0703825,2.4658203125
,33.1068894,2.3681640625
,33.1118075,2.275390625
,33.1335793,2.177734375
,33.153517,2.099609375
,33.1886513,2.0361328125
,33.1890138,1.97265625
,33.2365058,1.923828125
,33.2369216,1.8701171875
,33.2568691,1.8115234375
,33.2730985,1.7529296875
,33.3083406,1.6943359375
,33.3118406,1.6357421875
,33.3619955,1.572265625
,33.3625789,1.5087890625
,33.3930912,1.4404296875
,33.3936797,1.3525390625
,33.412122,1.2890625
,33.4531783,1.2451171875
,33.4535862,1.2060546875
,33.4729911,1.201171875
,33.5102022,1.2646484375
,33.5147282,1.4306640625
,33.5632492,1.6455078125
,33.5636294,1.8896484375
,33.5723369,2.0947265625
,33.6058489,2.2802734375
,33.6256445,2.3974609375
,33.6312348,2.4755859375
,33.6723196,2.4951171875
,33.6726818,2.4755859375
,33.6922551,2.412109375
,33.7349244,2.32421875
,33.7355183,2.2314453125
,33.750688,2.1484375
,33.7865942,2.0751953125
,33.8074513,2.01171875
,33.8123242,1.953125
,33.8508849,1.89453125
,33.8537388,1.8408203125
,33.8911673,1.7919921875
,33.8955239,1.7333984375
,33.9115559,1.6748046875
,33.9454794,1.6259765625
,33.9493789,1.5673828125
,33.9842779,1.513671875
,34.0054544,1.455078125
,34.0129656,1.3916015625
,34.0483501,1.328125
,34.069392,1.2646484375
,34.0747077,1.2109375
,34.1100605,1.1767578125
,34.1150616,1.1865234375
,34.132041,1.2646484375
,34.1664525,1.435546875
,34.1863367,1.6455078125
,34.1934649,1.8798828125
,34.2335628,2.0654296875
,34.2340872,2.2216796875
,34.2805884,2.314453125
,34.2809769,2.36328125
,34.2903865,2.36328125
,34.3248204,2.3388671875
,34.3448043,2.2705078125
,34.3546321,2.1875
,34.3896169,2.1044921875
,34.3940146,2.0263671875
,34.430194,1.962890625
,34.4361673,1.8994140625
,34.4833915,1.8408203125
,34.4839912,1.7919921875
,34.4940123,1.748046875
,34.5307169,1.708984375
,34.531282,1.66015625
,34.5793527,1.611328125
,34.5797084,1.5625
,34.6106585,1.50390625
,34.6151209,1.4501953125
,34.6499194,1.3916015625
,34.6717309,1.328125
,34.6720949,1.279296875
,34.7080713,1.23046875
,34.7290804,1.1962890625
,34.7339123,1.19140625
,34.7808368,1.259765625
,34.7814222,1.396484375
,34.7971156,1.6064453125
,34.832783,1.81640625
,34.8357647,2.021484375
,34.8541656,2.177734375
,34.873441,2.3046875
,34.9079538,2.36328125
,34.9285925,2.3828125
,34.9366575,2.3583984375
,34.9822313,2.3095703125
,34.9825955,2.2314453125
,34.9952159,2.1484375
,35.046364,2.0703125
,35.0470694,1.9921875
,35.0540255,1.93359375
,35.0922249,1.8798828125
,35.097005,1.8310546875
,35.115082,1.77734375
,35.1550172,1.7333984375
,35.1554929,1.6748046875
,35.1760638,1.6259765625
,35.1924622,1.572265625
,35.22871,1.5283203125
,35.2346498,1.4697265625
,35.2539312,1.4111328125
,35.2889775,1.357421875
,35.3090946,1.298828125
,35.3160552,1.2451171875
,35.356832,1.1962890625
,35.3574782,1.1865234375
,35.3730654,1.2451171875
,35.4091412,1.40625
,35.4139632,1.611328125
,35.4335301,1.85546875
,35.4808123,2.0654296875
,35.4811988,2.2509765625
,35.50185,2.3828125
,35.5170629,2.4755859375
,35.5511922,2.509765625
,35.5726393,2.5146484375
,35.5732578,2.4658203125
,35.6083839,2.40234375
,35.6283957,2.3193359375
,35.6342021,2.2314453125
,35.6836437,2.1435546875
,35.6842226,2.0751953125
,35.7137251,2.0068359375
,35.7185037,1.953125
,35.7622442,1.89453125
,35.7626146,1.8310546875
,35.7740085,1.7724609375
,35.8090973,1.7138671875
,35.8167451,1.6552734375
,35.8576757,1.5966796875
,35.8582608,1.5380859375
,35.893021,1.4794921875
,35.8962279,1.4208984375
,35.9343695,1.357421875
,35.9347217,1.3037109375
,35.9661819,1.2548828125
,35.9767714,1.220703125
,36.0110329,1.25
,36.0173928,1.34765625
,36.0523712,1.5283203125
,36.0572485,1.7333984375
,36.0923239,1.953125
,36.0929342,2.1337890625
,36.1279971,2.294921875
,36.1491576,2.392578125
,36.1570298,2.4609375
,36.1770372,2.4755859375
,36.1969982,2.4462890625
,36.2326278,2.3828125
,36.2371614,2.3046875
,36.2727901,2.2216796875
,36.2771363,2.1435546875
,36.3113205,2.0654296875
,36.3323061,1.9970703125
,36.3373644,1.9384765625
,36.3575207,1.875
,36.3772193,1.8212890625
,36.4189988,1.7626953125
,36.4193572,1.69921875
,36.4375834,1.630859375
,36.472404,1.5625
,36.4751602,1.50390625
,36.5114944,1.4453125
,36.530141,1.3818359375
,36.5364657,1.3134765625
,36.571362,1.25
,36.5766236,1.1962890625
,36.620633,1.1474609375
,36.6212041,1.123046875
,36.639242,1.15234375
,36.6547199,1.2548828125
,36.6894816,1.4404296875
,36.7094612,1.650390625
,36.7168084,1.875
,36.7575211,2.041015625
,36.7578835,2.1923828125
,36.7928582,2.28515625
,36.8147033,2.34375
,36.8153551,2.353515625
,36.8516695,2.32421875
,36.8564293,2.2607421875
,36.9007723,2.1826171875
,36.9013774,2.0947265625
,36.9184761,2.0166015625
,36.9370584,1.943359375
,36.9731,1.8798828125
,36.9791789,1.8212890625
,37.0156273,1.767578125
,37.0210984,1.7138671875
,37.0371262,1.6650390625
,37.0721318,1.6162109375
,37.0757064,1.5625
,37.1122293,1.4990234375
,37.1173921,1.4404296875
,37.1652972,1.38671875
,37.1656701,1.3330078125
,37.1796225,1.26953125
,37.2147427,1.220703125
,37.215222,1.162109375
,37.2595429,1.123046875
,37.259927,1.09375
,37.2892067,1.0986328125
,37.2990931,1.162109375
,37.3365838,1.30859375
,37.3391723,1.494140625
,37.3833044,1.708984375
,37.3836585,1.8798828125
,37.4136038,2.0361328125
,37.4181289,2.1337890625
,37.4378551,2.197265625
,37.4770433,2.2216796875
,37.5076529,2.197265625
,37.508042,2.138671875
,37.5198668,2.0703125
,37.5410377,1.9921875
,37.5558418,1.923828125
,37.6007817,1.865234375
,37.6012428,1.7919921875
,37.6173733,1.7529296875
,37.6529483,1.7138671875
,37.6732,1.6748046875
,37.6809069,1.6357421875
,37.725707,1.591796875
,37.7263076,1.5478515625
,37.7421575,1.4990234375
,37.757347,1.4453125
,37.7925588,1.40625
,37.7975511,1.3623046875
,37.8315616,1.3134765625
,37.8525416,1.26953125
,37.8596332,1.220703125
,37.8798031,1.171875
,37.9143961,1.1376953125
,37.9346396,1.123046875
,37.9364747,1.15234375
,37.9751765,1.2646484375
,37.9954658,1.42578125
,38.0001259,1.6357421875
,38.0360001,1.8212890625
,38.0386646,1.9873046875
,38.0586193,2.099609375
,38.0941777,2.1826171875
,38.114481,2.216796875
,38.1152344,2.2265625
,38.1526359,2.1923828125
,38.1578139,2.12890625
,38.1942491,2.05078125
,38.2240341,1.9775390625
,38.2244245,1.904296875
,38.2402925,1.8505859375
,38.2871632,1.796875
,38.2877751,1.748046875
,38.3013998,1.6845703125
,38.3196632,1.6259765625
,38.3385648,1.6015625
,38.3799371,1.5625
,38.3803093,1.513671875
,38.4149019,1.46484375
,38.4202103,1.416015625
,38.4557508,1.3623046875
,38.4612169,1.30859375
,38.480567,1.259765625
,38.4987679,1.2060546875
,38.5335682,1.1669921875
,38.5379582,1.1181640625
,38.5733345,1.09375
,38.5971145,1.083984375
,38.6026837,1.15234375
,38.6450462,1.2841796875
,38.6454492,1.484375
,38.6574216,1.689453125
,38.7062466,1.89453125
,38.7070578,2.05078125
,38.7189726,2.177734375
,38.7688522,2.24609375
,38.769316,2.2802734375
,38.7804006,2.275390625
,38.8170284,2.24609375
,38.8481444,2.177734375
,38.8485993,2.099609375
,38.8593652,2.03125
,38.8952427,1.962890625
,38.9006029,1.904296875
,38.935755,1.845703125
,38.9393667,1.7919921875
,38.9758717,1.73828125
,38.9826827,1.6845703125
,39.0026109,1.630859375
,39.0244766,1.552734375
,39.0403177,1.484375
,39.0814184,1.4453125
,39.0819921,1.4013671875
,39.1015886,1.3525390625
,39.1212457,1.3037109375
,39.1564768,1.2451171875
,39.1622139,1.201171875
,39.1805556,1.15234375
,39.2227777,1.1083984375
,39.2232678,1.064453125
,39.2533371,1.0498046875
,39.2604028,1.083984375
,39.3010225,1.2109375
,39.3014872,1.38671875
,39.3460469,1.6064453125
,39.3465316,1.806640625
,39.3624213,1.9873046875
,39.3785825,2.119140625
,39.4159651,2.2216796875
,39.4198642,2.275390625
,39.4541771,2.294921875
,39.4746171,2.2705078125
,39.4798785,2.2119140625
,39.5174661,2.1337890625
,39.5489249,2.0556640625
,39.5498091,1.9873046875
,39.56024,1.9140625
,39.6091243,1.85546875
,39.6094934,1.796875
,39.6215842,1.7431640625
,39.6565313,1.6943359375
,39.6887969,1.6357421875
,39.6893755,1.5771484375
,39.7028872,1.5185546875
,39.722391,1.4599609375
,39.7665869,1.3818359375
,39.7670585,1.328125
,39.7789421,1.26953125
,39.8124659,1.2255859375
,39.8330871,1.1767578125
,39.8437724,1.1376953125
,39.8621753,1.09375
,39.8975472,1.0546875
,39.9177515,1.0205078125
,39.9237162,1.025390625
,39.9397223,1.09375
,39.9844141,1.25
,39.9847813,1.4453125
,40.0056408,1.66015625
,40.0224178,1.845703125
,40.05807,2.001953125
,40.0655114,2.1142578125
,40.0842946,2.197265625
,40.1048795,2.2265625
,40.1202651,2.216796875
,40.1560883,2.177734375
,40.162095,2.1142578125
,40.1980655,2.041015625
,40.204423,1.9677734375
,40.2228819,1.8994140625
,40.2586415,1.8408203125
,40.2620821,1.7822265625
,40.2799223,1.73828125
,40.3145682,1.7041015625
,40.3351531,1.6552734375
,40.3428142,1.611328125
,40.3619413,1.5625
,40.4051559,1.5087890625
,40.405559,1.4599609375
,40.4256674,1.40625
,40.4451891,1.34765625
,40.4650071,1.2939453125
,40.4993958,1.2451171875
,40.4998171,1.201171875
,40.5341217,1.162109375
,40.5546482,1.1279296875
,40.5620528,1.09375
,40.5972705,1.083984375
,40.6177165,1.1474609375
,40.6245008,1.279296875
,40.6595337,1.474609375
,40.6600389,1.6845703125
,40.6970526,1.89453125
,40.7019982,2.05078125
,40.7370443,2.1875
,40.7420692,2.2705078125
,40.7765589,2.3046875
,40.7964287,2.2998046875
,40.8053434,2.2607421875
,40.8403624,2.197265625
,40.8409762,2.1337890625
,40.8620137,2.0751953125
,40.8968723,2.0166015625
,40.9018108,1.962890625
,40.9457239,1.9140625
,40.9463007,1.865234375
,40.9665066,1.8212890625
,41.0103886,1.77734375
,41.0108036,1.7333984375
,41.0211241,1.6943359375
,41.0420633,1.6455078125
,41.0771095,1.6015625
,41.103725,1.54296875
,41.1040906,1.4892578125
,41.1507706,1.4404296875
,41.1511429,1.38671875
,41.1652083,1.3330078125
,41.2005765,1.2841796875
,41.2056105,1.2353515625
,41.2217162,1.1962890625
,41.2612418,1.201171875
,41.2795712,1.2744140625
,41.2841745,1.435546875
,41.3202389,1.630859375
,41.3233535,1.85546875
,41.360274,2.0458984375
,41.3654247,2.2265625
,41.4003817,2.36328125
,41.4007431,2.4365234375
,41.4368356,2.4853515625
,41.4572544,2.4853515625
,41.4622636,2.4462890625
,41.5094475,2.3828125
,41.509806,2.3095703125
,41.5395118,2.236328125
,41.5456205,2.1630859375
,41.5616827,2.0947265625
,41.5990261,2.0361328125
,41.6037814,1.982421875
,41.6385315,1.9287109375
,41.6438747,1.875
,41.6802967,1.8115234375
,41.7019131,1.7529296875
,41.70253,1.69921875
,41.7379172,1.640625
,41.7597739,1.5771484375
,41.7603697,1.5283203125
,41.7978853,1.4697265625
,41.81794,1.4208984375
,41.8245158,1.376953125
,41.8664314,1.328125
,41.8670301,1.279296875
,41.8843927,1.259765625
,41.9212228,1.2841796875
,41.9267032,1.40625
,41.9429683,1.5966796875
,41.9788863,1.8505859375
,41.9833388,2.0849609375
,42.0205497,2.3095703125
,42.0255661,2.4853515625
,42.0682311,2.607421875
,42.0687315,2.6904296875
,42.0859621,2.71484375
,42.1317946,2.6904296875
,42.1321622,2.626953125
,42.1620941,2.548828125
,42.1624677,2.451171875
,42.2099421,2.353515625
,42.2103026,2.2607421875
,42.2301935,2.1728515625
,42.2456045,2.109375
,42.2885472,2.05078125
,42.2891144,1.9921875
,42.3019439,1.9384765625
,42.3373542,1.884765625
,42.3431191,1.8310546875
,42.380394,1.7822265625
,42.3852632,1.7236328125
,42.4271259,1.669921875
,42.4275424,1.6064453125
,42.4641329,1.5478515625
,42.4645689,1.4892578125
,42.4834714,1.435546875
,42.5194222,1.3720703125
,42.5247449,1.318359375
,42.5592463,1.2890625
,42.5836968,1.337890625
,42.5842867,1.4697265625
,42.6189131,1.669921875
,42.6407855,1.865234375
,42.6464054,2.080078125
,42.6824591,2.24609375
,42.6829298,2.36328125
,42.7184073,2.4462890625
,42.7387645,2.48046875
,42.7445299,2.4609375
,42.7823511,2.4072265625
,42.7850909,2.3291015625
,42.8315148,2.2412109375
,42.8318709,2.1435546875
,42.8533186,2.060546875
,42.8642088,1.9873046875
,42.8989885,1.923828125
,42.9034691,1.875
,42.9397632,1.8212890625
,42.9721615,1.767578125
,42.9726297,1.7138671875
,42.9893446,1.6552734375
,43.0071454,1.5966796875
,43.0246614,1.533203125
,43.0457924,1.4794921875
,43.0817455,1.416015625
,43.0843841,1.357421875
,43.121427,1.2890625
,43.1410301,1.2255859375
,43.1483363,1.1669921875
,43.1674179,1.1181640625
,43.1851339,1.09375
,43.2208887,1.1474609375
,43.2235252,1.279296875
,43.2457261,1.4794921875
,43.2799214,1.6943359375
,43.2845366,1.9091796875
,43.3202983,2.0849609375
,43.340018,2.2119140625
,43.3470552,2.294921875
,43.3945093,2.3291015625
,43.3949812,2.314453125
,43.42535,2.2607421875
,43.4258942,2.1875
,43.46092,2.109375
,43.4815755,2.0166015625
,43.4866966,1.9384765625
,43.5225676,1.865234375
,43.527529,1.8017578125
,43.5646139,1.7529296875
,43.5649794,1.7041015625
,43.6027151,1.650390625
,43.6068223,1.611328125
,43.6274562,1.5625
,43.6632109,1.5087890625
,43.6678545,1.46484375
,43.7056551,1.4111328125
,43.7060812,1.3525390625
,43.7399318,1.298828125
,43.7610427,1.2451171875
,43.765111,1.2060546875
,43.8161163,1.162109375
,43.8164811,1.142578125
,43.8266382,1.162109375
,43.862719,1.259765625
,43.8684888,1.4306640625
,43.9056038,1.6552734375
,43.9061676,1.865234375
,43.9281323,2.0751953125
,43.948174,2.20703125
,43.9672835,2.2900390625
,44.0190932,2.36328125
,44.0197035,2.3828125
,44.0276874,2.3583984375
,44.0644853,2.294921875
,44.0670908,2.2216796875
,44.1028862,2.1435546875
,44.1233276,2.0703125
,44.1265799,2.0068359375
,44.1751788,1.953125
,44.1755471,1.904296875
,44.186281,1.85546875
,44.2228426,1.81640625
,44.2286907,1.7724609375
,44.2640644,1.728515625
,44.2692601,1.6748046875
,44.3054339,1.630859375
,44.3057972,1.572265625
,44.3261501,1.533203125
,44.3598497,1.4794921875
,44.381302,1.42578125
,44.3887035,1.3720703125
,44.4243338,1.3232421875
,44.4290817,1.3037109375
,44.4658469,1.34765625
,44.466326,1.455078125
,44.5038466,1.6552734375
,44.5241912,1.8701171875
,44.5246181,2.0947265625
,44.5653807,2.275390625
,44.5862307,2.421875
,44.5869583,2.5146484375
,44.6276538,2.55859375
,44.6592115,2.5537109375
,44.6595741,2.5146484375
,44.6715466,2.421875
,44.6872729,2.3193359375
,44.7241606,2.2412109375
,44.7289429,2.1630859375
,44.7668676,2.1044921875
,44.7672442,2.05078125
,44.8026434,1.9921875
,44.8227475,1.943359375
,44.8301625,1.8994140625
,44.8465613,1.8505859375
,44.8912111,1.8115234375
,44.8915674,1.767578125
,44.9117137,1.71875
,44.9281656,1.669921875
,44.9633093,1.6162109375
,44.9704418,1.572265625
,44.9910208,1.5234375
,45.025738,1.474609375
,45.0261117,1.4306640625
,45.0624408,1.4501953125
,45.0919484,1.533203125
,45.0923155,1.7138671875
,45.1071992,1.923828125
,45.1287766,2.1533203125
,45.1639746,2.353515625
,45.1850836,2.5146484375
,45.1856419,2.626953125
,45.23264,2.705078125
,45.233203,2.724609375
,45.2537469,2.6904296875
,45.2678297,2.6171875
,45.2902634,2.5146484375
,45.3257214,2.4072265625
,45.3289828,2.2900390625
,45.3717847,2.1875
,45.3721856,2.1044921875
,45.3925899,2.021484375
,45.4074588,1.97265625
,45.4423709,1.93359375
,45.4624964,1.884765625
,45.4689386,1.8408203125
,45.5042611,1.7822265625
,45.511163,1.728515625
,45.547215,1.6796875
,45.5500971,1.62109375
,45.5863776,1.5625
,45.5869444,1.5087890625
,45.6217244,1.4599609375
,45.6512251,1.4111328125
,45.6518732,1.3916015625
,45.6706292,1.42578125
,45.7147586,1.5478515625
,45.7153497,1.7138671875
,45.7351002,1.9287109375
,45.7459385,2.1240234375
,45.7840792,2.2998046875
,45.7884654,2.421875
,45.8367381,2.5
,45.8371134,2.529296875
,45.8505475,2.5244140625
,45.8699894,2.4658203125
,45.904635,2.3681640625
,45.9258945,2.2607421875
,45.9262895,2.1435546875
,45.9623601,2.0556640625
,45.9830098,1.9775390625
,45.9880108,1.9091796875
,46.0270292,1.845703125
,46.0569919,1.787109375
,46.0573926,1.7333984375
,46.0718339,1.6845703125
,46.1070102,1.62109375
,46.1127999,1.5673828125
,46.1301034,1.4990234375
,46.1650289,1.4306640625
,46.1703383,1.3623046875
,46.1899328,1.2939453125
,46.2250454,1.2255859375
,46.2300244,1.1669921875
,46.265459,1.1328125
,46.2918457,1.1669921875
,46.292214,1.298828125
,46.3256072,1.484375
,46.3286087,1.7138671875
,46.350628,1.9140625
,46.3700173,2.099609375
,46.3917508,2.2265625
,46.4278818,2.3046875
,46.4309194,2.3291015625
,46.4646484,2.2998046875
,46.4858277,2.2265625
,46.4863343,2.12890625
,46.5261686,2.0068359375
,46.5458151,1.8798828125
,46.5518331,1.7626953125
,46.5875116,1.6650390625
,46.5906633,1.5869140625
,46.6266364,1.5283203125
,46.6476592,1.4697265625
,46.6483076,1.4111328125
,46.6971769,1.3720703125
,46.6978505,1.3232421875
,46.7182991,1.2841796875
,46.7302769,1.240234375
,46.7751252,1.1962890625
,46.7754899,1.142578125
,46.7927033,1.0888671875
,46.8283497,1.0302734375
,46.8333722,0.9765625
,46.867731,0.9521484375
,46.8703753,0.986328125
,46.9032738,1.1376953125
,46.9257608,1.3525390625
,46.9312806,1.611328125
,46.9533203,1.8505859375
,46.9742879,2.0556640625
,47.0082787,2.20703125
,47.0144014,2.3291015625
,47.0294785,2.3828125
,47.0638633,2.4072265625
,47.0848839,2.373046875
,47.0900421,2.2998046875
,47.1279876,2.20703125
,47.1324994,2.1142578125
,47.1829224,2.0263671875
,47.1834657,1.943359375
,47.1948049,1.8701171875
,47.2084008,1.796875
,47.2454708,1.7431640625
,47.2742591,1.6943359375
,47.2746215,1.6455078125
,47.2920272,1.5966796875
,47.3280727,1.5478515625
,47.3335239,1.4990234375
,47.3533873,1.455078125
,47.3692786,1.4013671875
,47.4052891,1.3427734375
,47.4260425,1.2841796875
,47.431018,1.2255859375
,47.4656474,1.1962890625
,47.4712652,1.23046875
,47.5070391,1.3525390625
,47.5132854,1.5234375
,47.5476501,1.7431640625
,47.567899,1.9287109375
,47.5730799,2.0947265625
,47.5908121,2.2119140625
,47.6279936,2.294921875
,47.6302092,2.314453125
,47.6648183,2.2998046875
,47.6918266,2.2412109375
,47.6921947,2.1435546875
,47.7243524,2.03125
,47.7449324,1.9140625
,47.7504915,1.787109375
,47.7872527,1.6845703125
,47.7916239,1.6015625
,47.825992,1.5283203125
,47.8465177,1.4501953125
,47.8536361,1.357421875
,47.8905809,1.26953125
,47.8954792,1.19140625
,47.9307443,1.1279296875
,47.9311252,1.0791015625
,47.9522936,1.025390625
,47.989212,0.966796875
,47.989572,0.8935546875
,48.0238685,0.830078125
,48.0447084,0.78125
,48.05395,0.7568359375
,48.0977779,0.810546875
,48.0982235,0.9619140625
,48.1111273,1.15234375
,48.1452095,1.396484375
,48.1657799,1.62109375
,48.1706679,1.826171875
,48.2092983,1.97265625
,48.2279302,2.0849609375
,48.2341959,2.1435546875
,48.2721667,2.1630859375
,48.272635,2.12890625
,48.3073619,2.0703125
,48.3273545,1.982421875
,48.3317582,1.8896484375
,48.368599,1.7919921875
,48.3712065,1.69921875
,48.4078445,1.6064453125
,48.4304498,1.533203125
,48.4351577,1.46484375
,48.4747587,1.4013671875
,48.475141,1.337890625
,48.4910381,1.2744140625
,48.5264102,1.2158203125
,48.5316375,1.162109375
,48.5688881,1.1083984375
,48.5897831,1.064453125
,48.5947603,1.0107421875
,48.6297214,0.9521484375
,48.6354308,0.8984375
,48.653231,0.849609375
,48.6882384,0.849609375
,48.6911866,0.9130859375
,48.7138001,1.064453125
,48.749813,1.279296875
,48.7558312,1.494140625
,48.8032182,1.7138671875
,48.8036693,1.884765625
,48.8144525,2.0263671875
,48.8322521,2.109375
,48.8811938,2.16796875
,48.8817427,2.177734375
,48.8932684,2.1533203125
,48.9296615,2.0947265625
,48.9347829,2.0166015625
,48.9539969,1.9287109375
,48.9893909,1.8359375
,49.0191331,1.7578125
,49.0197155,1.689453125
,49.0330302,1.62109375
,49.0668293,1.58203125
,49.0722637,1.533203125
,49.1124853,1.484375
,49.1128626,1.435546875
,49.1331791,1.3916015625
,49.1692975,1.337890625
,49.1902033,1.2890625
,49.1954812,1.2353515625
,49.214037,1.181640625
,49.2493117,1.142578125
,49.253534,1.0888671875
,49.2888464,1.0400390625
,49.2945546,1.025390625
,49.3305323,1.07421875
,49.3363509,1.1962890625
,49.3721924,1.376953125
,49.3754822,1.591796875
,49.3930251,1.7724609375
,49.4384126,1.953125
,49.4388725,2.0751953125
,49.4685954,2.1728515625
,49.4748348,2.216796875
,49.5093072,2.2265625
,49.5322524,2.2021484375
,49.5390605,2.1484375
,49.5526531,2.0751953125
,49.5874497,2.0068359375
,49.5921912,1.9287109375
,49.6271693,1.8603515625
,49.6473656,1.8017578125
,49.6552687,1.7431640625
,49.6905152,1.6845703125
,49.6944495,1.640625
,49.7350433,1.591796875
,49.7354882,1.54296875
,49.7813769,1.4892578125
,49.7819444,1.4453125
,49.8107853,1.3916015625
,49.815229,1.3330078125
,49.8503813,1.2841796875
,49.8553881,1.2353515625
,49.8933319,1.1865234375
,49.8962381,1.1474609375
,49.9299111,1.1279296875
,49.951504,1.171875
,49.9519568,1.298828125
,49.987104,1.4794921875
,50.0076606,1.6943359375
,50.0168118,1.89453125
,50.0526712,2.0556640625
,50.0578443,2.2021484375
,50.1073855,2.2900390625
,50.1077552,2.353515625
,50.1139608,2.3583984375
,50.1353742,2.3388671875
,50.1701743,2.2802734375
,50.1767623,2.20703125
,50.2168749,2.12890625
,50.2174179,2.0556640625
,50.237166,1.982421875
,50.271915,1.9140625
,50.2722876,1.8505859375
,50.307442,1.796875
,50.3397843,1.7236328125
,50.3401484,1.6796875
,50.3565704,1.630859375
,50.3931519,1.572265625
,50.3959101,1.5185546875
,50.4299833,1.46484375
,50.450723,1.4111328125
,50.4564629,1.3525390625
,50.4921585,1.2939453125
,50.512707,1.240234375
,50.5145301,1.1962890625
,50.5489075,1.171875
,50.5697016,1.181640625
,50.5768911,1.26953125
,50.62079,1.4404296875
,50.6212129,1.6455078125
,50.6373859,1.875
,50.6726638,2.099609375
,50.6938773,2.2705078125
,50.6943605,2.4267578125
,50.7307068,2.51953125
,50.7356443,2.5830078125
,50.7748476,2.59765625
,50.7754425,2.568359375
,50.8119113,2.5
,50.8403275,2.4072265625
,50.8409102,2.3095703125
,50.8546847,2.2119140625
,50.8760452,2.1240234375
,50.9105956,2.0458984375
,50.914855,1.982421875
,50.9489787,1.9091796875
,50.9698478,1.845703125
,50.9790616,1.7822265625
,51.0139138,1.7138671875
,51.0191603,1.650390625
,51.0541095,1.5771484375
,51.0544706,1.5234375
,51.075266,1.4794921875
,51.1117441,1.42578125
,51.1178671,1.3720703125
,51.1531764,1.318359375
,51.1587894,1.2646484375
,51.1973039,1.23046875
,51.1978941,1.259765625
,51.2152838,1.357421875
,51.2482562,1.552734375
,51.2700526,1.77734375
,51.2779743,2.021484375
,51.3122739,2.2509765625
,51.3187335,2.4267578125
,51.3542494,2.5732421875
,51.3586749,2.6611328125
,51.397544,2.71484375
,51.3979038,2.705078125
,51.4167138,2.6611328125
,51.4514842,2.578125
,51.4565007,2.470703125
,51.4938649,2.3583984375
,51.4981649,2.24609375
,51.533451,2.1484375
,51.5388378,2.060546875
,51.5559795,1.982421875
,51.5910238,1.9140625
,51.5958189,1.8505859375
,51.6301966,1.787109375
,51.6508122,1.7236328125
,51.656623,1.6552734375
,51.6960969,1.5869140625
,51.7271406,1.5283203125
,51.7277256,1.4599609375
,51.7418094,1.4013671875
,51.7890437,1.337890625
,51.7894737,1.2744140625
,51.7964411,1.2255859375
,51.8328916,1.1767578125
,51.8540595,1.1572265625
,51.8589185,1.1962890625
,51.8965929,1.328125
,51.8991966,1.5283203125
,51.935966,1.77734375
,51.940262,2.03125
,51.957259,2.2412109375
,52.0058644,2.431640625
,52.0065266,2.55859375
,52.036397,2.6513671875
,52.0388742,2.6806640625
,52.083034,2.65625
,52.0834031,2.587890625
,52.1002917,2.48046875
,52.1163168,2.3583984375
,52.1495864,2.24609375
,52.1707187,2.138671875
,52.1784234,2.05078125
,52.2257946,1.9677734375
,52.22621,1.8896484375
,52.2404361,1.8212890625
,52.2877822,1.7578125
,52.2882933,1.6943359375
,52.2965461,1.630859375
,52.3316691,1.572265625
,52.3525716,1.5087890625
,52.358053,1.4453125
,52.3793008,1.38671875
,52.4142678,1.328125
,52.4192842,1.26953125
,52.4571162,1.2109375
,52.4598104,1.1572265625
,52.4963419,1.0986328125
,52.4967116,1.0791015625
,52.5337918,1.1279296875
,52.5383765,1.2548828125
,52.5740039,1.474609375
,52.5796161,1.7431640625
,52.6174318,1.982421875
,52.617869,2.216796875
,52.6559635,2.392578125
,52.6773585,2.51953125
,52.6779805,2.5927734375
,52.7134619,2.6171875
,52.7187356,2.59765625
,52.7546709,2.529296875
,52.7591816,2.4267578125
,52.7959771,2.314453125
,52.800409,2.1923828125
,52.8441779,2.08984375
,52.8448213,2.001953125
,52.8573053,1.923828125
,52.8923254,1.8505859375
,52.9130542,1.77734375
,52.9204201,1.7041015625
,52.9693039,1.6357421875
,52.9697172,1.5673828125
,52.9992298,1.50390625
,52.9996436,1.4404296875
,53.0470387,1.376953125
,53.0476162,1.3232421875
,53.0589021,1.2646484375
,53.0792137,1.201171875
,53.115206,1.142578125
,53.1201356,1.0888671875
,53.1697854,1.044921875
,53.170352,1.0302734375
,53.1800508,1.0546875
,53.2157819,1.171875
,53.235351,1.376953125
,53.2371418,1.6162109375
,53.2755037,1.884765625
,53.2959415,2.1142578125
,53.3003806,2.314453125
,53.3202938,2.4462890625
,53.355295,2.5341796875
,53.3756581,2.5634765625
,53.3841365,2.548828125
,53.3984925,2.48046875
,53.4336954,2.392578125
,53.4391573,2.28515625
,53.4813426,2.177734375
,53.4817075,2.08984375
,53.5019219,2.0068359375
,53.5364965,1.93359375
,53.5413121,1.8701171875
,53.5902543,1.8017578125
,53.5906208,1.73828125
,53.6119969,1.689453125
,53.6191312,1.6357421875
,53.6555635,1.5673828125
,53.6865151,1.50390625
,53.6869923,1.4404296875
,53.7015242,1.376953125
,53.7373689,1.3134765625
,53.7377252,1.2451171875
,53.7714585,1.1962890625
,53.7929983,1.142578125
,53.7998985,1.0986328125
,53.8355162,1.0595703125
,53.840281,1.0693359375
,53.8763048,1.1669921875
,53.8808555,1.3330078125
,53.9177491,1.5771484375
,53.9383623,1.826171875
,53.943313,2.0703125
,53.9589545,2.2509765625
,53.9948279,2.40234375
,54.0161937,2.4853515625
,54.0211433,2.5146484375
,54.0570152,2.5
,54.0625533,2.4365234375
,54.0988757,2.34375
,54.1019272,2.2314453125
,54.1191895,2.119140625
,54.1548383,2.03125
,54.1746895,1.9482421875
,54.1805366,1.884765625
,54.2016156,1.8212890625
,54.2437345,1.7626953125
,54.2442761,1.708984375
,54.2636393,1.6552734375
,54.2992393,1.6015625
,54.2998312,1.5478515625
,54.3362535,1.4892578125
,54.3388519,1.435546875
,54.3737568,1.3818359375
,54.3945678,1.3232421875
,54.4023222,1.2646484375
,54.4374788,1.2060546875
,54.4631139,1.15234375
,54.4635508,1.1083984375
,54.4790314,1.0791015625
,54.514657,1.103515625
,54.5345318,1.2109375
,54.5397635,1.416015625
,54.5866998,1.6650390625
,54.5870626,1.9384765625
,54.6076764,2.16796875
,54.6223607,2.3681640625
,54.6583463,2.5
,54.6792217,2.59765625
,54.6795923,2.63671875
,54.7148916,2.6318359375
,54.7355228,2.5732421875
,54.7408549,2.48046875
,54.7746544,2.3779296875
,54.7945856,2.2705078125
,54.8026516,2.1630859375
,54.8382738,2.080078125
,54.858798,2.001953125
,54.8591635,1.9287109375
,54.8972426,1.875
,54.9023581,1.8212890625
,54.9371488,1.7578125
,54.9431401,1.6943359375
,54.9767585,1.6357421875
,54.9975293,1.5771484375
,55.0054234,1.5185546875
,55.0213897,1.46484375
,55.056316,1.4013671875
,55.0605791,1.3427734375
,55.0995622,1.279296875
,55.1298554,1.220703125
,55.1305831,1.1669921875
,55.1439246,1.15234375
,55.1924203,1.1962890625
,55.1928828,1.337890625
,55.213124,1.552734375
,55.2208482,1.8359375
,55.2566751,2.0849609375
,55.2613797,2.3193359375
,55.2949221,2.4853515625
,55.3156692,2.607421875
,55.3234293,2.67578125
,55.3580307,2.7001953125
,55.3777002,2.65625
,55.3867445,2.568359375
,55.4015576,2.451171875
,55.4364909,2.34375
,55.4575138,2.2314453125
,55.4624177,2.138671875
,55.4959972,2.0458984375
,55.5164516,1.97265625
,55.5239178,1.904296875
,55.5617214,1.8505859375
,55.5816583,1.7919921875
,55.5820178,1.7236328125
,55.61687,1.6650390625
,55.622087,1.6015625
,55.6550271,1.54296875
,55.6757287,1.4892578125
,55.685402,1.4208984375
,55.7197021,1.357421875
,55.7248299,1.2939453125
,55.7425348,1.2353515625
,55.7620113,1.1865234375
,55.7833283,1.162109375
,55.8249623,1.1572265625
,55.8253228,1.2451171875
,55.8705947,1.40625
,55.8709641,1.6552734375
,55.8861715,1.9140625
,55.9210881,2.1630859375
,55.9220568,2.3486328125
,55.9601531,2.509765625
,55.9605301,2.5830078125
,56.0125219,2.6416015625
,56.013097,2.6318359375
,56.0436909,2.5732421875
,56.0442854,2.4853515625
,56.0783658,2.3779296875
,56.1001773,2.2705078125
,56.1050426,2.1728515625
,56.1410733,2.0751953125
,56.1416185,1.9921875
,56.1774444,1.9287109375
,56.2069748,1.865234375
,56.2075652,1.8017578125
,56.2242763,1.748046875
,56.267955,1.6943359375
,56.2683946,1.630859375
,56.2858477,1.5673828125
,56.3010731,1.5087890625
,56.3329544,1.4599609375
,56.354787,1.40625
,56.3640415,1.34765625
,56.4009387,1.2841796875
,56.4041602,1.220703125
,56.4395113,1.171875
,56.4599088,1.142578125
,56.4641307,1.1767578125
,56.4983288,1.2939453125
,56.5040801,1.513671875
,56.5392701,1.767578125
,56.544325,2.041015625
,56.5784495,2.2607421875
,56.5991176,2.451171875
,56.6042123,2.5732421875
,56.6408018,2.646484375
,56.6458231,2.65625
,56.6678957,2.5927734375
,56.6830995,2.5048828125
,56.720612,2.421875
,56.7253294,2.32421875
,56.7631396,2.236328125
,56.7635033,2.1533203125
,56.7996828,2.080078125
,56.8199388,2.0166015625
,56.825664,1.9580078125
,56.8651982,1.8994140625
,56.8658582,1.8408203125
,56.8844049,1.7919921875
,56.9186514,1.7333984375
,56.9397879,1.669921875
,56.9471706,1.6015625
,56.96597,1.54296875
,57.0000747,1.4794921875
,57.0211317,1.4208984375
,57.0234306,1.3623046875
,57.061311,1.30859375
,57.0655455,1.2548828125
,57.1062781,1.220703125
,57.1068239,1.2353515625
,57.1425987,1.337890625
,57.1465324,1.5380859375
,57.1821349,1.77734375
,57.1874991,2.0458984375
,57.2053546,2.2802734375
,57.2237657,2.4951171875
,57.2585387,2.646484375
,57.2789468,2.763671875
,57.2849019,2.8125
,57.3207495,2.802734375
,57.3259374,2.7294921875
,57.3722432,2.6220703125
,57.3728246,2.490234375
,57.4030958,2.3486328125
,57.4078899,2.2314453125
,57.4261135,2.1484375
,57.4626807,2.080078125
,57.467426,2.01171875
,57.5146812,1.9384765625
,57.51524,1.8701171875
,57.5261344,1.81640625
,57.563074,1.7578125
,57.5682532,1.6943359375
,57.5840887,1.6259765625
,57.6198412,1.5576171875
,57.6246527,1.5087890625
,57.6634494,1.455078125
,57.6638095,1.396484375
,57.7019119,1.328125
,57.733524,1.2646484375
,57.7339025,1.2109375
,57.7484457,1.2060546875
,57.7644522,1.2646484375
,57.7977019,1.4306640625
,57.8190632,1.6455078125
,57.8270251,1.923828125
,57.8716075,2.1826171875
,57.8720238,2.412109375
,57.8870648,2.5830078125
,57.9335918,2.71484375
,57.9340928,2.783203125
,57.962491,2.8076171875
,57.9681381,2.7490234375
,57.9868096,2.6513671875
,58.0213231,2.5341796875
,58.027197,2.421875
,58.0650484,2.3046875
,58.0656666,2.197265625
,58.1043596,2.1044921875
,58.1351424,2.0263671875
,58.1355827,1.962890625
,58.1441702,1.89453125
,58.1813793,1.8310546875
,58.2015988,1.7626953125
,58.2085761,1.69921875
,58.2448303,1.6357421875
,58.2495749,1.5625
,58.2896338,1.4892578125
,58.2900059,1.4306640625
,58.3064682,1.3671875
,58.3421628,1.30859375
,58.3447964,1.2451171875
,58.3803666,1.181640625
,58.401314,1.1474609375
,58.4078798,1.1572265625
,58.4436412,1.259765625
,58.4488666,1.4404296875
,58.4843702,1.69921875
,58.4849637,1.962890625
,58.5200255,2.2216796875
,58.5393542,2.421875
,58.5472322,2.5732421875
,58.5843387,2.666015625
,58.5872961,2.7001953125
,58.6218359,2.67578125
,58.642585,2.6025390625
,58.6429531,2.490234375
,58.6808624,2.3779296875
,58.7017296,2.2607421875
,58.7079985,2.1484375
,58.7287714,2.0654296875
,58.7645451,1.9873046875
,58.7677232,1.9189453125
,58.8063695,1.8505859375
,58.8068286,1.7919921875
,58.8432357,1.73828125
,58.8638336,1.6748046875
,58.8669689,1.611328125
,58.9007192,1.552734375
,58.92146,1.4892578125
,58.9294541,1.42578125
,58.948605,1.3623046875
,58.9827998,1.298828125
,59.0031375,1.240234375
,59.0082838,1.181640625
,59.0549423,1.1328125
,59.0553007,1.11328125
,59.0752762,1.162109375
,59.0881033,1.2939453125
,59.1243684,1.5185546875
,59.1273705,1.767578125
,59.164396,2.0361328125
,59.1854419,2.255859375
,59.1905288,2.4365234375
,59.2064561,2.548828125
,59.2432355,2.6171875
,59.24765,2.626953125
,59.287228,2.578125
,59.2876035,2.490234375
,59.3221395,2.3876953125
,59.3427595,2.2802734375
,59.3494406,2.1728515625
,59.384019,2.080078125
,59.4053126,2.0068359375
,59.4058963,1.943359375
,59.4403966,1.884765625
,59.4600975,1.8310546875
,59.4687148,1.77734375
,59.5188004,1.7236328125
,59.5192331,1.6650390625
,59.5293006,1.6015625
,59.5660049,1.54296875
,59.5957781,1.484375
,59.5961465,1.4306640625
,59.6094826,1.376953125
,59.6582925,1.3232421875
,59.6586549,1.259765625
,59.668373,1.2060546875
,59.7038501,1.1767578125
,59.7239227,1.2158203125
,59.7295602,1.328125
,59.7681357,1.5478515625
,59.7686733,1.7919921875
,59.8046197,2.0751953125
,59.8077482,2.3095703125
,59.8446291,2.5146484375
,59.8659734,2.6513671875
,59.8713776,2.734375
,59.907715,2.7392578125
,59.9083364,2.6953125
,59.9551253,2.607421875
,59.9557325,2.5
,59.9669069,2.3779296875
,60.0024743,2.2607421875
,60.0313343,2.1484375
,60.0316988,2.0654296875
,60.064529,1.9873046875
,60.0716114,1.9189453125
,60.1075808,1.8505859375
,60.108155,1.7822265625
,60.1269187,1.7138671875
,60.1712307,1.650390625
,60.1716102,1.5771484375
,60.1922919,1.50390625
,60.20928,1.435546875
,60.2498982,1.3671875
,60.2794369,1.2939453125
,60.2798404,1.23046875
,60.291415,1.162109375
,60.3428964,1.0986328125
,60.3435037,1.0546875
,60.3487934,1.0888671875
,60.3837506,1.2060546875
,60.4045273,1.4208984375
,60.4097291,1.6650390625
,60.4489172,1.923828125
,60.44951,2.1435546875
,60.4854353,2.333984375
,60.5143345,2.4560546875
,60.5147278,2.5439453125
,60.5280956,2.5830078125
,60.5650307,2.5732421875
,60.5701498,2.5146484375
,60.5902989,2.431640625
,60.6414158,2.32421875
,60.6417771,2.2119140625
,60.6736301,2.109375
,60.674099,2.03125
,60.6903213,1.9580078125
,60.724495,1.89453125
,60.729246,1.826171875
,60.7497139,1.7529296875
,60.7967178,1.6796875
,60.7973127,1.611328125
,60.8097546,1.533203125
,60.8585456,1.4501953125
,60.8589095,1.3818359375
,60.8687592,1.3037109375
,60.906488,1.23046875
,60.9390146,1.171875
,60.9396064,1.103515625
,60.9508137,1.0400390625
,60.9868628,0.9814453125
,60.9919951,0.986328125
,61.0297752,1.064453125
,61.0304929,1.23046875
,61.0660841,1.4404296875
,61.069695,1.689453125
,61.1043344,1.89453125
,61.1270677,2.0849609375
,61.1315137,2.20703125
,61.1665323,2.294921875
,61.171322,2.32421875
,61.219256,2.3095703125
,61.2196187,2.2509765625
,61.2313129,2.177734375
,61.2510546,2.0849609375
,61.295674,1.9873046875
,61.2962514,1.8994140625
,61.3168388,1.8212890625
,61.3315767,1.748046875
,61.3684979,1.689453125
,61.3733489,1.630859375
,61.3892286,1.572265625
,61.4348882,1.513671875
,61.4352532,1.4501953125
,61.4565499,1.38671875
,61.470797,1.318359375
,61.5151781,1.2548828125
,61.5157629,1.19140625
,61.5345832,1.1328125
,61.570426,1.083984375
,61.5709894,1.0302734375
,61.5921769,0.9912109375
,61.6266935,0.9326171875
,61.6297455,0.9423828125
,61.6637066,0.99609375
,61.6839045,1.1328125
,61.6913086,1.3134765625
,61.7263961,1.533203125
,61.7464088,1.7236328125
,61.7547648,1.8994140625
,61.7694873,2.03125
,61.806003,2.1240234375
,61.8104796,2.1630859375
,61.8492804,2.158203125
,61.8519153,2.109375
,61.8869343,2.0458984375
,61.9073126,1.962890625
,61.913353,1.875
,61.9493106,1.7919921875
,61.9498023,1.71875
,61.9932495,1.66015625
,61.9937235,1.6162109375
,62.0136395,1.572265625
,62.0324911,1.5185546875
,62.053352200000006,1.4599609375
,62.0874721,1.4013671875
,62.1077693,1.3525390625
,62.1106671,1.3037109375
,62.1476002,1.2548828125
,62.1499223,1.2109375
,62.186133,1.162109375
,62.206306999999995,1.11328125
,62.212192400000006,1.0693359375
,62.2573749,1.0205078125
,62.257751299999995,0.9765625
,62.2744234,0.966796875
,62.290510299999994,1.005859375
,62.3250396,1.1376953125
,62.3292656,1.2939453125
,62.3668421,1.5234375
,62.3983477,1.7333984375
,62.39877920000001,1.93359375
,62.413993700000006,2.0751953125
,62.44953340000001,2.1826171875
,62.4532593,2.236328125
,62.4892016,2.2412109375
,62.4895719,2.20703125
,62.5238717,2.1484375
,62.5436227,2.0751953125
,62.5518996,2.001953125
,62.585699500000004,1.923828125
,62.607090299999996,1.8603515625
,62.6156723,1.8017578125
,62.651914000000005,1.7529296875
,62.652495099999996,1.7138671875
,62.670678300000006,1.669921875
,62.7062485,1.6259765625
,62.728199200000006,1.5771484375
,62.73262939999999,1.5234375
,62.7711767,1.4697265625
,62.775708699999996,1.416015625
,62.7946991,1.357421875
,62.8311568,1.298828125
,62.8341729,1.2451171875
,62.850347,1.19140625
,62.872523099999995,1.15234375
,62.909940899999995,1.11328125
,62.914629399999995,1.09375
,62.9339856,1.1083984375
,62.977251499999994,1.2060546875
,62.9778285,1.3720703125
,63.007695,1.58203125
,63.01476460000001,1.7822265625
,63.0362253,1.9580078125
,63.0531905,2.099609375
,63.072682,2.2412109375
,63.106217799999996,2.314453125
,63.12885850000001,2.34375
,63.134048699999994,2.3193359375
,63.180890000000005,2.265625
,63.1812948,2.1875
,63.1944185,2.109375
,63.23178540000001,2.03125
,63.232472900000005,1.9677734375
,63.2648408,1.9091796875
,63.285762500000004,1.8603515625
,63.2933056,1.81640625
,63.3276714,1.7724609375
,63.34860569999999,1.7236328125
,63.3554439,1.669921875
,63.39181429999999,1.611328125
,63.392396899999994,1.5576171875
,63.4284739,1.5185546875
,63.4342084,1.46484375
,63.4542644,1.4111328125
,63.4902642,1.357421875
,63.493336400000004,1.298828125
,63.533550399999996,1.240234375
,63.533962599999995,1.1865234375
,63.568658,1.1376953125
,63.5891999,1.1083984375
,63.5943683,1.1328125
,63.6306206,1.23046875
,63.633609699999994,1.416015625
,63.670888000000005,1.6162109375
,63.675058899999996,1.8310546875
,63.709643299999996,2.0068359375
,63.7307682,2.1484375
,63.736097799999996,2.2412109375
,63.7845452,2.275390625
,63.7852324,2.2705078125
,63.7948796,2.2412109375
,63.8314498,2.16796875
,63.8340656,2.0849609375
,63.87817630000001,1.9921875
,63.878654100000006,1.9091796875
,63.89480399999999,1.826171875
,63.940994700000005,1.7578125
,63.941357999999994,1.7041015625
,63.960577099999995,1.6552734375
,63.9755097,1.611328125
,63.9947815,1.5625
,64.0287294,1.50390625
,64.0348725,1.4501953125
,64.0577455,1.4013671875
,64.0775241,1.34765625
,64.1270289,1.2939453125
,64.1275037,1.240234375
,64.1341748,1.181640625
,64.169801,1.1328125
,64.1750233,1.0888671875
,64.2112548,1.044921875
,64.2145363,1.0009765625
,64.264655,1.0009765625
,64.2650166,1.064453125
,64.2855238,1.220703125
,64.292868,1.416015625
,64.3307795,1.650390625
,64.3346442,1.85546875
,64.3717782,2.03125
,64.3758391,2.158203125
,64.4110475,2.2412109375
,64.4311166,2.265625
,64.4362213,2.255859375
,64.4713772,2.2021484375
,64.4766445,2.119140625
,64.5182626,2.041015625
,64.5188429,1.9580078125
,64.5356684,1.884765625
,64.5810251,1.81640625
,64.5816305,1.7626953125
,64.5944289,1.7138671875
,64.6435146,1.6748046875
,64.6439793,1.62109375
,64.6747216,1.5771484375
,64.6753377,1.5283203125
,64.696412,1.484375
,64.7149023,1.4404296875
,64.751899,1.3916015625
,64.7563068,1.3427734375
,64.79061,1.2890625
,64.8110801,1.240234375
,64.8172019,1.19140625
,64.8524527,1.1474609375
,64.8528172,1.103515625
,64.8883919,1.09375
,64.9222082,1.1376953125
,64.9228245,1.2646484375
,64.9362493,1.4501953125
,64.9847987,1.689453125
,64.9852708,1.8994140625
,65.0166251,2.0947265625
,65.0169805,2.2412109375
,65.0344243,2.3486328125
,65.0697983,2.40234375
,65.0906827,2.412109375
,65.0955357,2.3681640625
,65.1307632,2.294921875
,65.1511168,2.20703125
,65.1574635,2.1142578125
,65.1932416,2.0263671875
,65.1981072,1.943359375
,65.23565,1.875
,65.2361201,1.8115234375
,65.2717228,1.7578125
,65.2761647,1.7138671875
,65.311351,1.66015625
,65.3314504,1.611328125
,65.3372734,1.5625
,65.3743122,1.5087890625
,65.3787121,1.455078125
,65.4147111,1.40625
,65.4153658,1.34765625
,65.4544995,1.3037109375
,65.4855483,1.259765625
,65.4859149,1.2158203125
,65.4973213,1.1767578125
,65.5178089,1.1376953125
,65.5523828,1.1328125
,65.5725735,1.2060546875
,65.5773764,1.34765625
,65.611799,1.572265625
,65.6159767,1.796875
,65.6561285,2.0263671875
,65.6564911,2.2021484375
,65.6909407,2.3486328125
,65.7124123,2.4365234375
,65.7191001,2.4755859375
,65.7566985,2.4609375
,65.757196,2.4072265625
,65.7925916,2.3388671875
,65.7956828,2.255859375
,65.8442403,2.16796875
,65.8448861,2.0849609375
,65.8564835,2.001953125
,65.892536,1.9287109375
,65.9143281,1.8701171875
,65.9193976,1.8212890625
,65.9678482,1.767578125
,65.9684187,1.71875
,65.9755999,1.6796875
,66.0106193,1.630859375
,66.031709,1.5869140625
,66.0389164,1.54296875
,66.0757588,1.4892578125
,66.0812415,1.4453125
,66.0998459,1.3916015625
,66.1393591,1.3427734375
,66.1398485,1.2939453125
,66.1599918,1.2548828125
,66.1766235,1.25
,66.2125411,1.3232421875
,66.2331666,1.46484375
,66.2380073,1.689453125
,66.2756957,1.9189453125
,66.2786131,2.1484375
,66.2975188,2.333984375
,66.3329696,2.5
,66.3359244,2.6025390625
,66.3864432,2.666015625
,66.3867979,2.6611328125
,66.4075741,2.6123046875
,66.4199737,2.529296875
,66.4634221,2.431640625
,66.4640705,2.32421875
,66.476668,2.2265625
,66.5106016,2.1435546875
,66.5322541,2.0751953125
,66.5392832,2.01171875
,66.5744304,1.953125
,66.5778558,1.89453125
,66.6132815,1.8310546875
,66.6205505,1.7724609375
,66.6538544,1.7138671875
,66.6754144,1.650390625
,66.6804413,1.591796875
,66.699663,1.5283203125
,66.7177794,1.4697265625
,66.7532198,1.4111328125
,66.7586393,1.3525390625
,66.7935199,1.2939453125
,66.8225345,1.2548828125
,66.8229012,1.259765625
,66.8698879,1.3525390625
,66.8704886,1.5234375
,66.8783115,1.7724609375
,66.9146422,2.021484375
,66.9178096,2.265625
,66.9619463,2.451171875
,66.9624204,2.6123046875
,66.9921463,2.7197265625
,67.0015816,2.79296875
,67.0376074,2.7978515625
,67.0379667,2.744140625
,67.0565939,2.6611328125
,67.1008177,2.5537109375
,67.10166,2.44140625
,67.1312978,2.3388671875
,67.1413595,2.2412109375
,67.1793641,2.1533203125
,67.1798497,2.0751953125
,67.2248013,2.01171875
,67.2251644,1.943359375
,67.2380084,1.8798828125
,67.2599128,1.81640625
,67.2964438,1.7431640625
,67.29929,1.6650390625
,67.3358861,1.5966796875
,67.340343,1.5283203125
,67.3813003,1.46484375
,67.3816685,1.396484375
,67.4288091,1.337890625
,67.4291745,1.279296875
,67.4400961,1.25
,67.4600146,1.2646484375
,67.4975443,1.3720703125
,67.4999298,1.5576171875
,67.5365825,1.8115234375
,67.541486,2.0556640625
,67.561567,2.294921875
,67.5774134,2.470703125
,67.6118559,2.626953125
,67.6342181,2.71484375
,67.6408344,2.763671875
,67.6752799,2.7490234375
,67.68067,2.685546875
,67.7174671,2.5830078125
,67.7222778,2.4755859375
,67.757878,2.3583984375
,67.7582338,2.255859375
,67.7940626,2.1630859375
,67.8153888,2.08984375
,67.8186102,2.0166015625
,67.8558338,1.953125
,67.8611074,1.884765625
,67.9084724,1.8212890625
,67.909049,1.7529296875
,67.9296448,1.6796875
,67.939762,1.611328125
,67.9633907,1.54296875
,67.9797488,1.455078125
,68.0143629,1.4013671875
,68.0203736,1.337890625
,68.0634182,1.2890625
,68.0637848,1.23046875
,68.0820896,1.19140625
,68.1187797,1.201171875
,68.1237687,1.298828125
,68.137739,1.4697265625
,68.1703959,1.7236328125
,68.1905956,1.9677734375
,68.2003673,2.20703125
,68.2345608,2.3974609375
,68.2554585,2.5390625
,68.2607604,2.6318359375
,68.295726,2.6806640625
,68.3163763,2.666015625
,68.3169493,2.6025390625
,68.3642435,2.509765625
,68.3646071,2.40234375
,68.3942388,2.2900390625
,68.401762,2.1826171875
,68.4408504,2.0947265625
,68.4415068,2.021484375
,68.4778548,1.953125
,68.4783239,1.8896484375
,68.5165673,1.826171875
,68.5189878,1.767578125
,68.5544697,1.7138671875
,68.5750732,1.650390625
,68.5802387,1.5869140625
,68.6178678,1.5234375
,68.6214434,1.4599609375
,68.656937,1.40625
,68.6914745,1.3623046875
,68.6920206,1.3037109375
,68.7000285,1.26953125
,68.7364494,1.2890625
,68.7421538,1.3427734375
,68.7611676,1.4697265625
,68.7977478,1.66015625
,68.8028714,1.9091796875
,68.8381123,2.158203125
,68.8428875,2.40234375
,68.8600557,2.587890625
,68.8945812,2.7490234375
,68.9006224,2.841796875
,68.9397365,2.880859375
,68.9594038,2.8662109375
,68.962303,2.802734375
,68.9965137,2.71484375
,69.0172343,2.6171875
,69.0246008,2.529296875
,69.0402176,2.451171875
,69.0794751,2.3876953125
,69.080092,2.333984375
,69.1126928,2.265625
,69.1337166,2.1875
,69.1415028,2.1044921875
,69.1770414,2.0068359375
,69.1976883,1.904296875
,69.1980497,1.796875
,69.2496772,1.6845703125
,69.2500466,1.5771484375
,69.2702831,1.474609375
,69.2819808,1.3720703125
,69.3188045,1.2890625
,69.3235335,1.2109375
,69.3742731,1.142578125
,69.3746387,1.083984375
,69.3839499,1.044921875
,69.4213195,1.025390625
,69.4218974,1.083984375
,69.455629,1.240234375
,69.4598832,1.4453125
,69.502321,1.7041015625
,69.5026829,1.93359375
,69.5243903,2.1435546875
,69.5438929,2.28515625
,69.578105,2.40234375
,69.5989005,2.4560546875
,69.5994559,2.44140625
,69.6428191,2.3974609375
,69.6434723,2.314453125
,69.6746334,2.2119140625
,69.6835364,2.1044921875
,69.7179742,2.0068359375
,69.7392682,1.9140625
,69.7444283,1.8359375
,69.7605591,1.7578125
,69.7968596,1.69921875
,69.8312539,1.630859375
,69.8318172,1.5771484375
,69.8414982,1.5185546875
,69.8770416,1.455078125
,69.8978858,1.396484375
,69.9020574,1.3330078125
,69.9407485,1.26953125
,69.9411881,1.2109375
,69.9778146,1.162109375
,69.9807561,1.1083984375
,70.0166319,1.0595703125
,70.0231797,1.0107421875
,70.0443964,0.9814453125
,70.0778346,0.986328125
,70.0983796,1.0693359375
,70.1066901,1.2158203125
,70.1265275,1.4453125
,70.1444382,1.689453125
,70.1631638,1.943359375
,70.1969637,2.1435546875
,70.2181409,2.2998046875
,70.223667,2.392578125
,70.2594881,2.421875
,70.2645554,2.40234375
,70.3032095,2.3388671875
,70.303746,2.24609375
,70.3230361,2.1435546875
,70.3580394,2.05078125
,70.3631765,1.9677734375
,70.4059225,1.8896484375
,70.4062782,1.826171875
,70.4365616,1.7626953125
,70.4466889,1.708984375
,70.4826661,1.6552734375
,70.4831503,1.6064453125
,70.5190151,1.5625
,70.5219597,1.5087890625
,70.5592396,1.4501953125
,70.5633335,1.3916015625
,70.5982427,1.337890625
,70.6187292,1.2890625
,70.6255621,1.2353515625
,70.6739127,1.181640625
,70.6744568,1.1328125
,70.6844635,1.09375
,70.7191166,1.0693359375
,70.7241159,1.1083984375
,70.7600428,1.2109375
,70.781752,1.4111328125
,70.7846303,1.6455078125
,70.8201364,1.904296875
,70.8263171,2.1240234375
,70.875066,2.314453125
,70.8754245,2.44140625
,70.8950146,2.5
,70.9027778,2.509765625
,70.9395316,2.4755859375
,70.945181,2.3974609375
,70.9810459,2.294921875
,70.9861149,2.177734375
,71.0209179,2.080078125
,71.026071,1.9921875
,71.0419068,1.923828125
,71.078593,1.865234375
,71.1091856,1.8017578125
,71.1097164,1.7529296875
,71.1253358,1.6943359375
,71.1594031,1.640625
,71.1791401,1.5869140625
,71.1870129,1.5234375
,71.2331286,1.455078125
,71.2334974,1.3916015625
,71.2447544,1.337890625
,71.2800257,1.2939453125
,71.2858859,1.240234375
,71.3200816,1.181640625
,71.3258358,1.1328125
,71.3455195,1.0888671875
,71.3826694,1.083984375
,71.3832354,1.142578125
,71.4180234,1.3134765625
,71.4389987,1.5478515625
,71.4439645,1.8359375
,71.4844181,2.08984375
,71.5141491,2.3291015625
,71.514737,2.5048828125
,71.5250539,2.6171875
,71.5760905,2.6806640625
,71.576461,2.6806640625
,71.588765,2.626953125
,71.6043092,2.5390625
,71.6390523,2.431640625
,71.660459,2.3095703125
,71.6651137,2.197265625
,71.7014114,2.1044921875
,71.7063582,2.0166015625
,71.740863,1.943359375
,71.7609661,1.884765625
,71.7644334,1.8212890625
,71.7840353,1.7626953125
,71.8195643,1.708984375
,71.8256649,1.640625
,71.8599684,1.5673828125
,71.8804732,1.4990234375
,71.8861757,1.4404296875
,71.9232383,1.3720703125
,71.9275978,1.30859375
,71.9450839,1.2451171875
,71.9805439,1.19140625
,71.9860186,1.1376953125
,72.0063915,1.09375
,72.0459681,1.083984375
,72.0463393,1.1328125
,72.0929503,1.2646484375
,72.0933548,1.4990234375
,72.1227754,1.7578125
,72.1231552,2.0458984375
,72.1459093,2.2900390625
,72.1836449,2.4609375
,72.1891396,2.5927734375
,72.2060999,2.6611328125
,72.2404356,2.666015625
,72.2613281,2.6171875
,72.269092,2.5244140625
,72.288399,2.40234375
,72.3238579,2.275390625
,72.324235,2.158203125
,72.3586339,2.0654296875
,72.3787525,1.9873046875
,72.384891,1.9140625
,72.4339184,1.845703125
,72.4344961,1.7822265625
,72.4637737,1.7236328125
,72.4673387,1.6650390625
,72.4899573,1.5966796875
,72.5056702,1.5283203125
,72.5399512,1.474609375
,72.5603558,1.4111328125
,72.5664821,1.3525390625
,72.6028755,1.2939453125
,72.607365,1.2353515625
,72.6434688,1.181640625
,72.6490881,1.1376953125
,72.6642356,1.0986328125
,72.6993957,1.0986328125
,72.7049803,1.1474609375
,72.7407377,1.3037109375
,72.7463911,1.5185546875
,72.7843477,1.7919921875
,72.7876089,2.0556640625
,72.8244094,2.2705078125
,72.8297792,2.4365234375
,72.8457748,2.5390625
,72.8817608,2.59765625
,72.8852173,2.5927734375
,72.9220365,2.5390625
,72.9277096,2.4462890625
,72.9655189,2.3291015625
,72.9659644,2.216796875
,73.0125331,2.109375
,73.013111,2.021484375
,73.0437327,1.943359375
,73.0441593,1.8701171875
,73.082132,1.8115234375
,73.0853045,1.748046875
,73.1209617,1.6796875
,73.1413581,1.6259765625
,73.1492666,1.5673828125
,73.1846738,1.513671875
,73.1899844,1.4453125
,73.2267734,1.376953125
,73.2273909,1.3037109375
,73.2466829,1.240234375
,73.2849946,1.181640625
,73.2871207,1.1376953125
,73.3255192,1.09375
,73.3304854,1.0595703125
,73.3494806,1.0595703125
,73.3835119,1.1474609375
,73.3854459,1.3232421875
,73.4254572,1.6064453125
,73.4259185,1.8994140625
,73.4464681,2.1484375
,73.4824464,2.36328125
,73.4876385,2.509765625
,73.5239445,2.626953125
,73.5487118,2.67578125
,73.54918,2.666015625
,73.5671965,2.59765625
,73.6037179,2.5
,73.6070545,2.3876953125
,73.6438678,2.255859375
,73.6490993,2.1435546875
,73.6901586,2.0556640625
,73.6908556,1.9775390625
,73.7094123,1.9091796875
,73.7531255,1.8408203125
,73.7536648,1.7724609375
,73.7993218,1.7041015625
,73.7996859,1.640625
,73.807557,1.58203125
,73.8463634,1.50390625
,73.8467616,1.4306640625
,73.8828347,1.3671875
,73.910173,1.3134765625
,73.9107375,1.2451171875
,73.9317156,1.1865234375
,73.9473399,1.1181640625
,73.9871053,1.0791015625
,73.9876189,1.0595703125
,74.0235229,1.0791015625
,74.0293413,1.1669921875
,74.0659877,1.376953125
,74.0705844,1.6552734375
,74.1043992,1.923828125
,74.1108834,2.1826171875
,74.1258225,2.3828125
,74.1730083,2.5439453125
,74.1733954,2.646484375
,74.1901776,2.6953125
,74.2096647,2.6806640625
,74.2433652,2.6025390625
,74.2632398,2.5048828125
,74.2689852,2.3828125
,74.287586,2.265625
,74.3221505,2.1533203125
,74.3268573,2.041015625
,74.362613,1.9677734375
,74.3837643,1.904296875
,74.3889289,1.8310546875
,74.4261179,1.7578125
,74.4300125,1.69921875
,74.4682673,1.630859375
,74.4687771,1.552734375
,74.5058939,1.4794921875
,74.5269372,1.4111328125
,74.5276549,1.3525390625
,74.5638247,1.2890625
,74.5930743,1.23046875
,74.5936654,1.1669921875
,74.6100243,1.11328125
,74.6539927,1.0595703125
,74.6545699,1.0205078125
,74.6747482,1.0107421875
,74.6888514,1.09375
,74.7095064,1.2744140625
,74.7475458,1.5185546875
,74.7481343,1.8017578125
,74.7833435,2.060546875
,74.8046403,2.2900390625
,74.8102846,2.4462890625
,74.8557502,2.55859375
,74.8561067,2.6123046875
,74.8673606,2.6171875
,74.9036612,2.55859375
,74.9079656,2.4658203125
,74.9455416,2.34375
,74.9507083,2.2314453125
,74.9861055,2.1240234375
,74.9929665,2.03125
,75.0121406,1.9580078125
,75.0321903,1.884765625
,75.0532805,1.796875
,75.0701115,1.7138671875
,75.1229929,1.669921875
,75.1235897,1.6064453125
,75.1305943,1.533203125
,75.1674642,1.4599609375
,75.1699282,1.3916015625
,75.2052622,1.3232421875
,75.2247483,1.259765625
,75.229095,1.201171875
,75.2646862,1.1572265625
,75.2693643,1.1083984375
,75.3047752,1.0546875
,75.3119876,1.0107421875
,75.3467927,0.9912109375
,75.3514866,1.025390625
,75.3904467,1.142578125
,75.4202011,1.357421875
,75.4206081,1.611328125
,75.4304927,1.8896484375
,75.4659392,2.119140625
,75.4708055,2.314453125
,75.5147694,2.431640625
,75.5153468,2.5048828125
,75.5469183,2.5244140625
,75.5540453,2.48046875
,75.569508,2.3974609375
,75.6046543,2.2998046875
,75.6102162,2.1875
,75.646281,2.08984375
,75.6503852,2.001953125
,75.6708057,1.9189453125
,75.7060457,1.8505859375
,75.7126669,1.796875
,75.7469244,1.7431640625
,75.767085,1.6845703125
,75.7750121,1.62109375
,75.7907316,1.5576171875
,75.8422304,1.494140625
,75.8428144,1.435546875
,75.8513918,1.3720703125
,75.8844191,1.30859375
,75.9058932,1.2451171875
,75.9124616,1.1865234375
,75.9470897,1.1328125
,75.9675072,1.083984375
,75.9721148,1.0498046875
,75.9905875,1.0302734375
,76.0249389,1.044921875
,76.0454792,1.15234375
,76.0528532,1.337890625
,76.0881105,1.5966796875
,76.0933098,1.845703125
,76.1286111,2.0947265625
,76.1291125,2.2705078125
,76.1508702,2.4169921875
,76.1858897,2.490234375
,76.1909346,2.509765625
,76.2274408,2.470703125
,76.2312058,2.3974609375
,76.2792091,2.2998046875
,76.2798306,2.1923828125
,76.2936134,2.099609375
,76.3110237,2.0068359375
,76.3460113,1.93359375
,76.3516179,1.865234375
,76.3880217,1.8115234375
,76.4182134,1.7578125
,76.4186581,1.7041015625
,76.4350251,1.650390625
,76.4709078,1.5966796875
,76.4716458,1.533203125
,76.5099406,1.474609375
,76.5102993,1.416015625
,76.5304903,1.3623046875
,76.5667919,1.3037109375
,76.5868657,1.25
,76.5921324,1.19140625
,76.6367061,1.1474609375
,76.6370974,1.0986328125
,76.6561862,1.0791015625
,76.6747617,1.1328125
,76.6910511,1.2744140625
,76.7272155,1.5234375
,76.7322774,1.796875
,76.7672986,2.0849609375
,76.7866218,2.314453125
,76.7930518,2.509765625
,76.8143325,2.6416015625
,76.8551347,2.724609375
,76.8556942,2.7392578125
,76.8763893,2.7099609375
,76.8936184,2.626953125
,76.9313926,2.51953125
,76.9318336,2.4072265625
,76.9676133,2.2900390625
,76.9877588,2.1826171875
,76.994281,2.1044921875
,77.0298744,2.03125
,77.0304555,1.962890625
,77.0659108,1.9091796875
,77.0867026,1.845703125
,77.0917197,1.7822265625
,77.1292388,1.708984375
,77.1340589,1.6455078125
,77.1687324,1.58203125
,77.1737131,1.513671875
,77.2091211,1.4501953125
,77.2306783,1.38671875
,77.2313972,1.3232421875
,77.2517039,1.279296875
,77.2860073,1.23046875
,77.3068822,1.19140625
,77.3144128,1.2060546875
,77.3507517,1.30859375
,77.3539116,1.5185546875
,77.3757105,1.77734375
,77.4169556,2.0654296875
,77.4174295,2.314453125
,77.4480136,2.5341796875
,77.4523914,2.6953125
,77.4881589,2.8076171875
,77.4937825,2.8466796875
,77.5410118,2.8369140625
,77.5415731,2.7685546875
,77.5711186,2.65625
,77.5762345,2.5390625
,77.5908583,2.421875
,77.6264008,2.3193359375
,77.6511514,2.2216796875
,77.6518058,2.1435546875
,77.6873031,2.0703125
,77.7082255,2.01171875
,77.7165997,1.943359375
,77.7365573,1.875
,77.752091,1.8017578125
,77.7908167,1.7431640625
,77.8209212,1.6845703125
,77.8213315,1.62109375
,77.8334632,1.5625
,77.8689217,1.494140625
,77.8907539,1.4306640625
,77.8951426,1.3720703125
,77.9291841,1.30859375
,77.9513551,1.2548828125
,77.9560009,1.2353515625
,77.9740915,1.2841796875
,78.0096177,1.4501953125
,78.013641,1.689453125
,78.0339072,1.9677734375
,78.0677922,2.2216796875
,78.0889592,2.4462890625
,78.0956604,2.6123046875
,78.1318002,2.7294921875
,78.1321856,2.7880859375
,78.1806133,2.79296875
,78.1810143,2.734375
,78.2122776,2.6318359375
,78.2129093,2.5146484375
,78.2488621,2.392578125
,78.2692147,2.275390625
,78.276856,2.1728515625
,78.2975585,2.0947265625
,78.3116601,2.0166015625
,78.3512785,1.9580078125
,78.3710124,1.89453125
,78.3727783,1.826171875
,78.4098862,1.7431640625
,78.43067,1.669921875
,78.4369121,1.591796875
,78.4770726,1.5283203125
,78.4775575,1.455078125
,78.4930649,1.3916015625
,78.5409575,1.328125
,78.5415308,1.26953125
,78.5553805,1.2060546875
,78.5897624,1.1572265625
,78.5950139,1.123046875
,78.6323971,1.142578125
,78.6526042,1.259765625
,78.6581611,1.4599609375
,78.6932673,1.728515625
,78.6938654,1.982421875
,78.7427241,2.236328125
,78.7431277,2.4169921875
,78.7720942,2.5537109375
,78.7743718,2.6318359375
,78.8118265,2.6513671875
,78.8150167,2.6123046875
,78.8514174,2.51953125
,78.8726476,2.4072265625
,78.8731753,2.2802734375
,78.9068547,2.16796875
,78.9287393,2.0703125
,78.9355434,1.9921875
,78.976487,1.9140625
,78.9770882,1.85546875
,79.0215886,1.796875
,79.0220057,1.73828125
,79.0341133,1.6748046875
,79.070488,1.6259765625
,79.0749304,1.5625
,79.116317,1.50390625
,79.116755,1.4453125
,79.1622879,1.3818359375
,79.1627716,1.318359375
,79.1773358,1.2646484375
,79.2140606,1.2060546875
,79.2146353,1.1572265625
,79.2502537,1.123046875
,79.2712307,1.1181640625
,79.2763008,1.19140625
,79.3165212,1.34765625
,79.3168834,1.591796875
,79.3521097,1.8505859375
,79.3577647,2.1044921875
,79.3930369,2.294921875
,79.3978907,2.44140625
,79.4144023,2.51953125
,79.4503878,2.5634765625
,79.4553845,2.5390625
,79.5041829,2.4658203125
,79.504582,2.3583984375
,79.5155614,2.24609375
,79.5533468,2.1337890625
,79.5590623,2.0458984375
,79.5771674,1.9677734375
,79.5945506,1.8994140625
,79.6297966,1.845703125
,79.6595945,1.796875
,79.6599576,1.748046875
,79.6771583,1.689453125
,79.7228471,1.630859375
,79.7234269,1.572265625
,79.7542544,1.5087890625
,79.7547221,1.455078125
,79.7750694,1.4013671875
,79.8104128,1.337890625
,79.8157755,1.2939453125
,79.8520899,1.2451171875
,79.8566698,1.1962890625
,79.8951286,1.1572265625
,79.8981273,1.1572265625
,79.9337955,1.25
,79.934308,1.42578125
,79.9709803,1.689453125
,80.0028937,1.943359375
,80.0032628,2.216796875
,80.0172175,2.431640625
,80.0515746,2.59765625
,80.0809415,2.6953125
,80.0813092,2.744140625
,80.1146449,2.7294921875
,80.1181387,2.65625
,80.155946,2.5439453125
,80.1565357,2.4169921875
,80.1908731,2.294921875
,80.2125649,2.1826171875
,80.2174806,2.0947265625
,80.2523295,2.0166015625
,80.2568412,1.943359375
,80.2968124,1.875
,80.2971772,1.81640625
,80.3177699,1.7578125
,80.3519275,1.69921875
,80.3565975,1.6357421875
,80.3912051,1.572265625
,80.4117635,1.5087890625
,80.4168778,1.4453125
,80.4536843,1.3818359375
,80.459549,1.3232421875
,80.495632,1.259765625
,80.4961014,1.1962890625
,80.5354769,1.162109375
,80.5358381,1.1767578125
,80.5566314,1.2841796875
,80.5993127,1.484375
,80.5998925,1.767578125
,80.6179882,2.05078125
,80.6606156,2.32421875
,80.6609966,2.529296875
,80.681252,2.7001953125
,80.6979014,2.7734375
,80.7168262,2.83203125
,80.7523624,2.8173828125
,80.7585664,2.744140625
,80.8014167,2.6318359375
,80.8017804,2.4951171875
,80.8226674,2.353515625
,80.8397136,2.2314453125
,80.8740984,2.1240234375
,80.8948937,2.041015625
,80.8952956,1.9677734375
,80.9426243,1.89453125
,80.9431635,1.826171875
,80.9625886,1.7529296875
,80.9792915,1.6796875
,81.0156818,1.6015625
,81.0225369,1.5234375
,81.0380842,1.4501953125
,81.0854872,1.38671875
,81.0861397,1.318359375
,81.0999958,1.2548828125
,81.1189564,1.1865234375
,81.1534512,1.123046875
,81.1596353,1.07421875
,81.2102006,1.0595703125
,81.2106929,1.123046875
,81.2156397,1.2841796875
,81.2537415,1.5478515625
,81.2596319,1.81640625
,81.3004403,2.08984375
,81.3008047,2.3046875
,81.3365893,2.4658203125
,81.3383566,2.5634765625
,81.3765855,2.6171875
,81.3813958,2.6123046875
,81.4180163,2.5341796875
,81.4226237,2.4365234375
,81.438302,2.3095703125
,81.473248,2.1826171875
,81.4783802,2.0703125
,81.5138121,1.9775390625
,81.5358214,1.8896484375
,81.5394753,1.806640625
,81.5608999,1.7333984375
,81.5995075,1.66015625
,81.6000901,1.591796875
,81.6190565,1.533203125
,81.6390228,1.4599609375
,81.6751419,1.38671875
,81.6811019,1.3134765625
,81.7176319,1.240234375
,81.7220277,1.1767578125
,81.7407415,1.1083984375
,81.7767634,1.0498046875
,81.7773295,0.9814453125
,81.8118028,0.927734375
,81.8323446,0.8935546875
,81.839753,0.908203125
,81.8812584,1.0009765625
,81.8818348,1.1962890625
,81.9022517,1.4306640625
,81.92229,1.69921875
,81.9369981,1.923828125
,81.9737554,2.119140625
,81.995276,2.2412109375
,81.9997727,2.3193359375
,82.0357589,2.3388671875
,82.0387911,2.3095703125
,82.0835726,2.2314453125
,82.0839292,2.12890625
,82.1155192,2.01171875
,82.1231495,1.8994140625
,82.1595765,1.806640625
,82.1601792,1.7236328125
,82.2076534,1.650390625
,82.2082349,1.58203125
,82.2287833,1.5234375
,82.2404571,1.455078125
,82.2867922,1.38671875
,82.2876735,1.3134765625
,82.3036197,1.25
,82.3191512,1.1767578125
,82.3632554,1.1083984375
,82.3638541,1.0498046875
,82.3794744,0.99609375
,82.4257859,0.9423828125
,82.4261943,0.8837890625
,82.4435917,0.8349609375
,82.4615495,0.7861328125
,82.4978551,0.7568359375
,82.5202734,0.7568359375
,82.5206404,0.83984375
,82.5580947,1.0009765625
,82.5584702,1.2255859375
,82.5971034,1.46484375
,82.5998805,1.69921875
,82.6375499,1.875
,82.641971,2.0166015625
,82.6581317,2.08984375
,82.6953948,2.1337890625
,82.700911,2.119140625
,82.7416767,2.060546875
,82.7422586,1.9775390625
,82.7615914,1.8798828125
,82.8039837,1.7919921875
,82.8045704,1.7138671875
,82.8341538,1.6455078125
,82.8420368,1.5771484375
,82.8794738,1.5234375
,82.8800577,1.46484375
,82.9166917,1.4208984375
,82.922871,1.3720703125
,82.9411915,1.318359375
,82.9772068,1.259765625
,82.9821433,1.201171875
,83.0164612,1.142578125
,83.0384716,1.09375
,83.0454591,1.0400390625
,83.0596067,0.986328125
,83.101091,0.9375
,83.101513,0.888671875
,83.1351556,0.8544921875
,83.156165,0.8251953125
,83.1612963,0.830078125
,83.2001275,0.908203125
,83.2045596,1.064453125
,83.2191701,1.259765625
,83.252894,1.4990234375
,83.2734856,1.708984375
,83.2815872,1.884765625
,83.3189389,2.001953125
,83.3233506,2.080078125
,83.357718,2.119140625
,83.3626773,2.1044921875
,83.411015,2.05078125
,83.4114809,1.97265625
,83.4194306,1.89453125
,83.4530908,1.8115234375
,83.4752526,1.73828125
,83.4821695,1.6650390625
,83.5197786,1.6015625
,83.5226616,1.54296875
,83.5576769,1.4892578125
,83.5799391,1.435546875
,83.5844359,1.3818359375
,83.6002397,1.3232421875
,83.6454462,1.2646484375
,83.6458051,1.2060546875
,83.6667008,1.1572265625
,83.6839811,1.103515625
,83.7031243,1.0498046875
,83.7394348,0.9912109375
,83.743089,0.9375
,83.7791669,0.8837890625
,83.7795307,0.8447265625
,83.8153591,0.830078125
,83.8208888,0.8642578125
,83.8574952,0.9912109375
,83.8622809,1.1767578125
,83.9107057,1.42578125
,83.9110624,1.66015625
,83.9322067,1.8798828125
,83.9400317,2.041015625
,83.9916058,2.1728515625
,83.99207,2.2509765625
,84.001443,2.2802734375
,84.03787,2.265625
,84.0422219,2.20703125
,84.0775112,2.12890625
,84.0981058,2.03125
,84.1036475,1.943359375
,84.1204302,1.865234375
,84.1566511,1.8017578125
,84.1625277,1.73828125
,84.182685,1.6845703125
,84.2179374,1.62109375
,84.2236092,1.5673828125
,84.2587802,1.5087890625
,84.2633411,1.4453125
,84.2990815,1.376953125
,84.3330763,1.318359375
,84.3336685,1.2548828125
,84.3412557,1.1962890625
,84.3810682,1.142578125
,84.4023571,1.0888671875
,84.4028666,1.03515625
,84.4424894,0.986328125
,84.4625759,0.947265625
,84.4657233,0.9228515625
,84.4856176,0.95703125
,84.5010297,1.064453125
,84.5518811,1.259765625
,84.5524498,1.494140625
,84.5648342,1.73828125
,84.585208,1.943359375
,84.6056257,2.1142578125
,84.6239782,2.2412109375
,84.6583737,2.3046875
,84.6796189,2.3388671875
,84.6800913,2.3193359375
,84.7146456,2.2705078125
,84.7352559,2.1923828125
,84.7428131,2.109375
,84.7873574,2.0263671875
,84.7879833,1.953125
,84.8082278,1.875
,84.8263196,1.8115234375
,84.84097,1.7431640625
,84.8776681,1.6943359375
,84.8824423,1.640625
,84.9193767,1.5869140625
,84.9237696,1.5185546875
,84.943744,1.46484375
,84.9780584,1.40625
,84.9989105,1.34765625
,85.004073,1.2890625
,85.0401965,1.2255859375
,85.0695718,1.1669921875
,85.0699429,1.1083984375
,85.0846314,1.0546875
,85.1188419,1.0107421875
,85.1392971,0.9814453125
,85.1445525,0.9912109375
,85.1800948,1.0888671875
,85.1848901,1.2548828125
,85.2211123,1.494140625
,85.2429571,1.71875
,85.2434372,1.943359375
,85.2910268,2.1240234375
,85.2914625,2.24609375
,85.3049491,2.333984375
,85.3409277,2.36328125
,85.3463666,2.353515625
,85.3661761,2.2998046875
,85.4011452,2.216796875
,85.4202076,2.12890625
,85.4241331,2.05078125
,85.4433773,1.97265625
,85.4779302,1.9091796875
,85.498242,1.845703125
,85.5048254,1.7822265625
,85.5414924,1.728515625
,85.5468084,1.669921875
,85.5631515,1.611328125
,85.5973377,1.5625
,85.617472,1.50390625
,85.6223474,1.42578125
,85.6577708,1.376953125
,85.6777792,1.3232421875
,85.6848409,1.26953125
,85.7222007,1.2158203125
,85.7414721,1.162109375
,85.7465726,1.11328125
,85.7814104,1.0693359375
,85.7844084,1.03515625
,85.8044697,1.044921875
,85.8503936,1.1181640625
,85.8507558,1.279296875
,85.8671992,1.4892578125
,85.9018957,1.71875
,85.9045975,1.9384765625
,85.9396885,2.099609375
,85.974023,2.2314453125
,85.9746063,2.314453125
,85.9847485,2.36328125
,86.0196627,2.3486328125
,86.0250402,2.3046875
,86.0602846,2.2314453125
,86.0653277,2.158203125
,86.1000175,2.080078125
,86.1207156,2.0068359375
,86.1229859,1.943359375
,86.1598856,1.8896484375
,86.165269,1.8359375
,86.2003467,1.7919921875
,86.205294,1.7431640625
,86.2249611,1.69921875
,86.2602839,1.6455078125
,86.2806735,1.5869140625
,86.2863894,1.533203125
,86.3023476,1.4794921875
,86.3486196,1.42578125
,86.3492125,1.357421875
,86.3685479,1.318359375
,86.3853214,1.26953125
,86.4273179,1.2255859375
,86.42786,1.1767578125
,86.4474434,1.162109375
,86.4846265,1.201171875
,86.4896673,1.3330078125
,86.5037989,1.533203125
,86.5526316,1.7724609375
,86.5530577,2.0068359375
,86.5825837,2.1923828125
,86.5855007,2.3486328125
,86.6295906,2.4462890625
,86.6300731,2.5048828125
,86.6480123,2.5146484375
,86.68447,2.48046875
,86.6848447,2.4072265625
,86.7230454,2.32421875
,86.7234295,2.236328125
,86.7584016,2.1533203125
,86.7791874,2.080078125
,86.786569,2.0166015625
,86.8250282,1.953125
,86.8296086,1.89453125
,86.8442588,1.8310546875
,86.8659591,1.787109375
,86.9006012,1.728515625
,86.9063693,1.6650390625
,86.9402978,1.6015625
,86.9605452,1.54296875
,86.9662513,1.484375
,87.0029762,1.4208984375
,87.008694,1.3671875
,87.0291863,1.30859375
,87.0500196,1.240234375
,87.0648729,1.1767578125
,87.1008888,1.171875
,87.1220638,1.2158203125
,87.12712,1.357421875
,87.1632833,1.5625
,87.1697191,1.826171875
,87.204541,2.0849609375
,87.207425,2.2900390625
,87.2430153,2.470703125
,87.2721866,2.5927734375
,87.2725455,2.6904296875
,87.2880425,2.724609375
,87.3320315,2.7001953125
,87.3323993,2.6318359375
,87.3476116,2.5341796875
,87.3943516,2.4365234375
,87.3949948,2.333984375
,87.4059785,2.2314453125
,87.4256657,2.1533203125
,87.4711412,2.0849609375
,87.4715026,2.0166015625
,87.4928382,1.9580078125
,87.5095985,1.8994140625
,87.5447842,1.8310546875
,87.549862,1.7529296875
,87.5710147,1.6845703125
,87.5854779,1.6162109375
,87.6210745,1.5625
,87.6260218,1.4990234375
,87.6626415,1.435546875
,87.6921393,1.3720703125
,87.6927206,1.3134765625
,87.7092418,1.2646484375
,87.729789,1.23046875
,87.7496497,1.240234375
,87.7855556,1.3330078125
,87.8161196,1.5087890625
,87.8165033,1.767578125
,87.8278002,2.0361328125
,87.8615842,2.255859375
,87.8817553,2.44140625
,87.8892704,2.568359375
,87.9269114,2.65625
,87.9274802,2.6953125
,87.9740095,2.67578125
,87.9745675,2.607421875
,87.9881026,2.51953125
,88.0248795,2.412109375
,88.0256034,2.3095703125
,88.0634476,2.2119140625
,88.0674434,2.12890625
,88.1047709,2.0556640625
,88.1092483,1.9921875
,88.1265207,1.9287109375
,88.1643167,1.875
,88.167606,1.8115234375
,88.2076267,1.7431640625
,88.2081068,1.6748046875
,88.2446057,1.6064453125
,88.2489866,1.5380859375
,88.2855776,1.474609375
,88.2898615,1.4111328125
,88.3068604,1.3427734375
,88.3437222,1.2841796875
,88.3483664,1.2255859375
,88.3831383,1.181640625
,88.3879377,1.181640625
,88.4226735,1.2646484375
,88.4275755,1.4208984375
,88.4623834,1.650390625
,88.4823654,1.8994140625
,88.4908083,2.119140625
,88.5271131,2.3046875
,88.5277524,2.431640625
,88.5632832,2.529296875
,88.5678787,2.568359375
,88.6034298,2.55859375
,88.6103399,2.5
,88.6575711,2.4072265625
,88.6579398,2.2998046875
,88.6698879,2.1923828125
,88.7052257,2.1044921875
,88.7059113,2.03125
,88.7412761,1.9580078125
,88.7622063,1.89453125
,88.769849,1.826171875
,88.7897805,1.7724609375
,88.8257553,1.7138671875
,88.8309581,1.650390625
,88.8511204,1.5869140625
,88.8687535,1.5283203125
,88.9032001,1.4697265625
,88.9086939,1.416015625
,88.9434985,1.3525390625
,88.9486753,1.298828125
,88.9836709,1.2451171875
,89.0039936,1.1962890625
,89.011733,1.1572265625
,89.0261379,1.162109375
,89.0607772,1.2451171875
,89.0807123,1.4013671875
,89.0892841,1.62109375
,89.1262127,1.865234375
,89.128907,2.080078125
,89.1759975,2.2607421875
,89.176577,2.3779296875
,89.2070371,2.4609375
,89.2115546,2.4755859375
,89.2470266,2.44140625
,89.2702655,2.3779296875
,89.270915,2.294921875
,89.2893623,2.197265625
,89.324187,2.1142578125
,89.3440074,2.03125
,89.3525732,1.962890625
,89.3714225,1.89453125
,89.4068961,1.8359375
,89.4072761,1.77734375
,89.4435784,1.7333984375
,89.465227,1.6845703125
,89.4697203,1.6357421875
,89.5070036,1.58203125
,89.5108036,1.5283203125
,89.5469497,1.474609375
,89.5517732,1.4208984375
,89.5980508,1.376953125
,89.5984261,1.3232421875
,89.6078408,1.2744140625
,89.6437333,1.23046875
,89.6641548,1.2060546875
,89.6701441,1.2451171875
,89.7068932,1.376953125
,89.712191,1.5673828125
,89.754486,1.8017578125
,89.7550092,2.0458984375
,89.7683057,2.2314453125
,89.8169123,2.3974609375
,89.8173129,2.4951171875
,89.8379032,2.5537109375
,89.8518954,2.5537109375
,89.8711693,2.5048828125
,89.90592,2.4267578125
,89.9272064,2.32421875
,89.9311009,2.216796875
,89.9733056,2.1240234375
,89.9736867,2.0361328125
,89.9940494,1.97265625
,90.0113891,1.9091796875
,90.0525514,1.845703125
,90.0529086,1.787109375
,90.0976546,1.73828125
,90.0980995,1.6796875
,90.1119304,1.630859375
,90.1470316,1.572265625
,90.1676972,1.5185546875
,90.1683566,1.4697265625
,90.2034596,1.4111328125
,90.2239168,1.357421875
,90.2315815,1.298828125
,90.2696265,1.2353515625
,90.2741151,1.1962890625
,90.316223,1.2060546875
,90.3168763,1.30859375
,90.3296164,1.5185546875
,90.3664983,1.7626953125
,90.3721222,2.0263671875
,90.4067395,2.275390625
,90.4119562,2.4560546875
,90.4488989,2.607421875
,90.4549181,2.6953125
,90.472891,2.7392578125
,90.4899991,2.71484375
,90.525836,2.6513671875
,90.529993,2.5537109375
,90.5654191,2.44140625
,90.5866691,2.3291015625
,90.5922837,2.2265625
,90.62824,2.12890625
,90.6338949,2.0556640625
,90.6707085,1.9873046875
,90.6736989,1.9189453125
,90.6907597,1.845703125
,90.7335244,1.787109375
,90.7339839,1.71875
,90.7522359,1.650390625
,90.7959449,1.58203125
,90.7965693,1.513671875
,90.8133604,1.4404296875
,90.8472861,1.3720703125
,90.8681316,1.30859375
,90.8710137,1.25
,90.9048389,1.19140625
,90.9253892,1.162109375
,90.9308922,1.1865234375
,90.9662727,1.298828125
,90.9866677,1.513671875
,90.9925355,1.748046875
,91.0285087,2.001953125
,91.0337178,2.2216796875
,91.0516183,2.3779296875
,91.0860489,2.5048828125
,91.0903323,2.578125
,91.1246737,2.6025390625
,91.1464575,2.5634765625
,91.1532642,2.48046875
,91.1885434,2.3681640625
,91.1943499,2.24609375
,91.2096639,2.1337890625
,91.2474315,2.0458984375
,91.2504647,1.962890625
,91.2880036,1.8896484375
,91.2925655,1.81640625
,91.3298822,1.748046875
,91.3325985,1.6748046875
,91.3764389,1.611328125
,91.3769088,1.5380859375
,91.3972726,1.4697265625
,91.4170699,1.396484375
,91.4316781,1.328125
,91.467505,1.2646484375
,91.4879802,1.201171875
,91.493039,1.1376953125
,91.5279329,1.07421875
,91.5479292,1.0205078125
,91.5536045,0.986328125
,91.5743173,1.005859375
,91.591199,1.11328125
,91.6265781,1.3134765625
,91.6324056,1.54296875
,91.6659491,1.7822265625
,91.6875184,1.9970703125
,91.6942811,2.1533203125
,91.7272207,2.2705078125
,91.7480647,2.32421875
,91.755471,2.34375
,91.7710826,2.2998046875
,91.8140429,2.2265625
,91.8146191,2.1337890625
,91.8598698,2.03125
,91.8602553,1.943359375
,91.8746141,1.85546875
,91.9109232,1.77734375
,91.9155055,1.708984375
,91.930521,1.6455078125
,91.9700034,1.591796875
,91.9910182,1.533203125
,91.9914406,1.474609375
,92.0253531,1.416015625
,92.0461874,1.3525390625
,92.0559499,1.2890625
,92.0741563,1.2353515625
,92.1093808,1.171875
,92.1295707,1.11328125
,92.1364454,1.064453125
,92.1522342,1.0107421875
,92.1878783,0.9716796875
,92.1923425,0.947265625
,92.2349416,0.95703125
,92.2353003,1.03515625
,92.256023,1.201171875
,92.2988564,1.4013671875
,92.2992156,1.6357421875
,92.3173044,1.845703125
,92.3328034,2.001953125
,92.368044,2.1337890625
,92.3743945,2.2021484375
,92.4117463,2.2265625
,92.4122034,2.2021484375
,92.4475198,2.138671875
,92.4682584,2.0556640625
,92.4759723,1.97265625
,92.4925426,1.8896484375
,92.5273027,1.826171875
,92.5469463,1.7626953125
,92.5532576,1.7041015625
,92.5934521,1.6455078125
,92.5938121,1.591796875
,92.6290551,1.54296875
,92.6495753,1.4990234375
,92.6552349,1.4501953125
,92.675661,1.3916015625
,92.6968648,1.318359375
,92.7146831,1.25
,92.7491722,1.2158203125
,92.7545454,1.1767578125
,92.7909818,1.1328125
,92.7958929,1.0888671875
,92.8328898,1.044921875
,92.8359012,1.0205078125
,92.8748815,1.03515625
,92.8754697,1.1083984375
,92.894962,1.2744140625
,92.9294982,1.474609375
,92.9348933,1.7041015625
,92.9702221,1.9140625
,92.9754764,2.0703125
,93.0125894,2.1923828125
,93.0175719,2.265625
,93.0540391,2.294921875
,93.0546469,2.275390625
,93.0906374,2.2265625
,93.0940975,2.1484375
,93.1306701,2.0654296875
,93.1356787,1.982421875
,93.1701403,1.9140625
,93.1899428,1.845703125
,93.1966333,1.7822265625
,93.2129651,1.7236328125
,93.2486962,1.6748046875
,93.2683005,1.62109375
,93.2735826,1.5771484375
,93.3119311,1.5234375
,93.3140764,1.4599609375
,93.34878,1.4013671875
,93.3694147,1.337890625
,93.376746,1.2744140625
,93.3970559,1.220703125
,93.4333631,1.1474609375
,93.43374,1.09375
,93.4678894,1.0546875
,93.4877185,1.025390625
,93.4958085,1.0400390625
,93.5318446,1.11328125
,93.5368976,1.2890625
,93.5715584,1.494140625
,93.5919268,1.73828125
,93.5964036,1.9677734375
,93.6139338,2.1435546875
,93.6511845,2.28515625
,93.655548,2.373046875
,93.7011549,2.421875
,93.7015828,2.4169921875
,93.7174097,2.3681640625
,93.7631274,2.294921875
,93.7636652,2.2021484375
,93.7932981,2.109375
,93.7937477,2.03125
,93.8413913,1.962890625
,93.8418781,1.89453125
,93.8706449,1.8359375
,93.8776183,1.767578125
,93.8982601,1.7041015625
,93.9336349,1.6455078125
,93.9378794,1.5869140625
,93.9547205,1.5234375
,93.9899965,1.4697265625
,93.9942929,1.40625
,94.0312843,1.34765625
,94.0519383,1.2939453125
,94.0571938,1.240234375
,94.0922121,1.181640625
,94.0982603,1.1279296875
,94.1343625,1.0791015625
,94.1400286,1.0595703125
,94.1549605,1.0986328125
,94.1974943,1.23046875
,94.19785,1.4208984375
,94.2181427,1.6650390625
,94.2374357,1.89453125
,94.2577193,2.0849609375
,94.2923664,2.2412109375
,94.313949,2.34375
,94.3190941,2.4072265625
,94.3351215,2.412109375
,94.3721448,2.3876953125
,94.3764751,2.3193359375
,94.4123191,2.2314453125
,94.4169465,2.1337890625
,94.4629215,2.041015625
,94.4636445,1.9580078125
,94.4790356,1.8798828125
,94.4957839,1.8115234375
,94.5333815,1.7529296875
,94.5339681,1.689453125
,94.5696683,1.630859375
,94.590012,1.572265625
,94.5976835,1.5087890625
,94.6338062,1.4453125
,94.6386649,1.376953125
,94.6787868,1.3134765625
,94.6793954,1.2548828125
,94.6954274,1.2060546875
,94.7301879,1.15234375
,94.739348,1.09375
,94.7577903,1.044921875
,94.7932221,0.99609375
,94.7979544,0.9814453125
,94.8353683,1.015625
,94.8397605,1.1181640625
,94.8593673,1.30859375
,94.8941963,1.5478515625
,94.9163994,1.767578125
,94.9169597,1.982421875
,94.9529036,2.12890625
,94.9583217,2.24609375
,94.993148,2.3095703125
,94.9994534,2.32421875
,95.0346365,2.294921875
,95.0409114,2.2265625
,95.0572848,2.138671875
,95.0908289,2.05078125
,95.11133,1.9677734375
,95.1168946,1.8994140625
,95.1524939,1.8359375
,95.1736238,1.7724609375
,95.1786808,1.708984375
,95.2141378,1.6552734375
,95.2203332,1.6015625
,95.2364417,1.552734375
,95.2565866,1.50390625
,95.2997294,1.4501953125
,95.3000973,1.3916015625
,95.3336432,1.337890625
,95.3397966,1.2841796875
,95.3778863,1.2353515625
,95.3782493,1.1865234375
,95.3966957,1.1328125
,95.4316635,1.0888671875
,95.4378069,1.0498046875
,95.4740433,1.03515625
,95.4791423,1.0595703125
,95.5172265,1.1669921875
,95.5178277,1.3525390625
,95.5527797,1.5673828125
,95.5740931,1.8017578125
,95.5789445,1.9921875
,95.6146041,2.1533203125
,95.6357056,2.255859375
,95.638906,2.3193359375
,95.6589373,2.3291015625
,95.693954,2.3046875
,95.7140285,2.236328125
,95.7202459,2.158203125
,95.7556936,2.0703125
,95.7612682,1.9921875
,95.7785883,1.923828125
,95.7969275,1.865234375
,95.8317233,1.806640625
,95.856181,1.7626953125
,95.8595205,1.7138671875
,95.8953282,1.66015625
,95.9003334,1.6064453125
,95.935864,1.5478515625
,95.9406355,1.4892578125
,95.9579031,1.42578125
,95.9963688,1.3720703125
,95.9984913,1.328125
,96.0457606,1.2744140625
,96.0461881,1.220703125
,96.0774729,1.171875
,96.078098,1.123046875
,96.1141651,1.0888671875
,96.135011,1.0791015625
,96.1398126,1.142578125
,96.1579028,1.298828125
,96.1951472,1.4990234375
,96.2004025,1.7529296875
,96.2203966,1.9873046875
,96.2572338,2.197265625
,96.2601066,2.3486328125
,96.2967929,2.4560546875
,96.300301,2.5048828125
,96.34099,2.51953125
,96.3416078,2.4853515625
,96.3711429,2.4267578125
,96.3795113,2.333984375
,96.417286,2.236328125
,96.4218583,2.1435546875
,96.4404798,2.0703125
,96.4747056,1.9970703125
,96.4950556,1.9384765625
,96.5026883,1.8701171875
,96.5197357,1.8115234375
,96.5386372,1.7578125
,96.5734338,1.708984375
,96.5932773,1.6455078125
,96.6005802,1.58203125
,96.6212657,1.5234375
,96.6562509,1.46484375
,96.6768604,1.40625
,96.677374,1.34765625
,96.7160379,1.2939453125
,96.7475139,1.2451171875
,96.7480943,1.201171875
,96.7604928,1.1767578125
,96.7949755,1.1962890625
,96.8161653,1.3134765625
,96.8211718,1.4990234375
,96.859089,1.748046875
,96.8596827,1.9921875
,96.9011054,2.236328125
,96.9015796,2.412109375
,96.948939,2.55859375
,96.949521,2.646484375
,96.9599674,2.6904296875
,96.9950837,2.6806640625
,97.0157516,2.6220703125
,97.0214803,2.529296875
,97.0407444,2.4169921875
,97.0606837,2.3095703125
,97.1056849,2.216796875
,97.1061945,2.1337890625
,97.1212162,2.060546875
,97.1556972,1.9921875
,97.159772,1.923828125
,97.1960807,1.8603515625
,97.216381,1.8017578125
,97.2217012,1.728515625
,97.2392652,1.6650390625
,97.2758856,1.611328125
,97.2793927,1.552734375
,97.315716,1.4990234375
,97.3355222,1.435546875
,97.3405507,1.376953125
,97.3890921,1.3134765625
,97.3894562,1.259765625
,97.411261,1.220703125
,97.4212789,1.2158203125
,97.4570105,1.279296875
,97.4599348,1.4208984375
,97.4962642,1.6455078125
,97.5008588,1.8896484375
,97.538676,2.1435546875
,97.54229,2.3486328125
,97.5910764,2.5146484375
,97.5914397,2.6220703125
,97.6137806,2.6904296875
,97.6191537,2.705078125
,97.6528058,2.6708984375
,97.674848,2.587890625
,97.6826204,2.48046875
,97.7039018,2.36328125
,97.7231406,2.24609375
,97.7595807,2.1484375
,97.762485,2.0703125
,97.8096765,1.9921875
,97.8100307,1.9189453125
,97.8221243,1.85546875
,97.8576482,1.7919921875
,97.8605592,1.728515625
,97.9023786,1.66015625
,97.9027862,1.591796875
,97.9222735,1.5234375
,97.9656433,1.46484375
,97.966002,1.40625
,97.9818486,1.3525390625
,98.0253481,1.2939453125
,98.0257146,1.2451171875
,98.043682,1.19140625
,98.0776882,1.1572265625
,98.0838986,1.1767578125
,98.1212504,1.259765625
,98.1507846,1.4453125
,98.1513765,1.669921875
,98.1607303,1.9384765625
,98.1960192,2.1630859375
,98.2014591,2.3583984375
,98.2394333,2.4853515625
,98.2442524,2.5732421875
,98.2801994,2.59765625
,98.2833848,2.5830078125
,98.3003016,2.5146484375
,98.3358588,2.4267578125
,98.3543221,2.294921875
,98.3628827,2.197265625
,98.3997979,2.1142578125
,98.4021613,2.041015625
,98.441516,1.97265625
,98.4418903,1.904296875
,98.4773717,1.8408203125
,98.4978265,1.7822265625
,98.5064959,1.71875
,98.5221369,1.66015625
,98.57181,1.6064453125
,98.5727247,1.5478515625
,98.5830443,1.4892578125
,98.6320004,1.4306640625
,98.6323575,1.3818359375
,98.6532587,1.3232421875
,98.6659685,1.2744140625
,98.6816908,1.220703125
,98.7161081,1.1865234375
,98.7224828,1.1865234375
,98.7582316,1.259765625
,98.7778096,1.4208984375
,98.7829414,1.640625
,98.8194707,1.8994140625
,98.8498224,2.12890625
,98.8502933,2.3291015625
,98.8625376,2.4658203125
,98.8984967,2.568359375
,98.9001706,2.6025390625
,98.9452155,2.59765625
,98.9456358,2.5390625
,98.9759601,2.451171875
,98.9853266,2.3486328125
,99.0210684,2.236328125
,99.023651,2.1337890625
,99.0467666,2.0361328125
,99.0822514,1.953125
,99.0826358,1.8896484375
,99.1302863,1.8408203125
,99.1307578,1.787109375
,99.1443377,1.728515625
,99.1652652,1.669921875
,99.2080593,1.611328125
,99.2084969,1.5478515625
,99.226583,1.4892578125
,99.2418373,1.42578125
,99.2848114,1.376953125
,99.2853056,1.3232421875
,99.3059107,1.26953125
,99.3249559,1.2109375
,99.3599987,1.1669921875
,99.3650273,1.1669921875
,99.402009,1.240234375
,99.405077,1.416015625
,99.4228568,1.6552734375
,99.4747527,1.943359375
,99.4753465,2.1923828125
,99.4835067,2.421875
,99.5196321,2.5830078125
,99.5403354,2.705078125
,99.5450033,2.7587890625
,99.5814422,2.7587890625
,99.582377,2.7099609375
,99.6295973,2.626953125
,99.6301905,2.51953125
,99.6440659,2.3974609375
,99.664982,2.28515625
,99.7010995,2.1826171875
,99.7041541,2.1044921875
