Time,PPG_Signal
0.560272,0.9765625
0.5800482,1.0107421875
0.630005,1.064453125
0.6303323,1.1474609375
0.6404204,1.23046875
0.6767623,1.3330078125
0.7129136,1.416015625
0.7135616,1.5087890625
0.7182865,1.58203125
0.7543302,1.6650390625
0.7764861,1.7236328125
0.7809078,1.77734375
0.8169612,1.8115234375
0.8222822,1.81640625
0.8586071,1.806640625
0.884651,1.7822265625
0.8849228,1.73828125
0.8993391,1.6943359375
0.9335359,1.66015625
0.9534556,1.6162109375
0.9594681,1.5771484375
0.9919674,1.54296875
1.0126577,1.5087890625
1.0232726,1.474609375
1.058306,1.4404296875
1.0585656,1.40625
1.0928794,1.3818359375
1.1138577,1.3525390625
1.1200137,1.3232421875
1.1545549,1.298828125
1.1812289,1.26953125
1.1814741,1.25
1.2167754,1.220703125
1.2387387,1.201171875
1.239063,1.1767578125
1.2746847,1.171875
1.2959648,1.15234375
1.3061036,1.142578125
1.3231434,1.123046875
1.3710786,1.11328125
1.3761278,1.0986328125
1.3825868,1.0888671875
1.4183182,1.0693359375
1.4234996,1.0693359375
1.4686304,1.0595703125
1.4861466,1.0498046875
1.4863935,1.0498046875
1.5029107,1.0400390625
1.5390317,1.03515625
1.5416642,1.025390625
1.5877331,1.025390625
1.5880179,1.015625
1.6092541,1.005859375
1.6207755,1.0009765625
1.6695766,1.005859375
1.6699739,1.0009765625
1.6889534,1.005859375
1.7006833,1.005859375
1.7380869,1.005859375
1.7680641,1.0107421875
1.7683664,1.005859375
1.7846433,1.0009765625
1.7999076,0.99609375
1.8353739,1.005859375
1.8698613,1.015625
1.8701662,1.044921875
1.8823388,1.0986328125
1.9188215,1.181640625
1.9390313,1.2646484375
1.9432514,1.3671875
1.9755574,1.455078125
1.9807044,1.5576171875
2.0229174,1.640625
2.0237045,1.7236328125
2.0678784,1.7822265625
2.0843586,1.8359375
2.0846003,1.8701171875
2.1196297,1.875
2.1244195,1.865234375
2.1442161,1.8310546875
2.1792814,1.7626953125
2.2101405,1.7236328125
2.2105017,1.689453125
2.2224989,1.6455078125
2.2704791,1.6064453125
2.2877126,1.5673828125
2.2879656,1.5283203125
2.3040073,1.4892578125
2.3392132,1.455078125
2.3594158,1.4111328125
2.3613603,1.38671875
2.3939113,1.357421875
2.4148884,1.3232421875
2.4231612,1.298828125
2.467938,1.2744140625
2.4684113,1.259765625
2.4879044,1.2353515625
2.5063641,1.2109375
2.5212254,1.1865234375
2.5616879,1.171875
2.5619711,1.1474609375
2.5829072,1.1376953125
2.6190911,1.1181640625
2.6450844,1.103515625
2.6453283,1.0888671875
2.6909833,1.07421875
2.6912286,1.0595703125
2.7123091,1.0595703125
2.7239709,1.0546875
2.761539,1.044921875
2.7618444,1.03515625
2.7830282,1.025390625
2.8316592,1.015625
2.8319039,1.005859375
2.8536096,1.005859375
2.8621675,0.9912109375
2.8967613,0.99609375
2.9010043,0.9912109375
2.9355579,0.9814453125
2.9541374,0.9814453125
2.9643264,0.986328125
2.9990038,0.9814453125
3.0035869,0.9814453125
3.0383763,0.986328125
3.0578597,0.9765625
3.0659433,0.9765625
3.0825118,0.9765625
3.1286203,0.9912109375
3.1289203,1.0107421875
3.1484101,1.0693359375
3.1822304,1.1376953125
3.1824906,1.23046875
3.219232,1.318359375
3.2518905,1.416015625
3.2522951,1.4990234375
3.2637423,1.591796875
3.2839203,1.66015625
3.3042549,1.7236328125
3.338081,1.7578125
3.345112,1.7919921875
3.3929714,1.796875
3.3933838,1.77734375
3.415888,1.73828125
3.4222718,1.69921875
3.4619505,1.66015625
3.4637675,1.62109375
3.4965966,1.5869140625
3.5187558,1.552734375
3.5254944,1.5185546875
3.5694947,1.484375
3.5698259,1.4501953125
3.5896348,1.416015625
3.602565,1.3916015625
3.6380538,1.3623046875
3.6634598,1.3330078125
3.6637801,1.30859375
3.7006476,1.279296875
3.7051495,1.2548828125
3.7645704,1.23046875
3.7648658,1.2060546875
3.7686861,1.181640625
3.7868213,1.1669921875
3.8041068,1.142578125
3.8234904,1.1328125
3.86361,1.1181640625
3.8804293,1.1083984375
3.8846952,1.09375
3.9194555,1.0791015625
3.9442221,1.0693359375
3.9444688,1.0546875
3.9702689,1.03515625
3.9854017,1.03515625
4.0322541,1.03515625
4.0325756,1.0205078125
4.0447308,1.015625
4.0817238,1.005859375
4.0857748,1.0009765625
4.1201664,0.9912109375
4.1401717,0.9912109375
4.14453,0.9814453125
4.1798129,0.9814453125
4.1833204,0.986328125
4.2045671,0.986328125
4.246201,0.986328125
4.246529,0.9912109375
4.2665484,0.986328125
4.3063193,0.986328125
4.306569,0.9912109375
4.3245792,0.986328125
4.3758081,0.99609375
4.3763029,1.025390625
4.3853228,1.09375
4.4211692,1.171875
4.4250796,1.2646484375
4.4591748,1.3525390625
4.4849789,1.455078125
4.485384,1.5478515625
4.5095336,1.630859375
4.5239644,1.69921875
4.5609184,1.796875
4.5654672,1.85546875
4.5860565,1.89453125
4.6299102,1.8994140625
4.6301802,1.8994140625
4.6475451,1.8701171875
4.6917291,1.8212890625
4.6919795,1.767578125
4.7236765,1.708984375
4.7239695,1.6650390625
4.7596949,1.62109375
4.7788912,1.58203125
4.787483,1.54296875
4.8071669,1.50390625
4.8279727,1.4599609375
4.8495858,1.42578125
4.8658163,1.3916015625
4.8861441,1.3720703125
4.9220124,1.337890625
4.9240176,1.30859375
4.9641641,1.2841796875
4.9954864,1.2548828125
4.9958276,1.23046875
5.0075546,1.2109375
5.0287828,1.19140625
5.0456393,1.1669921875
5.0659116,1.1572265625
5.1145732,1.142578125
5.1149536,1.1328125
5.1267142,1.11328125
5.1487991,1.0986328125
5.1857565,1.083984375
5.1860676,1.0693359375
5.206692,1.0595703125
5.2427587,1.0546875
5.2431935,1.0400390625
5.2810432,1.0400390625
5.2857562,1.03515625
5.3278463,1.025390625
5.3281058,1.015625
5.348285,1.0009765625
5.3820636,0.9912109375
5.4057837,0.9814453125
5.407769,0.9814453125
5.4238763,0.9765625
5.4591984,0.9765625
5.4840995,0.9716796875
5.4843493,0.9716796875
5.5341198,0.9765625
5.5343884,0.9814453125
5.5520488,0.9814453125
5.5693602,0.986328125
5.6074315,0.9912109375
5.6077427,0.986328125
5.6399825,1.0107421875
5.6471234,1.0498046875
5.6878847,1.1279296875
5.6882962,1.2109375
5.7240599,1.30859375
5.7286873,1.4013671875
5.7501164,1.4990234375
5.765072,1.58203125
5.80152,1.6748046875
5.8064984,1.7431640625
5.8423073,1.796875
5.8474927,1.826171875
5.8834383,1.8505859375
5.8883212,1.8359375
5.9240339,1.81640625
5.9586715,1.7724609375
5.9589915,1.71875
5.9671792,1.6748046875
6.0068353,1.6259765625
6.0111212,1.58203125
6.0289334,1.5380859375
6.0708476,1.50390625
6.0714416,1.46484375
6.0888848,1.4306640625
6.1210046,1.396484375
6.1283993,1.3427734375
6.148142,1.2939453125
6.1949841,1.2890625
6.1953073,1.26953125
6.2079659,1.25
6.242241,1.23046875
6.2640555,1.2060546875
6.2703928,1.1865234375
6.2901351,1.1669921875
6.3138411,1.1474609375
6.3278355,1.1328125
6.3718382,1.1181640625
6.3721698,1.103515625
6.3894191,1.09375
6.4082674,1.0791015625
6.4513113,1.0693359375
6.4515931,1.0546875
6.4708845,1.0400390625
6.4871408,1.0302734375
6.5322057,1.025390625
6.5326619,1.015625
6.5476125,1.025390625
6.5822664,1.0400390625
6.6114866,1.07421875
6.6120083,1.1328125
6.6581859,1.201171875
6.6585182,1.2841796875
6.6667126,1.3623046875
6.7035034,1.4453125
6.7355234,1.513671875
6.7357698,1.572265625
6.7467111,1.611328125
6.7796125,1.640625
6.8016547,1.640625
6.8100402,1.6259765625
6.8270685,1.5966796875
6.8644574,1.5673828125
6.8695831,1.5380859375
6.918652,1.4990234375
6.9192281,1.4697265625
6.9281358,1.435546875
6.9670839,1.4013671875
6.9674538,1.3671875
7.0017469,1.337890625
7.0240138,1.30859375
7.0321541,1.279296875
7.0463356,1.25
7.0795566,1.2353515625
7.1016018,1.2158203125
7.1097321,1.201171875
7.1309398,1.1767578125
7.1509697,1.162109375
7.1876646,1.1328125
7.1880564,1.123046875
7.2283466,1.103515625
7.2286807,1.0888671875
7.2507871,1.0791015625
7.2691895,1.0693359375
7.3057716,1.0595703125
7.3083008,1.0498046875
7.3278959,1.0400390625
7.3658927,1.0302734375
7.3868303,1.0205078125
7.3872292,1.0107421875
7.4218569,1.0107421875
7.4540459,1.0009765625
7.4543557,1.0009765625
7.4702591,0.9912109375
7.5041655,0.986328125
7.5091241,0.9814453125
7.5356691,0.9765625
7.5521256,0.9716796875
7.5686005,0.966796875
7.5881976,0.9765625
7.6092993,0.9765625
7.6454887,0.9765625
7.6472439,0.9765625
7.6833963,0.9765625
7.7027875,0.9765625
7.7117708,0.9765625
7.7325385,0.9716796875
7.7673852,0.947265625
7.7676401,0.9521484375
7.8017993,0.966796875
7.8269524,0.9716796875
7.8287182,0.9912109375
7.8611945,1.025390625
7.8814991,1.083984375
7.8912044,1.171875
7.9263525,1.259765625
7.9467437,1.3671875
7.9471421,1.46484375
7.9831103,1.5771484375
8.0120378,1.6748046875
8.0124658,1.7626953125
8.0455642,1.826171875
8.0500763,1.875
8.0874577,1.904296875
8.1066486,1.923828125
8.1069726,1.9140625
8.1568523,1.89453125
8.1572909,1.8505859375
8.1696501,1.7919921875
8.2173866,1.7333984375
8.2178627,1.6796875
8.2406729,1.630859375
8.25196,1.58203125
8.2930298,1.5380859375
8.2933487,1.494140625
8.3093079,1.4599609375
8.3547876,1.42578125
8.3551394,1.396484375
8.3748604,1.3623046875
8.3899117,1.328125
8.4239037,1.2939453125
8.444617,1.2646484375
8.4486647,1.2353515625
8.4843714,1.2158203125
8.4892793,1.1962890625
8.540642,1.1767578125
8.5409389,1.1572265625
8.5513682,1.1376953125
8.587306,1.1181640625
8.591649,1.103515625
8.6269419,1.0986328125
8.6318141,1.0888671875
8.6793748,1.07421875
8.6797885,1.064453125
8.7008498,1.0546875
8.710057,1.044921875
8.7564223,1.0400390625
8.7712842,1.0302734375
8.7716889,1.015625
8.7916294,1.0107421875
8.8271964,0.9912109375
8.8495243,0.986328125
8.8498619,0.9716796875
8.8720004,0.9765625
8.8917137,0.9716796875
8.9555482,0.966796875
8.9558117,0.95703125
8.9600377,0.95703125
8.9743012,0.9423828125
9.0173674,0.9423828125
9.0176854,0.9326171875
9.0294261,0.9375
9.0620732,0.9326171875
9.0823603,0.9375
9.0904434,0.927734375
9.1277614,0.9423828125
9.1323074,0.9423828125
9.1696497,0.9423828125
9.1737318,0.947265625
9.1891202,0.9619140625
9.2250618,1.0205078125
9.2444394,1.0986328125
9.2521707,1.1962890625
9.2871249,1.2890625
9.2912628,1.3916015625
9.3236518,1.4794921875
9.3524442,1.5673828125
9.3527955,1.6455078125
9.3884063,1.6943359375
9.3888154,1.7529296875
9.4289579,1.8017578125
9.4292883,1.826171875
9.4494669,1.81640625
9.4810539,1.796875
9.5020962,1.7529296875
9.5124019,1.7138671875
9.5605235,1.6650390625
9.5790039,1.6162109375
9.5793262,1.572265625
9.5902979,1.5380859375
9.6381673,1.50390625
9.6385004,1.474609375
9.6581895,1.4404296875
9.6714272,1.40625
9.7077736,1.376953125
9.7325979,1.34765625
9.7329987,1.3134765625
9.7517807,1.2939453125
9.7713217,1.2744140625
9.8076665,1.25
9.8121691,1.2255859375
9.8468599,1.2060546875
9.8682226,1.181640625
9.8747867,1.1669921875
9.9169486,1.1474609375
9.917203,1.1279296875
9.9306183,1.123046875
9.9788416,1.1083984375
9.9791344,1.09375
9.9931991,1.0791015625
10.0296284,1.0693359375
10.0346022,1.0546875
10.0703804,1.044921875
10.0735735,1.03515625
10.0911832,1.0205078125
10.1156264,1.0205078125
10.1329748,0.986328125
10.1517482,0.99609375
10.1947307,0.99609375
10.1949701,0.9912109375
10.2310836,0.986328125
10.2314197,0.986328125
10.2714148,0.9814453125
10.3046666,0.9814453125
10.3050195,0.9765625
10.3114689,0.9765625
10.3542626,0.9765625
10.354565,0.9765625
10.3846463,0.9716796875
10.3933651,0.9814453125
10.4158658,0.9814453125
10.4512849,0.9814453125
10.4556936,1.015625
10.4713842,1.07421875
10.5156559,1.162109375
10.5160715,1.2451171875
10.5338213,1.34765625
10.5528061,1.42578125
10.5887639,1.513671875
10.594459,1.58203125
10.6290755,1.650390625
10.6309741,1.69921875
10.6653049,1.7529296875
10.6860561,1.77734375
10.6906742,1.7822265625
10.7323166,1.767578125
10.7327277,1.728515625
10.7667769,1.6845703125
10.7940819,1.640625
10.7944845,1.6015625
10.8146967,1.5576171875
10.8317389,1.5234375
10.8780303,1.4892578125
10.8942713,1.4599609375
10.8946756,1.4306640625
10.9276105,1.4013671875
10.9487678,1.3671875
10.9534442,1.3427734375
10.9903358,1.3134765625
11.0100423,1.2841796875
11.0102876,1.25
11.0637481,1.2353515625
11.0639917,1.220703125
11.0823993,1.1962890625
11.0941069,1.1767578125
11.1141303,1.1572265625
11.1492994,1.1328125
11.1715988,1.11328125
11.1753264,1.0986328125
11.1926531,1.0888671875
11.2346066,1.0791015625
11.234943,1.0693359375
11.2699259,1.0595703125
11.2742617,1.044921875
11.3118387,1.0400390625
11.3170032,1.0302734375
11.3572459,1.025390625
11.3575041,1.0205078125
11.3774926,1.005859375
11.3938775,1.005859375
11.4362233,0.99609375
11.4365424,0.99609375
11.4546667,0.9912109375
11.4745009,0.986328125
11.5262279,0.9765625
11.5266237,0.9716796875
11.5315225,0.966796875
11.5714239,0.9765625
11.5757008,0.9716796875
11.5927736,0.9765625
11.6289701,0.9716796875
11.6494807,0.9716796875
11.6534713,0.966796875
11.6866242,0.9765625
11.7083435,0.986328125
11.716411,0.9912109375
11.7382058,0.99609375
11.7533571,1.025390625
11.7772013,1.123046875
11.7948419,1.2158203125
11.8362684,1.3232421875
11.8365878,1.416015625
11.8567324,1.513671875
11.8766509,1.6015625
11.9133146,1.6796875
11.9137252,1.7431640625
11.9487062,1.806640625
11.9683805,1.845703125
11.9742586,1.865234375
12.0073059,1.8701171875
12.0290076,1.845703125
12.0352799,1.806640625
12.0806852,1.7578125
12.0810606,1.708984375
12.0926706,1.6552734375
12.1285484,1.6162109375
12.1499927,1.572265625
12.154831,1.533203125
12.1901492,1.494140625
12.2116668,1.46484375
12.2165321,1.42578125
12.2570857,1.396484375
12.2573829,1.3623046875
12.2728292,1.337890625
12.3134938,1.3037109375
12.344364,1.279296875
12.3446918,1.2548828125
12.3529428,1.23046875
12.388746,1.2060546875
12.4122749,1.1767578125
12.4172437,1.1572265625
12.4328441,1.1328125
12.4691274,1.123046875
12.4744637,1.1083984375
12.5104156,1.0986328125
12.5305868,1.0791015625
12.5357728,1.064453125
12.5712219,1.0498046875
12.5751981,1.0400390625
12.6124402,1.025390625
12.6453265,1.015625
12.6456517,1.0107421875
12.654941,0.99609375
12.6893565,0.99609375
12.7228518,0.99609375
12.7231297,1.005859375
12.7356662,1.0009765625
12.7771074,1.005859375
12.7819669,0.99609375
12.798286,0.99609375
12.8136056,0.986328125
12.8583794,0.99609375
12.8587271,0.99609375
12.8754997,1.0009765625
12.9130816,1.0009765625
12.9469597,1.0009765625
12.9473584,0.99609375
12.9587835,1.0009765625
12.9782003,1.0009765625
12.9938419,1.0009765625
13.0373114,1.03515625
13.0376354,1.09375
13.0735304,1.171875
13.0763725,1.2548828125
13.0977744,1.34765625
13.1445752,1.42578125
13.1451535,1.5087890625
13.1540946,1.58203125
13.1913906,1.6552734375
13.2139979,1.708984375
13.2186019,1.7578125
13.236975,1.77734375
13.2770247,1.7822265625
13.2773471,1.767578125
13.3260226,1.728515625
13.3263126,1.689453125
13.338086,1.640625
13.3767058,1.58203125
13.39291,1.5478515625
13.395049,1.5185546875
13.4283107,1.4892578125
13.4479678,1.455078125
13.4587747,1.4208984375
13.4774597,1.3916015625
13.5256999,1.3623046875
13.525948,1.3330078125
13.5465265,1.3037109375
13.5559624,1.2841796875
13.5903289,1.259765625
13.5952538,1.2451171875
13.6309361,1.2255859375
13.6512458,1.1962890625
13.6574249,1.1767578125
13.6928107,1.1572265625
13.7136014,1.1376953125
13.7138541,1.1181640625
13.7513452,1.11328125
13.7738791,1.103515625
13.7756676,1.0888671875
13.8117574,1.0791015625
13.8326681,1.0693359375
13.8378769,1.0595703125
13.8742237,1.0498046875
13.8744709,1.0400390625
13.9094826,1.03515625
13.9309871,1.03515625
13.9352648,1.025390625
13.9845906,1.0205078125
13.9850052,1.0107421875
14.0192852,1.005859375
14.0195315,1.0009765625
14.0549486,0.99609375
14.0553131,0.9912109375
14.1038606,0.99609375
14.1041434,0.9912109375
14.1179165,0.99609375
14.1534859,0.9912109375
14.1601184,0.99609375
14.1781351,0.9912109375
14.2130816,0.986328125
14.2341132,0.986328125
14.2387807,1.0205078125
14.2732853,1.0791015625
14.2951078,1.15234375
14.2954012,1.2451171875
14.3319039,1.337890625
14.3518258,1.435546875
14.3578667,1.5234375
14.3900434,1.6162109375
14.4125777,1.689453125
14.4196699,1.7529296875
14.4356172,1.806640625
14.4728963,1.8505859375
14.5019646,1.865234375
14.5022081,1.8701171875
14.5166942,1.845703125
14.5519008,1.8017578125
14.580491,1.7529296875
14.5808735,1.69921875
14.6243872,1.650390625
14.6247862,1.6015625
14.6380407,1.5673828125
14.6846946,1.5283203125
14.6849445,1.494140625
14.698945,1.455078125
14.7386338,1.4208984375
14.7389579,1.38671875
14.7758865,1.3671875
14.7761268,1.3330078125
14.8108641,1.318359375
14.8330286,1.2890625
14.8383206,1.259765625
14.8740064,1.23046875
14.8779334,1.2158203125
14.9126818,1.1962890625
14.9347257,1.171875
14.93996,1.15234375
14.9748169,1.1328125
14.97896,1.11328125
15.0144853,1.0986328125
15.019998,1.0888671875
15.0377372,1.0791015625
15.0788928,1.0693359375
15.0792119,1.0595703125
15.0982059,1.044921875
15.1320633,1.03515625
15.1541719,1.0205078125
15.1548437,1.0107421875
15.191055,1.005859375
15.2111004,1.005859375
15.2179549,0.9912109375
15.2638155,0.9912109375
15.264058,0.986328125
15.2807589,0.986328125
15.3214794,0.9765625
15.321951,0.9716796875
15.3365815,0.966796875
15.3734103,0.9716796875
15.3928217,0.966796875
15.3981107,0.966796875
15.4345803,0.9619140625
15.4632803,0.95703125
15.4636411,0.9521484375
15.4820349,0.9521484375
15.497902,0.9521484375
15.5344192,1.0009765625
15.5393498,1.0791015625
15.5734845,1.1572265625
15.5798339,1.2548828125
15.6175851,1.3525390625
15.6195385,1.4501953125
15.6543708,1.533203125
15.6793422,1.6162109375
15.6797661,1.6845703125
15.7197846,1.7578125
15.72008,1.7724609375
15.7383626,1.806640625
15.7742879,1.8212890625
15.7792936,1.8212890625
15.8151848,1.7919921875
15.8190925,1.748046875
15.8531577,1.708984375
15.8768517,1.66015625
15.8811501,1.6162109375
15.8998719,1.572265625
15.9391522,1.54296875
15.9394713,1.50390625
15.9599288,1.4697265625
16.0002447,1.435546875
16.0006312,1.40625
16.0454187,1.3720703125
16.0456716,1.3427734375
16.0574302,1.3134765625
16.0916701,1.2890625
16.1190884,1.26953125
16.1232795,1.2451171875
16.1392539,1.220703125
16.1857515,1.2060546875
16.1995537,1.1865234375
16.199995,1.162109375
16.2400837,1.1474609375
16.2404852,1.1279296875
16.260119,1.1181640625
16.2787498,1.1083984375
16.3138309,1.103515625
16.3338057,1.0888671875
16.3386557,1.083984375
16.382485,1.0693359375
16.4003932,1.0595703125
16.400795,1.044921875
16.4232254,1.0400390625
16.4392046,1.0302734375
16.4595139,1.0205078125
16.4950792,1.015625
16.514278,1.005859375
16.5193455,0.99609375
16.5572867,0.9912109375
16.5841613,0.986328125
16.58883,0.9814453125
16.6039212,0.986328125
16.6242681,0.9814453125
16.638783,0.986328125
16.6740872,0.9814453125
16.6993402,0.986328125
16.6997357,0.9814453125
16.7395274,0.9912109375
16.7702836,1.015625
16.7705419,1.07421875
16.7883851,1.15234375
16.7988645,1.2646484375
16.8339194,1.3671875
16.8405519,1.46484375
16.8750126,1.5576171875
16.8974161,1.640625
16.9024495,1.7138671875
16.9530882,1.7626953125
16.9533284,1.806640625
16.9599344,1.8310546875
16.9999288,1.8408203125
17.0004654,1.826171875
17.0355631,1.7919921875
17.0406587,1.7431640625
17.0758913,1.7041015625
17.1118081,1.66015625
17.1121693,1.6162109375
17.1232519,1.572265625
17.1387636,1.5283203125
17.1768897,1.4990234375
17.1968755,1.46484375
17.2023143,1.435546875
17.2381568,1.4013671875
17.2426134,1.3671875
17.2923242,1.337890625
17.2926254,1.3134765625
17.3028332,1.2841796875
17.3242833,1.2451171875
17.3394948,1.201171875
17.3870349,1.2060546875
17.3873828,1.19140625
17.4040592,1.181640625
17.4225728,1.162109375
17.4664981,1.15234375
17.4668258,1.1376953125
17.4993625,1.1181640625
17.5033126,1.103515625
17.5205605,1.0888671875
17.5428557,1.083984375
17.5613401,1.07421875
17.6019,1.064453125
17.6021952,1.0546875
17.6392703,1.044921875
17.6414115,1.0302734375
17.6754142,1.0205078125
17.6960557,1.0107421875
17.699998,1.0107421875
17.7344623,1.005859375
17.7596053,1.0009765625
17.7616094,1.005859375
17.7961451,0.99609375
17.8170631,0.99609375
17.8232016,0.986328125
17.8439336,0.9912109375
17.8600101,0.9912109375
17.9008336,0.99609375
17.9010953,0.99609375
17.9397773,1.0009765625
17.9584781,0.99609375
17.9633135,1.0009765625
18.0003467,0.99609375
18.0054766,1.025390625
18.0195801,1.0791015625
18.0397534,1.1669921875
18.0826425,1.25
18.0830352,1.357421875
18.1126672,1.4599609375
18.1216954,1.5478515625
18.1569126,1.640625
18.1778633,1.7138671875
18.1826834,1.7822265625
18.21891,1.826171875
18.2408067,1.8603515625
18.2412032,1.8701171875
18.2877513,1.865234375
18.2881311,1.8408203125
18.3139588,1.796875
18.3240694,1.7431640625
18.3605203,1.689453125
18.364737,1.640625
18.4069185,1.591796875
18.4072128,1.552734375
18.422481,1.5087890625
18.4575571,1.474609375
18.4629175,1.435546875
18.5004561,1.40625
18.5007071,1.3720703125
18.5439864,1.337890625
18.5442314,1.3037109375
18.5647174,1.26953125
18.5806063,1.240234375
18.6217701,1.2255859375
18.622011,1.201171875
18.6674464,1.1767578125
18.6677597,1.1572265625
18.6849158,1.1376953125
18.7287852,1.11328125
18.7290292,1.0986328125
18.7456205,1.083984375
18.7623669,1.0595703125
18.7975423,1.0498046875
18.8023216,1.0400390625
18.8378335,1.0302734375
18.8642397,1.0205078125
18.8645078,1.0205078125
18.9001481,1.015625
18.9050853,1.005859375
18.9251839,0.99609375
18.9467962,0.966796875
18.9618367,0.9423828125
19.0052486,0.9521484375
19.0054994,0.95703125
19.0268293,0.9619140625
19.0459676,0.966796875
19.0650997,0.966796875
19.1050847,0.966796875
19.105326,0.966796875
19.1404012,0.966796875
19.1603089,0.966796875
19.1634003,0.9716796875
19.1825691,0.9716796875
19.2185771,0.9765625
19.2465676,0.9716796875
19.2471961,0.9814453125
19.264802,1.0107421875
19.3011483,1.0791015625
19.3239162,1.162109375
19.3241582,1.2646484375
19.3595207,1.357421875
19.3638433,1.46484375
19.4012044,1.552734375
19.4030507,1.6259765625
19.4361424,1.6943359375
19.4597913,1.748046875
19.4666569,1.787109375
19.4822608,1.796875
19.5033227,1.8017578125
19.5526511,1.77734375
19.55289,1.7431640625
19.562072,1.69921875
19.5975438,1.6552734375
19.6267981,1.611328125
19.6307848,1.5771484375
19.6417279,1.533203125
19.6881629,1.50390625
19.6885653,1.474609375
19.7094608,1.4404296875
19.7284474,1.4111328125
19.7439429,1.376953125
19.7813644,1.34765625
19.7832544,1.30859375
19.8161352,1.2841796875
19.8360917,1.2548828125
19.8461918,1.23046875
19.8622152,1.2060546875
19.8948686,1.201171875
19.9161722,1.181640625
19.9242214,1.1669921875
19.9642066,1.15234375
19.9936307,1.1376953125
19.9940322,1.1181640625
20.0066828,1.103515625
20.042229,1.0888671875
20.042484,1.07421875
20.0874327,1.064453125
20.0876768,1.0546875
20.1073199,1.044921875
20.1239841,1.03515625
20.158503,1.0302734375
20.1800568,1.015625
20.1858375,1.005859375
20.2205589,0.99609375
20.2208284,0.99609375
20.2697753,0.9912109375
20.2703275,0.9912109375
20.2906272,0.9912109375
20.3177216,0.986328125
20.327126,0.9912109375
20.3473126,0.986328125
20.3661516,0.986328125
20.3849115,0.986328125
20.4323005,0.99609375
20.4327133,0.9912109375
20.4454397,0.99609375
20.4649555,0.9912109375
20.5163009,1.005859375
20.5166019,1.03515625
20.5277435,1.11328125
20.5646658,1.19140625
20.5650075,1.2890625
20.5988354,1.38671875
20.603736,1.494140625
20.6245863,1.5869140625
20.6666155,1.6845703125
20.6669614,1.767578125
20.7208778,1.826171875
20.7211186,1.8701171875
20.7373725,1.89453125
20.7460853,1.904296875
20.781,1.884765625
20.7853311,1.85546875
20.8295025,1.806640625
20.8298622,1.7529296875
20.8451128,1.69921875
20.8806513,1.650390625
20.9079278,1.6015625
20.9082214,1.5673828125
20.9229279,1.5283203125
20.9572826,1.4990234375
20.9773847,1.474609375
20.9832536,1.435546875
21.0175863,1.4013671875
21.0473612,1.3623046875
21.0476076,1.3330078125
21.0917309,1.298828125
21.0919849,1.26953125
21.1037882,1.240234375
21.1397106,1.220703125
21.1604924,1.1962890625
21.1648277,1.181640625
21.1996113,1.1572265625
21.2200894,1.142578125
21.2250893,1.123046875
21.2607484,1.1083984375
21.2809739,1.0888671875
21.2859775,1.083984375
21.3081217,1.0498046875
21.3265882,1.0205078125
21.3625114,1.025390625
21.3670488,1.025390625
21.4040417,1.025390625
21.4061411,1.015625
21.441243,1.0107421875
21.4628486,1.0009765625
21.4693833,0.99609375
21.4854121,0.9912109375
21.5053395,0.9912109375
21.5491987,0.986328125
21.5494438,0.9814453125
21.5668753,0.9716796875
21.6030433,0.9619140625
21.6067336,0.966796875
21.6526654,0.95703125
21.6529176,0.9521484375
21.6746353,0.9521484375
21.6858633,0.95703125
21.7239256,0.95703125
21.7244492,0.95703125
21.7651192,0.966796875
21.7966051,1.0107421875
21.7970047,1.07421875
21.8067227,1.171875
21.8238317,1.259765625
21.860009,1.3720703125
21.8808359,1.4697265625
21.8867763,1.5625
21.9357089,1.6455078125
21.9359754,1.728515625
21.9483119,1.796875
21.9964416,1.8359375
21.9968377,1.8603515625
22.0035785,1.85546875
22.0380274,1.845703125
22.0605522,1.8017578125
22.067681,1.7578125
22.1103228,1.708984375
22.1106203,1.66015625
22.127806,1.611328125
22.16511,1.5673828125
22.1694986,1.5234375
22.2179567,1.484375
22.2183853,1.4453125
22.2253386,1.416015625
22.2657599,1.38671875
22.2858439,1.357421875
22.2909808,1.328125
22.3250561,1.298828125
22.3275435,1.2744140625
22.3651945,1.2451171875
22.3679828,1.2158203125
22.3853462,1.1962890625
22.422668,1.181640625
22.4270263,1.1572265625
22.4675331,1.142578125
22.4679674,1.123046875
22.5044949,1.11328125
22.5098711,1.09375
22.5322127,1.083984375
22.5456608,1.064453125
22.5927335,1.0595703125
22.5929756,1.0498046875
22.6070208,1.03515625
22.6391818,1.025390625
22.6599717,1.0107421875
22.6685066,1.005859375
22.7028034,0.99609375
22.7291135,0.9912109375
22.732987,0.9814453125
22.7466123,0.9765625
22.7924525,0.9716796875
22.7927377,0.966796875
22.8063981,0.9619140625
22.8391685,0.9619140625
22.859035,0.9521484375
22.8710614,0.9521484375
22.8900572,0.9619140625
22.9131455,0.95703125
22.9315164,0.9326171875
22.9486259,0.91796875
22.967799,0.95703125
23.0120439,1.015625
23.0122888,1.0986328125
23.0290818,1.19140625
23.0652095,1.298828125
23.0691515,1.38671875
23.1031379,1.4892578125
23.1252255,1.5673828125
23.1256599,1.66015625
23.1606143,1.7236328125
23.1948417,1.7822265625
23.1953074,1.81640625
23.2096586,1.8359375
23.2452235,1.826171875
23.2494075,1.7919921875
23.2829306,1.748046875
23.3042367,1.69921875
23.3083879,1.66015625
23.3399764,1.6162109375
23.3616678,1.5771484375
23.3693549,1.5380859375
23.4043663,1.50390625
23.4090894,1.4697265625
23.4306484,1.435546875
23.4462358,1.396484375
23.4879972,1.3720703125
23.4883169,1.34765625
23.5071528,1.318359375
23.5312372,1.298828125
23.5497806,1.2646484375
23.5696084,1.240234375
23.612796,1.2109375
23.6131541,1.1865234375
23.6348236,1.162109375
23.6483169,1.15234375
23.685154,1.1328125
23.6893885,1.1181640625
23.7087269,1.0986328125
23.7461737,1.09375
23.7480944,1.07421875
23.7850908,1.0595703125
23.8071948,1.044921875
23.812026,1.03515625
23.8288272,1.0205078125
23.8683738,1.0205078125
23.8689255,1.015625
23.9055077,1.0107421875
23.9099153,1.005859375
23.9331229,0.99609375
23.9516736,0.9912109375
23.9882702,0.986328125
23.9930946,0.986328125
24.0132576,0.9814453125
24.0344218,0.9814453125
24.0484085,0.9814453125
24.0823635,0.9814453125
24.1027848,0.9765625
24.1123685,0.9814453125
24.1577582,0.9765625
24.1581407,0.9765625
24.1711919,0.9814453125
24.1888227,0.9814453125
24.2091912,0.986328125
24.2370833,1.005859375
24.250467,1.0595703125
24.2719774,1.1328125
24.3008162,1.23046875
24.3113083,1.328125
24.3304672,1.4306640625
24.3476542,1.5234375
24.3840498,1.6259765625
24.3881021,1.708984375
24.4367948,1.787109375
24.4487627,1.8408203125
24.4490114,1.8798828125
24.4863076,1.89453125
24.4912628,1.89453125
24.5253561,1.875
24.546301,1.826171875
24.5529039,1.7529296875
24.5693268,1.7041015625
24.5905883,1.66015625
24.6264529,1.6162109375
24.6287078,1.5771484375
24.6523902,1.533203125
24.6717113,1.494140625
24.7069054,1.455078125
24.7115685,1.4208984375
24.7309633,1.3818359375
24.7510497,1.357421875
24.7713575,1.3232421875
24.8067502,1.2939453125
24.8095115,1.26953125
24.8445482,1.240234375
24.8655791,1.2109375
24.8697733,1.181640625
24.894369,1.1572265625
24.9100725,1.1328125
24.9483901,1.123046875
24.9488598,1.103515625
24.9978066,1.09375
24.9981564,1.07421875
25.0290851,1.0693359375
25.0293306,1.0546875
25.0525987,1.044921875
25.0698827,1.03515625
25.0949881,1.025390625
25.1092413,1.015625
25.1597137,1.0107421875
25.1642278,1.005859375
25.1707626,0.9912109375
25.2226489,0.9814453125
25.2232206,0.9716796875
25.2324116,0.966796875
25.2499763,0.95703125
25.2696983,0.9619140625
25.2903816,0.95703125
25.3303217,0.95703125
25.3312562,0.9521484375
25.3789022,0.95703125
25.3792211,0.9521484375
25.4084628,0.9521484375
25.4126021,0.9521484375
25.447043,0.9521484375
25.4674939,0.95703125
25.4701371,0.95703125
25.5050391,0.9912109375
25.5332859,1.0546875
25.5338501,1.1474609375
25.5793259,1.240234375
25.5795837,1.3427734375
25.5933499,1.435546875
25.6271875,1.5283203125
25.6558493,1.6064453125
25.6561049,1.689453125
25.6699095,1.748046875
25.7028383,1.7919921875
25.7240278,1.81640625
25.7324481,1.8212890625
25.7713349,1.796875
25.7715953,1.7626953125
25.8185137,1.71875
25.8188484,1.6650390625
25.8387882,1.62109375
25.8521104,1.58203125
25.8720605,1.54296875
25.9084757,1.50390625
25.9131193,1.46484375
25.9488956,1.4306640625
25.9528795,1.396484375
25.9892696,1.3623046875
25.9895128,1.337890625
26.0261035,1.318359375
26.0563486,1.2939453125
26.0565938,1.26953125
26.0731433,1.2451171875
26.1084036,1.2255859375
26.1126329,1.201171875
26.1486861,1.1767578125
26.167734,1.15234375
26.174187,1.1376953125
26.1908105,1.11328125
26.2293588,1.103515625
26.2334262,1.0888671875
26.2570336,1.0791015625
26.2731625,1.064453125
26.3077653,1.0498046875
26.3137265,1.03515625
26.3463432,1.025390625
26.3673514,1.0107421875
26.3708427,1.0107421875
26.4049272,1.0009765625
26.4394832,0.99609375
26.4397316,0.9912109375
26.453953,0.9814453125
26.4735813,0.9765625
26.5168918,0.9716796875
26.5172876,0.9619140625
26.5471202,0.95703125
26.5495939,0.9619140625
26.5844103,0.966796875
26.6038963,0.966796875
26.6130788,0.966796875
26.653633,0.9619140625
26.65396,0.9619140625
26.6737573,0.966796875
26.6912033,0.9619140625
26.7273728,0.986328125
26.7314702,1.044921875
26.7656668,1.123046875
26.7860099,1.2255859375
26.7944197,1.3232421875
26.8123697,1.435546875
26.8471191,1.5283203125
26.8664592,1.6259765625
26.8704349,1.7041015625
26.9203057,1.787109375
26.9205458,1.8115234375
26.930452,1.865234375
26.9648048,1.8798828125
26.999228,1.884765625
26.9994711,1.8603515625
27.0135336,1.81640625
27.0452081,1.7626953125
27.066125,1.7236328125
27.0758384,1.6748046875
27.0936031,1.62109375
27.1364781,1.58203125
27.1368287,1.54296875
27.1688729,1.50390625
27.1729776,1.4697265625
27.2083709,1.4306640625
27.2309904,1.396484375
27.2360343,1.3623046875
27.2509489,1.328125
27.2875731,1.298828125
27.3072981,1.2744140625
27.3147635,1.2548828125
27.3520548,1.23046875
27.3585533,1.2060546875
27.374162,1.1865234375
27.394602,1.1572265625
27.4317215,1.1376953125
27.4319695,1.1181640625
27.4545576,1.11328125
27.4729138,1.09375
27.5081232,1.0791015625
27.5131468,1.064453125
27.5591282,1.0546875
27.5595299,1.0400390625
27.5873576,1.0302734375
27.5917914,1.0205078125
27.6280766,1.0205078125
27.6323788,1.0107421875
27.6733362,1.005859375
27.6737781,0.99609375
27.7198093,0.9912109375
27.7202035,0.986328125
27.739169,0.9716796875
27.7575379,0.966796875
27.7919635,0.95703125
27.7966804,0.9521484375
27.8129854,0.9423828125
27.8568273,0.947265625
27.8571594,0.9423828125
27.8773866,0.9423828125
27.8938806,0.9375
27.9293995,0.9375
27.9499103,0.9326171875
27.9543931,0.9375
27.9884721,0.947265625
27.9937255,1.0107421875
28.0276005,1.1083984375
28.0493166,1.201171875
28.054286,1.30859375
28.097565,1.40625
28.0979194,1.5087890625
28.1337431,1.5966796875
28.134156,1.6845703125
28.1732998,1.748046875
28.1737083,1.8115234375
28.1934616,1.845703125
28.2385778,1.865234375
28.2389744,1.8603515625
28.2561469,1.8310546875
28.2922369,1.787109375
28.2968859,1.7333984375
28.3118261,1.6796875
28.3616478,1.640625
28.3624136,1.5966796875
28.3740281,1.5576171875
28.4097128,1.513671875
28.4159456,1.474609375
28.4527126,1.435546875
28.4545512,1.4013671875
28.4988198,1.3671875
28.4992312,1.3330078125
28.5188834,1.279296875
28.5339171,1.2353515625
28.576505,1.220703125
28.5767496,1.2060546875
28.5974453,1.1962890625
28.6325266,1.181640625
28.6352399,1.162109375
28.6733969,1.1474609375
28.6758608,1.1279296875
28.7129305,1.1083984375
28.7131707,1.09375
28.734193,1.083984375
28.7737686,1.0693359375
28.7740215,1.0595703125
28.8101878,1.044921875
28.8324154,1.03515625
28.8376273,1.0205078125
28.856861,1.015625
28.8728701,1.0009765625
28.9086389,1.0009765625
28.9298562,0.99609375
28.9338102,0.9912109375
28.965933,0.9814453125
28.9881019,0.9814453125
28.9965289,0.9765625
29.0386282,0.966796875
29.0389631,0.9619140625
29.0685197,0.95703125
29.0752076,0.9619140625
29.0963456,0.9716796875
29.1168975,0.9814453125
29.1367496,0.986328125
29.1568848,0.9912109375
29.1933313,0.9912109375
29.1958155,1.0009765625
29.2139465,1.03515625
29.2504886,1.1181640625
29.256102,1.2109375
29.290714,1.3037109375
29.2946802,1.40625
29.3304888,1.4892578125
29.3351595,1.5771484375
29.3646813,1.6455078125
29.3854711,1.71875
29.3994099,1.7626953125
29.4432346,1.796875
29.443631,1.8017578125
29.4559078,1.8017578125
29.4905723,1.7724609375
29.496024,1.7333984375
29.5313621,1.6845703125
29.5368244,1.640625
29.5569254,1.5966796875
29.5921192,1.552734375
29.6136154,1.513671875
29.6138652,1.494140625
29.6588352,1.46484375
29.6590993,1.4306640625
29.6794796,1.396484375
29.6998469,1.3671875
29.7286057,1.3330078125
29.7377185,1.3037109375
29.7635001,1.279296875
29.7754242,1.25
29.8105834,1.23046875
29.8147779,1.2109375
29.8495434,1.1865234375
29.8715623,1.162109375
29.8769867,1.1474609375
29.9117032,1.1279296875
29.9338588,1.1083984375
29.9382476,1.0986328125
29.9559227,1.0791015625
29.9927264,1.07421875
29.9979634,1.0595703125
30.0168326,1.0546875
30.0654375,1.0400390625
30.065691,1.0302734375
30.0789475,1.015625
30.1151171,1.005859375
30.117025,0.9912109375
30.1511514,0.9716796875
30.1742346,0.9716796875
30.1746398,0.9765625
30.2203995,0.9814453125
30.220724,0.9814453125
30.2536332,0.9765625
30.2577611,0.9814453125
30.3004906,0.9814453125
30.3008665,0.9765625
30.3340108,0.9765625
30.3540009,0.966796875
30.3568908,0.9716796875
30.4052553,0.9716796875
30.4058417,0.9814453125
30.4265819,0.9814453125
30.4520262,0.986328125
30.4590929,0.99609375
30.5000909,1.0400390625
30.5003762,1.1083984375
30.5150921,1.220703125
30.5592079,1.3232421875
30.5595339,1.4306640625
30.5779322,1.5380859375
30.6207509,1.6259765625
30.6211437,1.7138671875
30.6411878,1.787109375
30.6592528,1.85546875
30.6766106,1.8896484375
30.7121883,1.923828125
30.7163565,1.923828125
30.7527914,1.9091796875
30.7850772,1.865234375
30.7853328,1.81640625
30.7975287,1.7578125
30.8331983,1.69921875
30.8546868,1.650390625
30.8550868,1.6064453125
30.8897843,1.5625
30.9104458,1.5283203125
30.9165661,1.494140625
30.9542132,1.455078125
30.9713315,1.4208984375
30.9774696,1.3818359375
31.012501,1.34765625
31.0354478,1.3134765625
31.0398138,1.2890625
31.0569024,1.2548828125
31.0980397,1.2353515625
31.0985165,1.2109375
31.1322765,1.19140625
31.1594447,1.1669921875
31.1597064,1.1572265625
31.1954859,1.142578125
31.2001611,1.123046875
31.2406981,1.11328125
31.2409973,1.0888671875
31.25562,1.0791015625
31.2933066,1.0693359375
31.3209126,1.0595703125
31.3211541,1.044921875
31.3658486,1.03515625
31.3662646,1.0205078125
31.3791116,1.0107421875
31.3972516,0.99609375
31.441621,1.0009765625
31.4422528,0.986328125
31.4574634,0.9814453125
31.5060118,0.9716796875
31.5063229,0.966796875
31.5371855,0.947265625
31.5374971,0.9521484375
31.5744862,0.947265625
31.5773602,0.9423828125
31.612,0.947265625
31.6329759,0.947265625
31.6393908,0.947265625
31.6585187,0.947265625
31.6939483,0.947265625
31.7159636,0.947265625
31.7201164,0.947265625
31.7711835,0.9716796875
31.7715035,1.03515625
31.777593,1.1181640625
31.8177552,1.23046875
31.8180817,1.328125
31.8527503,1.435546875
31.8816205,1.5380859375
31.8819433,1.6162109375
31.9015802,1.69921875
31.9218572,1.7626953125
31.9640744,1.81640625
31.9800385,1.8408203125
31.9803882,1.8603515625
32.0137176,1.8505859375
32.0184383,1.81640625
32.063907,1.767578125
32.0811443,1.7236328125
32.0814619,1.669921875
32.1164254,1.62109375
32.1432977,1.572265625
32.1436037,1.5380859375
32.1572997,1.494140625
32.1914363,1.4697265625
32.2132713,1.4404296875
32.2201632,1.40625
32.2686892,1.3720703125
32.2728888,1.3427734375
32.2817082,1.30859375
32.2990369,1.279296875
32.3184643,1.259765625
32.3567278,1.2353515625
32.3775739,1.2109375
32.3778171,1.19140625
32.4138686,1.1669921875
32.4341143,1.142578125
32.4403442,1.1279296875
32.4571112,1.1083984375
32.4821419,1.0986328125
32.5030225,1.064453125
32.5186251,1.0302734375
32.5554149,1.03515625
32.5595347,1.03515625
32.5922247,1.03515625
32.6129669,1.025390625
32.6201692,1.0205078125
32.6540756,1.005859375
32.6756128,1.0009765625
32.6760268,0.986328125
32.7265934,0.99609375
32.7269242,0.9912109375
32.7565035,0.986328125
32.7589758,0.9814453125
32.7923292,0.9765625
32.8148573,0.9716796875
32.822289,0.9765625
32.8767651,0.9716796875
32.8771863,0.966796875
32.8797362,0.9765625
32.9158288,0.9765625
32.9201194,0.9765625
32.9546157,0.9814453125
32.9766627,1.015625
32.9811725,1.0791015625
33.0183936,1.162109375
33.018674,1.2548828125
33.0609723,1.357421875
33.0613348,1.4501953125
33.0810683,1.552734375
33.1164787,1.630859375
33.1223694,1.708984375
33.1409867,1.7724609375
33.183957,1.806640625
33.1843662,1.8310546875
33.2036676,1.8310546875
33.219315,1.8212890625
33.2554928,1.787109375
33.2608968,1.7431640625
33.2823747,1.6943359375
33.3192336,1.650390625
33.3196171,1.6015625
33.3599115,1.5625
33.3903764,1.5185546875
33.3906244,1.484375
33.3976059,1.4453125
33.4198566,1.416015625
33.4655246,1.38671875
33.4663917,1.3623046875
33.4819,1.3330078125
33.5277941,1.3037109375
33.5281669,1.2744140625
33.5437367,1.2451171875
33.5837716,1.2158203125
33.5842609,1.19140625
33.6010672,1.1767578125
33.6362433,1.1572265625
33.6405391,1.142578125
33.678409,1.1279296875
33.6831335,1.1083984375
33.719779,1.0888671875
33.7239773,1.0791015625
33.7405847,1.064453125
33.7847905,1.0595703125
33.7850359,1.0498046875
33.8032018,1.0400390625
33.8211562,1.025390625
33.8428567,1.015625
33.8891838,1.0107421875
33.8895805,1.0009765625
33.9024111,0.9912109375
33.9193002,0.9814453125
33.9682973,0.9814453125
33.9685628,0.9765625
33.9875591,0.9765625
34.0028394,0.966796875
34.0503944,0.9619140625
34.0509484,0.9619140625
34.0640508,0.95703125
34.0842108,0.9521484375
34.1048254,0.9375
34.1243508,0.9228515625
34.1410955,0.9326171875
34.1853946,0.947265625
34.1900847,0.95703125
34.2030849,0.9716796875
34.2535926,1.0107421875
34.2539917,1.09375
34.26316,1.1865234375
34.292237,1.2939453125
34.3196191,1.3916015625
34.3199615,1.50390625
34.3556692,1.6015625
34.3887792,1.69921875
34.3891943,1.7724609375
34.403659,1.8408203125
34.4384524,1.8896484375
34.4447492,1.9091796875
34.4655974,1.9140625
34.4812741,1.89453125
34.5173679,1.865234375
34.5197808,1.8115234375
34.5592411,1.7578125
34.5810874,1.7041015625
34.5814282,1.650390625
34.6210474,1.6015625
34.6431541,1.5576171875
34.6434669,1.5087890625
34.661403,1.474609375
34.6983992,1.4404296875
34.7027029,1.40625
34.7385923,1.3671875
34.7440877,1.3427734375
34.7641886,1.30859375
34.7993085,1.2744140625
34.8033974,1.25
34.8200073,1.220703125
34.8536885,1.1962890625
34.8879035,1.1767578125
34.8882152,1.1572265625
34.9035395,1.1328125
34.9499689,1.1083984375
34.9502924,1.0888671875
34.9638637,1.07421875
34.9853749,1.0595703125
35.0039697,1.044921875
35.022465,1.0302734375
35.0415257,1.025390625
35.0847692,1.025390625
35.0852552,1.015625
35.1186966,1.005859375
35.1227772,0.99609375
35.1573979,0.9912109375
35.1782237,0.9814453125
35.1854645,0.9765625
35.2017618,0.966796875
35.2377555,0.9716796875
35.2444826,0.966796875
35.263843,0.9765625
35.2835568,0.9765625
35.3322595,0.9814453125
35.3326344,0.9814453125
35.3445749,0.9814453125
35.3618313,0.9765625
35.4103186,0.9912109375
35.4107097,0.99609375
35.4215078,0.99609375
35.4566039,0.99609375
35.4748154,0.99609375
35.4836679,1.015625
35.5192564,1.0693359375
35.5248811,1.1572265625
35.5430677,1.2451171875
35.5853948,1.34765625
35.5857446,1.4404296875
35.6057244,1.5283203125
35.6229971,1.611328125
35.6661894,1.6845703125
35.6664322,1.73828125
35.6884366,1.7822265625
35.7045151,1.806640625
35.7418217,1.806640625
35.7722535,1.787109375
35.7726624,1.7529296875
35.7830703,1.71875
35.8092844,1.669921875
35.8258058,1.6259765625
35.8442114,1.58203125
35.8888307,1.54296875
35.8891117,1.4990234375
35.9098712,1.4697265625
35.9219169,1.435546875
35.9594688,1.4111328125
35.9796115,1.3818359375
35.9840367,1.3525390625
36.0230124,1.3232421875
36.0580964,1.3037109375
36.0584121,1.2744140625
36.0666061,1.2451171875
36.1067755,1.220703125
36.1071924,1.1962890625
36.1220856,1.181640625
36.1584636,1.162109375
36.1625095,1.1474609375
36.196818,1.1328125
36.21768,1.1181640625
36.2262432,1.103515625
36.2467374,1.0888671875
36.2625728,1.07421875
36.3104119,1.0791015625
36.3108142,1.0693359375
36.3227791,1.0595703125
36.358198,1.0498046875
36.3811567,1.0400390625
36.3854786,1.0302734375
36.4254066,1.025390625
36.4257424,1.015625
36.4601595,1.005859375
36.4655045,1.0009765625
36.4834396,0.99609375
36.5048436,0.99609375
36.5249287,0.9814453125
36.5699728,0.986328125
36.5702155,0.9765625
36.5842605,0.9814453125
36.6203608,0.9765625
36.6407444,0.9765625
36.643168,0.966796875
36.6774052,0.9765625
36.6982875,0.986328125
36.7052898,0.9814453125
36.7399034,0.99609375
36.7442898,1.03515625
36.7809763,1.1083984375
36.8029658,1.19140625
36.8069156,1.298828125
36.8411695,1.3916015625
36.8415762,1.4990234375
36.8802634,1.5869140625
36.900322,1.669921875
36.9046809,1.7431640625
36.9440274,1.8115234375
36.9748171,1.8505859375
36.9751385,1.8798828125
36.9877788,1.8896484375
37.0041637,1.8701171875
37.0532176,1.8408203125
37.0535149,1.7919921875
37.0645253,1.7431640625
37.1137834,1.689453125
37.1140286,1.640625
37.1337805,1.591796875
37.1470187,1.5478515625
37.1642391,1.50390625
37.2072431,1.474609375
37.2075087,1.4404296875
37.2393756,1.4111328125
37.2442913,1.376953125
37.2790722,1.34765625
37.2989691,1.3134765625
37.3054661,1.2939453125
37.3387471,1.26953125
37.3600107,1.2451171875
37.3687752,1.220703125
37.383689,1.1962890625
37.4250232,1.1767578125
37.4252897,1.1572265625
37.4563039,1.142578125
37.4669584,1.123046875
37.5182055,1.103515625
37.5186994,1.0888671875
37.5278886,1.0693359375
37.5450986,1.0498046875
37.5774398,1.044921875
37.600554,1.03515625
37.6049793,1.0302734375
37.6424857,1.025390625
37.6627148,1.0107421875
37.6671103,1.0009765625
37.7015937,0.986328125
37.7213827,0.9814453125
37.7241655,0.9716796875
37.7658282,0.9716796875
37.766175,0.9619140625
37.7887299,0.9619140625
37.8062484,0.9521484375
37.8457066,0.95703125
37.8782086,0.9521484375
37.8786275,0.95703125
37.8853472,0.95703125
37.9253087,0.9619140625
37.9255516,0.9619140625
37.9600862,0.9716796875
37.980792,0.9716796875
37.9878522,0.966796875
38.0338828,0.9765625
38.0341319,1.005859375
38.0490469,1.07421875
38.0692634,1.162109375
38.0883929,1.240234375
38.1063162,1.328125
38.14292,1.4404296875
38.1474326,1.5380859375
38.1919695,1.630859375
38.1923273,1.7041015625
38.2175886,1.7724609375
38.2281771,1.81640625
38.2766688,1.845703125
38.2772253,1.85546875
38.284101,1.8359375
38.3203943,1.806640625
38.3247408,1.7578125
38.3614415,1.7138671875
38.3922467,1.6650390625
38.3928843,1.6162109375
38.4079446,1.572265625
38.4550366,1.533203125
38.455366,1.494140625
38.485301,1.4697265625
38.4855507,1.4306640625
38.5235444,1.4013671875
38.5302398,1.3671875
38.5484441,1.337890625
38.5942554,1.30859375
38.59454,1.2890625
38.6075707,1.2646484375
38.6256354,1.2353515625
38.660041,1.220703125
38.6813194,1.1962890625
38.6865957,1.181640625
38.7217529,1.162109375
38.743606,1.1474609375
38.7481917,1.1279296875
38.7842279,1.11328125
38.7844787,1.09375
38.8099909,1.0888671875
38.8290325,1.0791015625
38.8650328,1.07421875
38.865368,1.064453125
38.9088095,1.0546875
38.9255185,1.0498046875
38.9274405,1.0302734375
38.9713817,1.0205078125
38.9717463,1.0107421875
38.9925331,1.0009765625
39.007944,0.9912109375
39.0490924,0.986328125
39.0494592,0.9814453125
39.0678976,0.9814453125
39.104967,0.9716796875
39.1077898,0.9716796875
39.1430381,0.966796875
39.1652535,0.966796875
39.1655604,0.9619140625
39.2102275,0.966796875
39.2269198,0.9619140625
39.227222,0.966796875
39.2623431,0.9814453125
39.2891625,1.0205078125
39.2894141,1.0986328125
39.3110517,1.1865234375
39.3613856,1.2841796875
39.3616491,1.3720703125
39.3668234,1.4794921875
39.4014466,1.5673828125
39.4230159,1.6455078125
39.4277286,1.7138671875
39.4501455,1.7626953125
39.4690848,1.7919921875
39.513333,1.8115234375
39.5135789,1.8017578125
39.5266892,1.787109375
39.5633454,1.748046875
39.565342,1.6943359375
39.599527,1.650390625
39.6244015,1.6015625
39.6288398,1.5625
39.6702002,1.5185546875
39.6705184,1.484375
39.6919447,1.4501953125
39.7122234,1.396484375
39.727788,1.3525390625
39.7486716,1.337890625
39.7691359,1.3232421875
39.8044616,1.3037109375
39.8099014,1.279296875
39.8469386,1.2548828125
39.8488637,1.2255859375
39.8841461,1.2109375
39.908591,1.19140625
39.9132578,1.1669921875
39.9287716,1.15234375
39.9688107,1.1328125
39.9692261,1.1181640625
40.0161525,1.103515625
40.0165451,1.09375
40.0363511,1.0791015625
40.0492762,1.0693359375
40.0840215,1.0546875
40.0867242,1.0498046875
40.1204862,1.0400390625
40.1449003,1.03515625
40.1512786,1.0205078125
40.1698169,1.015625
40.2152978,1.015625
40.2202664,1.005859375
40.2317984,1.0009765625
40.2540895,0.986328125
40.267996,0.9912109375
40.3141244,0.986328125
40.3143767,0.9814453125
40.329545,0.9765625
40.3661348,0.9765625
40.3681212,0.9716796875
40.4023498,0.9765625
40.428436,0.9765625
40.4286882,0.986328125
40.4649335,0.986328125
40.4697551,0.9912109375
40.5042494,0.986328125
40.5091934,1.0009765625
40.5318756,1.03515625
40.5515746,1.0986328125
40.591031,1.181640625
40.5914517,1.2646484375
40.6388087,1.3623046875
40.6390812,1.4453125
40.6612455,1.5478515625
40.670635,1.630859375
40.7180535,1.7041015625
40.7183902,1.7626953125
40.7315154,1.806640625
40.7811737,1.826171875
40.7814172,1.8359375
40.7872953,1.81640625
40.824678,1.7919921875
40.8429757,1.7529296875
40.8518291,1.69921875
40.8712889,1.650390625
40.8921241,1.6015625
40.9112219,1.5625
40.961139,1.5234375
40.9614861,1.484375
40.967526,1.4453125
41.0148976,1.4208984375
41.0204056,1.38671875
41.029973,1.3623046875
41.0523772,1.328125
41.072635,1.298828125
41.1152502,1.26953125
41.1200727,1.240234375
41.1291516,1.2109375
41.1678813,1.1962890625
41.1681362,1.1767578125
41.2016588,1.1572265625
41.231655,1.1376953125
41.232018,1.1181640625
41.2666627,1.0986328125
41.2709977,1.083984375
41.3159809,1.0693359375
41.3325352,1.0546875
41.3329581,1.015625
41.3496131,1.0107421875
41.3949596,1.005859375
41.3953244,1.0009765625
41.4094604,1.005859375
41.4421298,1.0009765625
41.4626091,0.99609375
41.4725102,0.9912109375
41.5069233,0.986328125
41.5336191,0.9814453125
41.5345045,0.9716796875
41.5485948,0.9765625
41.5953228,0.9716796875
41.5956691,0.9765625
41.6158501,0.9765625
41.6303803,0.9765625
41.6658087,0.9716796875
41.685812,0.9765625
41.6907928,0.9765625
41.7109741,0.986328125
41.7469054,0.986328125
41.7489582,0.986328125
41.7816929,0.986328125
41.8025933,1.015625
41.8123916,1.07421875
41.8483209,1.142578125
41.8688319,1.2353515625
41.8692191,1.318359375
41.9157149,1.4111328125
41.9160517,1.494140625
41.9462854,1.5771484375
41.9512823,1.640625
41.986187,1.6943359375
42.0072257,1.728515625
42.0112237,1.748046875
42.0457539,1.7431640625
42.0506012,1.7333984375
42.0881476,1.7041015625
42.0884029,1.6650390625
42.1245982,1.630859375
42.1482648,1.5869140625
42.1541566,1.5478515625
42.1740884,1.513671875
42.1931918,1.4892578125
42.2421189,1.455078125
42.2425188,1.4208984375
42.2487514,1.3818359375
42.2831571,1.3623046875
42.3025887,1.3330078125
42.3111745,1.3134765625
42.3443355,1.2841796875
42.3653657,1.2646484375
42.3730386,1.240234375
42.4199376,1.2158203125
42.420176,1.19140625
42.4501621,1.1865234375
42.4504077,1.1767578125
42.4874088,1.1572265625
42.4920506,1.1474609375
42.5414659,1.1279296875
42.5424264,1.11328125
42.5555177,1.0986328125
42.5759095,1.09375
42.5894148,1.0791015625
42.6247611,1.07421875
42.6447953,1.064453125
42.65079,1.0546875
42.6884579,1.044921875
42.6926711,1.0400390625
42.7309275,1.0302734375
42.7311696,1.025390625
42.768103,1.0205078125
42.7985272,1.0107421875
42.7987695,1.0107421875
42.8114941,1.005859375
42.859904,1.005859375
42.860148,1.0009765625
42.8798503,1.005859375
42.8935218,1.0009765625
42.933598,1.0009765625
42.9338989,0.99609375
42.9789726,1.0009765625
42.9793418,0.99609375
42.9914266,1.0009765625
43.0261023,1.0009765625
43.0457742,1.0205078125
43.0527815,1.064453125
43.0954486,1.1474609375
43.0957488,1.2353515625
43.1174047,1.3232421875
43.1341053,1.4111328125
43.1526072,1.494140625
43.1836421,1.591796875
43.1924675,1.6650390625
43.23337,1.7333984375
43.2337415,1.7822265625
43.2632811,1.8212890625
43.2746005,1.8359375
43.3111212,1.8359375
43.3113685,1.806640625
43.3483703,1.7822265625
43.3526167,1.7333984375
43.4026888,1.6845703125
43.4029344,1.640625
43.4133641,1.591796875
43.4464699,1.5478515625
43.4666642,1.513671875
43.4739046,1.484375
43.4904876,1.4501953125
43.5252157,1.42578125
43.545583,1.396484375
43.5503667,1.3671875
43.5841183,1.3330078125
43.6042742,1.30859375
43.6132098,1.279296875
43.6456284,1.2548828125
43.6673261,1.2255859375
43.6758048,1.2109375
43.6922746,1.1572265625
43.727031,1.1572265625
43.7330846,1.142578125
43.7759958,1.1279296875
43.7762409,1.11328125
43.8069779,1.0986328125
43.8139927,1.083984375
43.8486233,1.0693359375
43.8711262,1.0595703125
43.87137,1.0498046875
43.9154,1.0400390625
43.9158382,1.0302734375
43.9500495,1.0205078125
43.955727,1.0107421875
43.9752602,1.0009765625
43.9971384,0.99609375
44.0171041,0.986328125
44.0601085,0.986328125
44.060595,0.9765625
44.0715863,0.9765625
44.1052532,0.9765625
44.1259174,0.9765625
44.1353215,0.9716796875
44.1555382,0.9716796875
44.1763116,0.9619140625
44.220992,0.9619140625
44.221315,0.95703125
44.2310667,0.9619140625
44.2633973,0.95703125
44.2844769,0.966796875
44.2939779,0.966796875
44.3301567,0.986328125
44.3624409,1.03515625
44.3626846,1.1181640625
44.3757708,1.2060546875
44.3911918,1.2890625
44.4240402,1.38671875
44.4462873,1.4697265625
44.4547132,1.552734375
44.4744026,1.6259765625
44.5174288,1.6943359375
44.5179747,1.73828125
44.5516649,1.7724609375
44.5567892,1.7822265625
44.5920696,1.7724609375
44.5923501,1.73828125
44.6247088,1.7138671875
44.6336203,1.669921875
44.6705706,1.6357421875
44.6922024,1.5966796875
44.6978251,1.552734375
44.7167208,1.5185546875
44.7575447,1.4794921875
44.7624898,1.4501953125
44.7737273,1.416015625
44.8109398,1.3916015625
44.8164814,1.3671875
44.835672,1.3427734375
44.8561281,1.3134765625
44.9028777,1.2939453125
44.9032602,1.2646484375
44.9154828,1.2451171875
44.9319042,1.2158203125
44.9756443,1.201171875
44.9872734,1.181640625
44.9947334,1.1669921875
45.0297293,1.1572265625
45.0546559,1.1376953125
45.0550721,1.123046875
45.1026797,1.1083984375
45.1029218,1.0986328125
45.1332831,1.083984375
45.133668,1.0791015625
45.1692966,1.0693359375
45.1943088,1.064453125
45.1946199,1.0546875
45.2306982,1.044921875
45.2555195,1.0302734375
45.2561627,1.0205078125
45.2765825,1.0107421875
45.2978917,0.986328125
45.3344214,0.966796875
45.3346713,0.9716796875
45.3698733,0.986328125
45.3737284,0.9912109375
45.4150544,0.99609375
45.4331017,1.0009765625
45.4372278,1.0009765625
45.4808775,1.0009765625
45.481253,1.005859375
45.4943169,1.005859375
45.5306155,1.025390625
45.5345895,1.0546875
45.5669164,1.1181640625
45.5879882,1.1962890625
45.595955,1.2841796875
45.6307676,1.3623046875
45.6520674,1.46484375
45.659667,1.552734375
45.6788122,1.6259765625
45.6940286,1.708984375
45.7412506,1.767578125
45.7415994,1.81640625
45.7614204,1.845703125
45.7775511,1.8603515625
45.8175988,1.845703125
45.8180098,1.8115234375
45.8349654,1.7724609375
45.8780156,1.7333984375
45.8784137,1.6845703125
45.9119357,1.6455078125
45.9149479,1.5966796875
45.9506964,1.5625
45.9759983,1.5234375
45.9803627,1.4892578125
45.9984113,1.4501953125
46.0140834,1.4111328125
46.0568566,1.3916015625
46.0571639,1.3623046875
46.0874711,1.337890625
46.096364,1.3037109375
46.1313256,1.279296875
46.1351328,1.25
46.1686325,1.23046875
46.1925693,1.201171875
46.1976478,1.181640625
46.2329127,1.1572265625
46.2332426,1.1474609375
46.267102,1.1279296875
46.2872627,1.1181640625
46.2964928,1.1083984375
46.3329854,1.0888671875
46.3526221,1.07421875
46.3567008,1.0595703125
46.3919472,1.044921875
46.4119075,1.03515625
46.4144111,1.03515625
46.4475049,1.0302734375
46.4683908,1.025390625
46.4758876,1.0205078125
46.5190265,1.0107421875
46.5193555,1.0009765625
46.5389452,0.99609375
46.5541871,0.9912109375
46.5890866,0.9912109375
46.6098112,0.99609375
46.6147332,0.9912109375
46.663491,0.9912109375
46.6637384,0.986328125
46.6834081,0.986328125
46.6965011,0.9814453125
46.7310524,0.9814453125
46.7563575,0.9716796875
46.7566373,0.9814453125
46.790238,0.9912109375
46.8124456,1.03515625
46.8168573,1.09375
46.8688636,1.181640625
46.8691966,1.259765625
46.8898102,1.357421875
46.9047734,1.4306640625
46.9205533,1.4990234375
46.9706314,1.5869140625
46.9708746,1.650390625
46.9771589,1.71875
47.0287496,1.7626953125
47.0290911,1.7919921875
47.0378758,1.796875
47.0876572,1.7822265625
47.0878987,1.748046875
47.0986828,1.708984375
47.1165571,1.6650390625
47.1520925,1.630859375
47.1787289,1.591796875
47.179145,1.5625
47.2145858,1.5283203125
47.2169946,1.494140625
47.2522176,1.4697265625
47.2737644,1.4306640625
47.2811726,1.396484375
47.2967837,1.3623046875
47.3165917,1.337890625
47.3568664,1.30859375
47.3571247,1.2841796875
47.3785564,1.2548828125
47.4146056,1.23046875
47.4197693,1.2060546875
47.4545132,1.19140625
47.4827765,1.1669921875
47.4833031,1.1572265625
47.4965208,1.142578125
47.5447285,1.1279296875
47.5452841,1.11328125
47.56476,1.11328125
47.5789232,1.1083984375
47.6158303,1.0986328125
47.6229756,1.0888671875
47.6363166,1.083984375
47.6868544,1.083984375
47.6871407,1.044921875
47.696624,1.0546875
47.7181047,1.0498046875
47.7548269,1.0498046875
47.7599596,1.044921875
47.781647,1.0400390625
47.8269222,1.03515625
47.8272201,1.03515625
47.8375172,1.025390625
47.8725686,1.0302734375
47.8767355,1.0302734375
47.9127536,1.025390625
47.9339287,1.0205078125
47.9383923,1.015625
47.9733056,1.0107421875
47.9942063,1.005859375
47.9997713,1.0107421875
48.0151484,1.03515625
48.0508501,1.103515625
48.0703657,1.1767578125
48.07954,1.2646484375
48.1167203,1.3427734375
48.1169864,1.42578125
48.1658996,1.4990234375
48.1662086,1.572265625
48.1859537,1.6259765625
48.1964217,1.689453125
48.2335462,1.728515625
48.2579149,1.7431640625
48.2581606,1.73828125
48.2926363,1.7236328125
48.321665,1.689453125
48.3220008,1.650390625
48.3409407,1.6162109375
48.3584019,1.572265625
48.3796967,1.5478515625
48.3972579,1.513671875
48.4195822,1.484375
48.4396924,1.4501953125
48.4605831,1.42578125
48.4816938,1.396484375
48.527929,1.3671875
48.528352,1.337890625
48.5409718,1.30859375
48.5770582,1.2841796875
48.6126707,1.2548828125
48.6129295,1.2451171875
48.6210884,1.2255859375
48.6412865,1.2109375
48.6613935,1.19140625
48.685366,1.171875
48.7019536,1.15234375
48.7216864,1.1328125
48.7392308,1.11328125
48.7830102,1.1083984375
48.7833314,1.0986328125
48.798384,1.083984375
48.8435969,1.064453125
48.8439212,1.0595703125
48.8763622,1.044921875
48.8813378,1.0302734375
48.916022,1.025390625
48.9369531,1.0107421875
48.9371963,1.0107421875
48.96844,1.0009765625
48.9916076,1.0009765625
49.0006856,1.0009765625
49.0355023,0.99609375
49.0394326,0.986328125
49.0725487,0.9814453125
49.0938079,0.9765625
49.0985808,0.986328125
49.1355407,0.9912109375
49.1399787,0.9912109375
49.1769574,1.0009765625
49.1810421,0.99609375
49.2284371,0.99609375
49.2287685,0.9912109375
49.2413553,1.0009765625
49.2621116,1.0302734375
49.2846912,1.07421875
49.2975848,1.1328125
49.3358146,1.2451171875
49.3397308,1.337890625
49.3732292,1.4404296875
49.3937118,1.5234375
49.4004188,1.6162109375
49.4225119,1.689453125
49.463126,1.7578125
49.4635036,1.8017578125
49.4793051,1.845703125
49.5156732,1.865234375
49.5205414,1.85546875
49.5561021,1.826171875
49.5606503,1.7822265625
49.59442,1.7333984375
49.6147413,1.6845703125
49.6209391,1.6357421875
49.6551536,1.591796875
49.6604623,1.5576171875
49.6935551,1.5185546875
49.7157743,1.4794921875
49.719986,1.4453125
49.7645735,1.416015625
49.7648445,1.3818359375
49.7841499,1.3525390625
49.8189879,1.3232421875
49.819374,1.2890625
49.8643986,1.26953125
49.86473,1.240234375
49.8863739,1.220703125
49.9016922,1.19140625
49.9224325,1.171875
49.963515,1.1474609375
49.9638043,1.1328125
49.9777835,1.1083984375
50.0155174,1.103515625
50.0339132,1.0888671875
50.0407119,1.0791015625
50.0605046,1.0595703125
50.098344,1.0498046875
50.1024038,1.03515625
50.1221886,1.025390625
50.1672549,1.015625
50.1675058,1.005859375
50.1844731,0.99609375
50.1994641,0.986328125
50.2450956,0.9814453125
50.2454357,0.9765625
50.2615232,0.9765625
50.2904606,0.9716796875
50.3024336,0.9716796875
50.3402158,0.966796875
50.3605743,0.966796875
50.3608293,0.9619140625
50.3963685,0.9765625
50.4008943,0.9765625
50.4254432,0.9765625
50.442828,0.9814453125
50.4631685,0.9814453125
50.4920042,0.9814453125
50.50558,0.99609375
50.5284202,1.044921875
50.5406736,1.11328125
50.5759118,1.2109375
50.5813498,1.2939453125
50.6027399,1.38671875
50.6388267,1.4599609375
50.6434957,1.54296875
50.6887345,1.6015625
50.6896436,1.6650390625
50.6990309,1.7041015625
50.7437831,1.73828125
50.7440257,1.7529296875
50.7759107,1.748046875
50.783328,1.728515625
50.8029224,1.689453125
50.8374783,1.6455078125
50.8415061,1.6015625
50.8758775,1.5625
50.8989812,1.5234375
50.9031594,1.4697265625
50.9206065,1.4404296875
50.963302,1.4208984375
50.9636205,1.396484375
50.9936769,1.376953125
51.0008781,1.34765625
51.0350756,1.3232421875
51.0576028,1.2890625
51.0635258,1.2646484375
51.0968877,1.2451171875
51.116559,1.220703125
51.1208487,1.2060546875
51.1648985,1.1865234375
51.1652321,1.171875
51.1867959,1.15234375
51.2032031,1.1376953125
51.2434919,1.123046875
51.2438094,1.11328125
51.2644412,1.0986328125
51.2823205,1.09375
51.3025632,1.083984375
51.3516862,1.07421875
51.3520015,1.064453125
51.3618777,1.0546875
51.3940145,1.03515625
51.4212426,1.03515625
51.4261722,1.025390625
51.4419834,1.0205078125
51.4863568,1.0205078125
51.4867403,1.015625
51.502817,1.0107421875
51.5469515,1.0009765625
51.5472687,1.0009765625
51.5643939,0.99609375
51.6106947,0.99609375
51.6109977,0.99609375
51.6242196,1.0009765625
51.6427823,1.0009765625
51.6834084,1.0107421875
51.6836609,1.0107421875
51.7250496,1.0107421875
51.7257281,1.0498046875
51.7433648,1.103515625
51.7889856,1.1865234375
51.7893872,1.26953125
51.8059151,1.3671875
51.8210599,1.4453125
51.8563592,1.5380859375
51.8762228,1.6162109375
51.8815842,1.6943359375
51.9177803,1.748046875
51.9434307,1.8017578125
51.943672,1.8310546875
51.9887621,1.8505859375
51.9969659,1.845703125
52.0013783,1.826171875
52.0367299,1.7822265625
52.0577863,1.7431640625
52.0642347,1.689453125
52.0897575,1.640625
52.1070962,1.5966796875
52.1238354,1.552734375
52.1585354,1.5087890625
52.1833322,1.474609375
52.183738,1.4453125
52.220271,1.416015625
52.2374478,1.38671875
52.2438349,1.357421875
52.2889311,1.328125
52.2931819,1.298828125
52.3063964,1.26953125
52.3224055,1.240234375
52.3690082,1.220703125
52.3693839,1.2060546875
52.3833283,1.181640625
52.4264492,1.1669921875
52.4268114,1.142578125
52.4447838,1.1328125
52.4898321,1.1083984375
52.4900738,1.0986328125
52.5237718,1.0791015625
52.5240974,1.064453125
52.559746,1.0498046875
52.5616177,1.0498046875
52.5941417,1.03515625
52.6149781,1.0302734375
52.6250392,1.0205078125
52.6449361,1.015625
52.6786259,1.0009765625
52.6990893,1.005859375
52.7076221,1.0009765625
52.7228084,0.9912109375
52.7700891,0.99609375
52.770759,0.9912109375
52.7895181,0.9912109375
52.8052794,0.986328125
52.8411533,0.986328125
52.8454149,0.9814453125
52.8802454,0.9814453125
52.900626,0.9814453125
52.9026681,0.986328125
52.9382517,0.9814453125
52.9591017,0.986328125
52.9659578,0.9912109375
53.0051006,1.015625
53.0054231,1.083984375
53.0503267,1.1572265625
53.0505747,1.2451171875
53.0616866,1.3330078125
53.0967273,1.4306640625
53.1172603,1.5087890625
53.1244877,1.5966796875
53.1603398,1.66015625
53.1650605,1.7236328125
53.2051453,1.767578125
53.2352831,1.8017578125
53.2357307,1.8115234375
53.2453525,1.8115234375
53.2791254,1.7578125
53.3139214,1.728515625
53.314207,1.6845703125
53.331035,1.640625
53.3459288,1.5966796875
53.380102,1.552734375
53.386142,1.513671875
53.420761,1.4794921875
53.4423722,1.4404296875
53.4426272,1.40625
53.4850835,1.3818359375
53.4853871,1.3525390625
53.5043731,1.328125
53.5389211,1.2939453125
53.5590422,1.26953125
53.5673946,1.240234375
53.6099586,1.220703125
53.6102031,1.19140625
53.6274262,1.1767578125
53.6439626,1.162109375
53.6913499,1.142578125
53.7096945,1.1279296875
53.7100124,1.11328125
53.7255155,1.1083984375
53.7701045,1.09375
53.7707775,1.083984375
53.7897165,1.0693359375
53.804915,1.064453125
53.8486691,1.0595703125
53.8489116,1.0546875
53.8921995,1.044921875
53.8970746,1.0400390625
53.9059597,1.0302734375
53.9570313,1.0205078125
53.9572736,1.0107421875
53.9767127,1.0107421875
53.9831361,1.0107421875
54.0190388,1.0009765625
54.0395883,1.0009765625
54.0472491,0.99609375
54.0656777,0.99609375
54.0967757,0.9912109375
54.1172458,0.9912109375
54.1281246,0.9912109375
54.1649987,0.986328125
54.1653552,0.9814453125
54.1846827,0.986328125
54.226457,0.99609375
54.2267228,1.03515625
54.2566491,1.0986328125
54.2651278,1.181640625
54.2992474,1.279296875
54.319488,1.3623046875
54.3281368,1.4453125
54.3456869,1.513671875
54.3912146,1.591796875
54.3914573,1.640625
54.4076802,1.6943359375
54.455649,1.71875
54.4561928,1.73828125
54.4661774,1.728515625
54.4937832,1.708984375
54.5047248,1.6650390625
54.5423498,1.6357421875
54.5466043,1.591796875
54.5831909,1.5576171875
54.5857457,1.513671875
54.6249475,1.4892578125
54.6294452,1.455078125
54.6649858,1.4208984375
54.666825,1.3916015625
54.6920779,1.357421875
54.7065447,1.337890625
54.7436332,1.3134765625
54.744019,1.2939453125
54.785433,1.26953125
54.786309,1.2451171875
54.8326317,1.220703125
54.8331265,1.201171875
54.8492498,1.181640625
54.8702886,1.1474609375
54.8873409,1.11328125
54.906415,1.11328125
54.9544834,1.11328125
54.9548259,1.0986328125
54.966632,1.09375
55.001161,1.0791015625
55.0222423,1.07421875
55.0287758,1.0595703125
55.0639169,1.0498046875
55.0948224,1.03515625
55.0952247,1.03515625
55.1064593,1.0302734375
55.1440896,1.025390625
55.1482954,1.015625
55.1969563,1.015625
55.1972113,1.005859375
55.2100756,1.005859375
55.2258173,0.9912109375
55.2604145,1.0009765625
55.2663416,1.0009765625
55.2999593,0.99609375
55.322056,0.99609375
55.3263657,0.9912109375
55.360584,0.99609375
55.3824293,0.9912109375
55.388525,0.986328125
55.4067558,0.986328125
55.4460517,0.99609375
55.4462993,1.0009765625
55.479677,1.0400390625
55.5009579,1.103515625
55.5064988,1.1962890625
55.5419172,1.2841796875
55.5495069,1.3818359375
55.5859549,1.4794921875
55.5862513,1.5576171875
55.6059877,1.6455078125
55.6463152,1.7138671875
55.6792489,1.7822265625
55.6795189,1.8212890625
55.6880299,1.85546875
55.7293377,1.8603515625
55.7336511,1.8505859375
55.7492333,1.8212890625
55.7930149,1.7822265625
55.7935931,1.7333984375
55.8052969,1.689453125
55.8407604,1.6455078125
55.8610457,1.6015625
55.8670131,1.5576171875
55.8991195,1.5185546875
55.9194596,1.484375
55.930071,1.4453125
55.9643858,1.4111328125
55.9935267,1.376953125
55.9939256,1.34765625
56.0081487,1.3232421875
56.0456283,1.298828125
56.0461296,1.26953125
56.0876018,1.2451171875
56.1067409,1.220703125
56.1087562,1.1962890625
56.1257351,1.171875
56.1581742,1.162109375
56.1806058,1.142578125
56.1881742,1.123046875
56.2226003,1.11328125
56.2444521,1.0986328125
56.2499128,1.083984375
56.2692911,1.064453125
56.3057725,1.0546875
56.337544,1.0400390625
56.3378297,1.0400390625
56.3489852,1.0302734375
56.3835972,1.025390625
56.3884451,1.015625
56.4216714,1.0107421875
56.4431424,0.99609375
56.4490747,0.986328125
56.4825728,0.9765625
56.4913132,0.947265625
56.5079688,0.9423828125
56.5282016,0.9521484375
56.5735822,0.9521484375
56.5741724,0.9521484375
56.5965327,0.9521484375
56.6096151,0.9521484375
56.6320152,0.947265625
56.6512946,0.947265625
56.6851072,0.947265625
56.7185584,0.9423828125
56.7188008,0.947265625
56.7327629,0.9521484375
56.7495483,0.9814453125
56.7700704,1.0400390625
56.8172598,1.1376953125
56.8180293,1.23046875
56.8299201,1.3330078125
56.8523016,1.4306640625
56.8672234,1.513671875
56.9171381,1.6015625
56.9173883,1.669921875
56.9279063,1.7333984375
56.9646235,1.77734375
56.986222,1.8115234375
56.9904994,1.8212890625
57.0390414,1.8212890625
57.0393532,1.7919921875
57.0481129,1.7578125
57.0844106,1.7138671875
57.0887367,1.669921875
57.1233849,1.6259765625
57.143621,1.5869140625
57.1500655,1.54296875
57.1945267,1.5087890625
57.1949202,1.4697265625
57.2249667,1.435546875
57.2267873,1.40625
57.2618906,1.376953125
57.2823063,1.34765625
57.2881684,1.318359375
57.3205574,1.2939453125
57.3424856,1.26953125
57.3522429,1.2451171875
57.3889108,1.220703125
57.393719,1.201171875
57.4099711,1.1767578125
57.4286837,1.1669921875
57.4642122,1.1474609375
57.486773,1.1328125
57.4885831,1.1181640625
57.5215159,1.0986328125
57.54492,1.0888671875
57.5519814,1.07421875
57.6014247,1.064453125
57.6017478,1.044921875
57.6220852,1.044921875
57.6288095,1.03515625
57.6646917,1.0302734375
57.6843288,1.015625
57.6913588,1.0107421875
57.7274905,0.99609375
57.7320616,0.9912109375
57.7485588,0.986328125
57.7919974,0.9912109375
57.7923396,0.986328125
57.8233049,0.99609375
57.8275959,1.0009765625
57.8619435,1.0009765625
57.8819532,0.99609375
57.8929694,0.99609375
57.9134865,0.99609375
57.9284025,0.9912109375
57.9505078,0.99609375
57.969096,1.0205078125
58.0037786,1.07421875
58.0248258,1.1474609375
58.0312549,1.2353515625
58.0712152,1.318359375
58.0716206,1.40625
58.1046835,1.484375
58.1248811,1.5576171875
58.1337653,1.6259765625
58.1506292,1.6748046875
58.1853196,1.71875
58.1893242,1.7431640625
58.2225249,1.7529296875
58.2436947,1.7333984375
58.2523,1.7041015625
58.288195,1.6650390625
58.3077499,1.62109375
58.31053,1.5771484375
58.346947,1.552734375
58.3512724,1.513671875
58.3875198,1.484375
58.3900554,1.4501953125
58.4178127,1.4208984375
58.4321413,1.3916015625
58.4671657,1.3623046875
58.4875652,1.3330078125
58.4895498,1.3037109375
58.522045,1.2841796875
58.5417404,1.2646484375
58.5507036,1.2451171875
58.5868866,1.23046875
58.6162283,1.2060546875
58.6168069,1.19140625
58.6315488,1.171875
58.6655704,1.15234375
58.6695484,1.1376953125
58.7038356,1.123046875
58.7263673,1.11328125
58.730604,1.0986328125
58.7525287,1.0888671875
58.772268,1.083984375
58.8118154,1.064453125
58.8139232,1.0546875
58.8341218,1.0400390625
58.8540728,1.0107421875
58.8866427,0.9814453125
58.8904846,0.99609375
58.9227909,0.99609375
58.9441779,0.99609375
58.9550078,0.9912109375
58.9735651,0.9912109375
59.0138075,0.9814453125
59.0140489,0.9814453125
59.0298571,0.9765625
59.0768195,0.9814453125
59.0770621,0.9765625
59.0921145,0.9814453125
59.1392321,0.9814453125
59.1394983,0.9814453125
59.159267,0.9814453125
59.1725544,0.9814453125
59.2083678,0.986328125
59.2285099,1.015625
59.2302178,1.0888671875
59.2753996,1.171875
59.2757367,1.26953125
59.2950214,1.3623046875
59.311058,1.4599609375
59.3532357,1.54296875
59.353627,1.6259765625
59.3826744,1.689453125
59.3919366,1.7578125
59.4298918,1.81640625
59.4302919,1.845703125
59.4691932,1.8603515625
59.4732459,1.85546875
59.5240812,1.826171875
59.5244796,1.7822265625
59.5365542,1.728515625
59.5501415,1.6796875
59.5944767,1.640625
59.5948858,1.5966796875
59.6133461,1.5576171875
59.6319167,1.5185546875
59.6714937,1.484375
59.6909183,1.4453125
59.6928954,1.40625
59.7343001,1.3720703125
59.7345522,1.3427734375
59.767666,1.3134765625
59.7877037,1.279296875
59.7925014,1.259765625
59.8132131,1.2353515625
59.8505695,1.2109375
59.8553275,1.19140625
59.8895638,1.181640625
59.9112364,1.162109375
59.9157539,1.142578125
59.9319387,1.123046875
59.9684588,1.11328125
59.9724352,1.0986328125
60.0100594,1.0888671875
60.0133371,1.07421875
60.048173,1.064453125
60.0700727,1.0546875
60.0753751,1.0400390625
60.1247526,1.0302734375
60.1251293,1.0205078125
60.1330013,1.0205078125
60.1693011,1.0107421875
60.1734526,1.005859375
60.2078704,0.99609375
60.2289543,0.9912109375
60.2350313,0.9814453125
60.2765183,0.9814453125
60.2769166,0.9765625
60.2980901,0.986328125
60.3130755,0.986328125
60.3549463,0.986328125
60.3552987,0.9814453125
60.3884626,0.986328125
60.4082401,0.986328125
60.4143976,0.9814453125
60.4501752,0.9814453125
60.4543297,1.005859375
60.4745367,1.0400390625
60.5080459,1.103515625
60.5125174,1.2158203125
60.5594783,1.318359375
60.5598143,1.416015625
60.5795887,1.50390625
60.5943345,1.58203125
60.6372626,1.6455078125
60.6376151,1.7041015625
60.6529116,1.7431640625
60.6883478,1.7724609375
60.6934439,1.787109375
60.7279014,1.767578125
60.7499541,1.73828125
60.7542986,1.69921875
60.8057503,1.66015625
60.8101178,1.6162109375
60.8168916,1.5771484375
60.832278,1.533203125
60.8699449,1.5087890625
60.9083311,1.474609375
60.9085893,1.4501953125
60.9151997,1.4208984375
60.9629381,1.3916015625
60.9632571,1.357421875
60.9755194,1.328125
60.9920734,1.298828125
61.0160406,1.279296875
61.0339823,1.259765625
61.0745739,1.23046875
61.0749223,1.2109375
61.0942172,1.19140625
61.1299525,1.171875
61.1530768,1.15234375
61.1579451,1.1328125
61.1736816,1.1181640625
61.1935127,1.1083984375
61.228501,1.09375
61.232532,1.083984375
61.2672792,1.0693359375
61.2914214,1.0546875
61.2933036,1.044921875
61.3249801,1.0302734375
61.348006,1.025390625
61.3577842,1.005859375
61.4014568,1.0009765625
61.4017843,0.986328125
61.4134769,0.986328125
61.449163,0.9765625
61.4701622,0.9765625
61.477695,0.9765625
61.5102799,0.9765625
61.5166759,0.9716796875
61.5519214,0.9765625
61.552225,0.966796875
61.5989716,0.9765625
61.5993609,0.9765625
61.6187199,0.9814453125
61.6426963,0.9814453125
61.6573489,0.9912109375
61.6927789,1.015625
61.6953435,1.0693359375
61.7289753,1.15234375
61.750648,1.2451171875
61.7529052,1.34765625
61.7869924,1.4453125
61.8101267,1.5380859375
61.8163117,1.62109375
61.8366764,1.7041015625
61.8748758,1.7626953125
61.8953508,1.81640625
61.8956913,1.8505859375
61.915281,1.8896484375
61.935556,1.89453125
61.9550291,1.8798828125
61.9981576,1.845703125
61.998537,1.796875
62.032333,1.73828125
62.0376768,1.6845703125
62.0564687,1.640625
62.0912572,1.5869140625
62.1117457,1.54296875
62.114471,1.4990234375
62.1552934,1.4697265625
62.1555388,1.435546875
62.1888036,1.4111328125
62.210104,1.376953125
62.217375,1.34765625
62.2543801,1.3134765625
62.2800662,1.2841796875
62.2804728,1.25
62.3125446,1.2353515625
62.3129588,1.2158203125
62.3576818,1.1865234375
62.3580156,1.1669921875
62.37826,1.142578125
62.4106481,1.123046875
62.4311301,1.103515625
62.4378775,1.09375
62.4556383,1.0791015625
62.4903833,1.0693359375
62.4945112,1.0595703125
62.5272518,1.0498046875
62.5478421,1.0400390625
62.5565457,1.03515625
62.5911687,1.025390625
62.6235183,1.0205078125
62.6238064,1.015625
62.6352564,1.0009765625
62.6714945,0.99609375
62.6763359,0.9912109375
62.7270987,0.9912109375
62.7273429,0.986328125
62.7388336,0.986328125
62.7757626,0.9814453125
62.7761625,0.9814453125
62.7952265,0.9765625
62.8330758,0.9814453125
62.8334809,0.9814453125
62.8799829,0.986328125
62.8805804,0.9814453125
62.9011255,0.9814453125
62.9346543,0.986328125
62.9379366,1.03515625
62.9590176,1.1181640625
62.9797219,1.1962890625
62.9987408,1.2939453125
63.0166838,1.3818359375
63.0660826,1.474609375
63.066389,1.552734375
63.0766027,1.6357421875
63.1116968,1.689453125
63.1468848,1.748046875
63.1472648,1.7822265625
63.1600141,1.806640625
63.1749422,1.806640625
63.2129131,1.796875
63.2180009,1.767578125
63.2371308,1.7236328125
63.274164,1.6748046875
63.2798296,1.6259765625
63.2991952,1.5771484375
63.3189187,1.5380859375
63.3566238,1.4990234375
63.3568768,1.4599609375
63.3904832,1.4306640625
63.4109291,1.4013671875
63.4186729,1.3720703125
63.4373474,1.337890625
63.4594554,1.3134765625
63.4779687,1.2890625
63.5267999,1.2646484375
63.5271592,1.240234375
63.5568171,1.220703125
63.5572372,1.201171875
63.6052058,1.1865234375
63.605502,1.1669921875
63.6162989,1.1474609375
63.6515116,1.1328125
63.6731195,1.1083984375
63.6777912,1.09375
63.7129688,1.083984375
63.7368965,1.07421875
63.7419826,1.0595703125
63.7562378,1.0546875
63.8024,1.044921875
63.8027184,1.0400390625
63.8230198,1.0302734375
63.8413191,1.0205078125
63.8605388,1.0107421875
63.8824068,1.0009765625
63.9005455,0.99609375
63.9157816,0.986328125
63.95126,0.986328125
63.9743856,0.9912109375
63.9787703,1.0009765625
64.0227676,0.99609375
64.0230131,0.9912109375
64.040368,0.986328125
64.0762854,0.9912109375
64.0765702,0.9814453125
64.1138046,0.986328125
64.1363717,0.986328125
64.1367742,1.0302734375
64.1726194,1.09375
64.2063224,1.1767578125
64.2065677,1.2548828125
64.2184345,1.3525390625
64.2508281,1.435546875
64.2736841,1.5087890625
64.2791625,1.58203125
64.298387,1.6455078125
64.3183545,1.6943359375
64.3384262,1.7236328125
64.3733062,1.7431640625
64.4079098,1.7333984375
64.4081746,1.7041015625
64.4158967,1.6650390625
64.4500048,1.630859375
64.4705,1.5673828125
64.4771298,1.552734375
64.5120352,1.5283203125
64.535047,1.50390625
64.5385585,1.4794921875
64.5763079,1.4501953125
64.5818359,1.42578125
64.6013275,1.396484375
64.6388983,1.3671875
64.6391574,1.337890625
64.6576411,1.318359375
64.7001587,1.2939453125
64.7004897,1.26953125
64.7317744,1.25
64.7420069,1.2353515625
64.7596501,1.2109375
64.7947189,1.1962890625
64.8152355,1.1767578125
64.8171622,1.162109375
64.8515993,1.142578125
64.8850212,1.1328125
64.8857108,1.1181640625
64.8993147,1.0986328125
64.9473989,1.083984375
64.9476732,1.0693359375
64.9609648,1.0546875
64.977932,1.044921875
65.0239406,1.044921875
65.0243598,1.03515625
65.0397438,1.03515625
65.0591303,1.025390625
65.0975935,1.0205078125
65.1148021,1.015625
65.1189243,1.015625
65.1538442,1.005859375
65.1585111,1.005859375
65.1933675,1.0107421875
65.1981068,1.005859375
65.2334674,1.005859375
65.2632213,1.0107421875
65.267697,1.015625
65.2817079,1.015625
65.3261301,1.0205078125
65.3265283,1.0205078125
65.3421191,1.0205078125
65.36952,1.025390625
65.3803654,1.0693359375
65.4166075,1.1279296875
65.4215133,1.2109375
65.4401825,1.298828125
65.4703177,1.38671875
65.490458,1.46484375
65.504886,1.552734375
65.522101,1.6259765625
65.5395132,1.6845703125
65.5826341,1.748046875
65.5828766,1.787109375
65.6009559,1.8115234375
65.6430995,1.81640625
65.6435238,1.806640625
65.688105,1.7724609375
65.6884218,1.728515625
65.6991903,1.6748046875
65.7193565,1.6357421875
65.7542089,1.5869140625
65.7629479,1.552734375
65.7810755,1.513671875
65.8196296,1.474609375
65.8199362,1.4404296875
65.8546251,1.40625
65.8821127,1.3671875
65.8823698,1.3330078125
65.8991464,1.3134765625
65.9185314,1.2841796875
65.954063,1.2548828125
65.976711,1.23046875
65.9808541,1.2109375
66.0194247,1.1865234375
66.021385,1.171875
66.0435561,1.15234375
66.063715,1.11328125
66.0796681,1.0791015625
66.1281919,1.0791015625
66.1287595,1.064453125
66.1398151,1.0595703125
66.175316,1.044921875
66.1946534,1.0302734375
66.20242,1.0205078125
66.2409348,1.005859375
66.2415217,0.9912109375
66.2582824,0.9814453125
66.2807227,0.9814453125
66.3166029,0.9765625
66.320572,0.966796875
66.3575925,0.95703125
66.379104,0.9521484375
66.3810311,0.947265625
66.4153691,0.9423828125
66.4375264,0.9423828125
66.4378663,0.947265625
66.4788452,0.95703125
66.4815306,0.95703125
66.5164053,0.9619140625
66.521445,0.9619140625
66.5574098,0.9716796875
66.5900242,0.9716796875
66.5904296,0.9716796875
66.598726,0.9716796875
66.6327323,0.986328125
66.6524666,1.025390625
66.6604812,1.0986328125
66.6984313,1.1767578125
66.7319971,1.2646484375
66.7325393,1.3427734375
66.742501,1.42578125
66.758398,1.4892578125
66.7933207,1.5673828125
66.8147646,1.630859375
66.8215504,1.6748046875
66.8651027,1.708984375
66.8653574,1.728515625
66.882114,1.728515625
66.9247331,1.708984375
66.9253125,1.6796875
66.9441576,1.640625
66.9782909,1.6015625
66.9787102,1.5625
67.0167281,1.533203125
67.0413517,1.50390625
67.0415986,1.4794921875
67.0909612,1.4501953125
67.0913179,1.4208984375
67.1124776,1.396484375
67.1233363,1.3623046875
67.1603474,1.3330078125
67.1606463,1.3037109375
67.1932114,1.2890625
67.2141885,1.2646484375
67.221254,1.2451171875
67.2559451,1.220703125
67.2766181,1.2060546875
67.2835946,1.181640625
67.3325187,1.1669921875
67.3328404,1.1474609375
67.3391939,1.1376953125
67.3806951,1.123046875
67.4109986,1.1083984375
67.4114057,1.09375
67.4249761,1.0888671875
67.4426835,1.0791015625
67.4757526,1.0595703125
67.4844565,1.0498046875
67.5014143,1.0400390625
67.5380372,1.03515625
67.543336,1.0302734375
67.5619937,1.0302734375
67.6003631,1.025390625
67.6006303,1.0205078125
67.6247518,1.0107421875
67.6718312,1.005859375
67.6721506,1.0009765625
67.6861651,0.9814453125
67.7013812,0.9814453125
67.7359674,0.9912109375
67.7560293,0.99609375
67.762029,0.99609375
67.7947147,1.0009765625
67.815523,1.0009765625
67.8223143,1.0107421875
67.8734027,1.0205078125
67.8906877,1.064453125
67.8910392,1.123046875
67.9017653,1.2060546875
67.9388506,1.2841796875
67.9464448,1.3623046875
67.962911,1.435546875
68.0129923,1.5087890625
68.0133039,1.572265625
68.0264463,1.6357421875
68.0412206,1.6796875
68.0914924,1.73828125
68.0917336,1.7724609375
68.1016976,1.7822265625
68.1351945,1.7724609375
68.1575719,1.73828125
68.174929,1.7041015625
68.1838595,1.66015625
68.2218385,1.62109375
68.2222293,1.5771484375
68.2445455,1.54296875
68.2629476,1.5087890625
68.2972239,1.4794921875
68.3014623,1.4453125
68.3354998,1.4208984375
68.357625,1.38671875
68.3652536,1.357421875
68.4046875,1.3330078125
68.4052303,1.298828125
68.427521,1.279296875
68.442214,1.23046875
68.4831637,1.220703125
68.4835778,1.2060546875
68.5211528,1.19140625
68.540888,1.1767578125
68.5459037,1.1669921875
68.5682881,1.142578125
68.5866464,1.1328125
68.6033352,1.11328125
68.6450045,1.11328125
68.6453902,1.0986328125
68.6782822,1.0888671875
68.6984618,1.07421875
68.7027325,1.0693359375
68.7359104,1.0595703125
68.7579665,1.044921875
68.7682444,1.03515625
68.7829621,1.025390625
68.8215739,1.0205078125
68.8218373,1.015625
68.8577876,1.0205078125
68.8820761,1.015625
68.8823943,1.0107421875
68.9327031,1.0009765625
68.9331005,1.0009765625
68.9533836,0.99609375
68.9619607,1.0009765625
68.9975523,1.0009765625
69.0178246,1.0009765625
69.0247828,1.0009765625
69.0758308,0.99609375
69.0761206,0.9912109375
69.0869601,0.99609375
69.1226697,1.03515625
69.1230296,1.083984375
69.1677744,1.1669921875
69.1680207,1.240234375
69.1834733,1.328125
69.2204132,1.396484375
69.2530758,1.474609375
69.2533967,1.533203125
69.2652569,1.591796875
69.2977578,1.640625
69.3178917,1.6796875
69.3235466,1.69921875
69.3610553,1.7236328125
69.3842193,1.7236328125
69.3884018,1.6943359375
69.4060058,1.66015625
69.4268668,1.62109375
69.4649235,1.5771484375
69.4651679,1.5380859375
69.486317,1.4990234375
69.5032706,1.46484375
69.5464963,1.435546875
69.5467366,1.40625
69.5814415,1.3720703125
69.5836302,1.3427734375
69.62168,1.318359375
69.6266997,1.2939453125
69.6771659,1.26953125
69.6774773,1.2451171875
69.6832736,1.220703125
69.7186737,1.201171875
69.7458713,1.1767578125
69.7461668,1.1669921875
69.7819555,1.142578125
69.7861586,1.1279296875
69.8323847,1.1083984375
69.832647,1.09375
69.8431211,1.07421875
69.8813196,1.07421875
69.8859651,1.064453125
69.9360228,1.0546875
69.9363198,1.044921875
69.9466217,1.03515625
69.9667077,1.0205078125
69.9870067,1.0205078125
70.0258883,1.0107421875
70.0264065,1.0009765625
70.049187,0.9716796875
70.0661266,0.95703125
70.092532,0.9716796875
70.1062719,0.986328125
70.1504692,0.99609375
70.1508178,1.005859375
70.1667228,1.0107421875
70.2003088,1.015625
70.2204178,1.0107421875
70.222355,1.005859375
70.2622177,1.015625
70.2823803,1.0205078125
70.2841273,1.0205078125
70.3165814,1.03515625
70.3382048,1.0595703125
70.3470873,1.1181640625
70.3909729,1.1865234375
70.3912212,1.2646484375
70.4239002,1.3330078125
70.4242345,1.40625
70.4617657,1.46484375
70.466673,1.5234375
70.4883631,1.5673828125
70.5077314,1.6064453125
70.5275947,1.6259765625
70.5473856,1.640625
70.5646791,1.6357421875
70.5894467,1.62109375
70.608428,1.591796875
70.6260918,1.5673828125
70.6615854,1.5380859375
70.6656579,1.50390625
70.7013624,1.474609375
70.7220073,1.4453125
70.7260403,1.416015625
70.7594995,1.38671875
70.7634235,1.3671875
70.7967121,1.3427734375
70.8165722,1.3232421875
70.8248621,1.298828125
70.8596621,1.2744140625
70.8880788,1.25
70.8883511,1.23046875
70.9234271,1.2109375
70.9497241,1.19140625
70.9499775,1.1767578125
70.9807729,1.1572265625
70.9882043,1.1474609375
71.0061096,1.1328125
71.0292225,1.123046875
71.048081,1.1083984375
71.081595,1.0986328125
71.0879855,1.083984375
71.1238118,1.07421875
71.1240599,1.064453125
71.1633475,1.0693359375
71.1966612,1.064453125
71.1969129,1.064453125
71.2054832,1.0546875
71.2408325,1.0498046875
71.2740162,1.03515625
71.2744221,1.03515625
71.2882125,1.0302734375
71.305577,1.0205078125
71.352698,1.025390625
71.3530285,1.0205078125
71.3661543,1.025390625
71.4139035,1.0205078125
71.4142766,1.025390625
71.4426443,1.025390625
71.450037,1.025390625
71.4785884,1.0205078125
71.4856901,1.0302734375
71.5241035,1.025390625
71.5454281,1.03515625
71.5458339,1.0400390625
71.5816541,1.083984375
71.6024513,1.15234375
71.6069064,1.220703125
71.6415004,1.3037109375
71.6653668,1.3818359375
71.6694022,1.4501953125
71.6859631,1.5283203125
71.7294843,1.611328125
71.729788,1.669921875
71.7584987,1.7333984375
71.7785417,1.7724609375
71.7881272,1.8017578125
71.8239962,1.806640625
71.8453302,1.796875
71.8456249,1.767578125
71.8867879,1.7333984375
71.8870296,1.689453125
71.9080609,1.650390625
71.9494733,1.6064453125
71.9498282,1.5625
71.9688447,1.5234375
72.0103483,1.484375
72.0109957,1.4501953125
72.0272885,1.416015625
72.0650921,1.3916015625
72.0671417,1.3671875
72.1063478,1.337890625
72.1066163,1.30859375
72.151547,1.279296875
72.1518139,1.2548828125
72.1723589,1.2451171875
72.1858868,1.220703125
72.2211083,1.2060546875
72.2404469,1.1962890625
72.2470669,1.1767578125
72.2814432,1.1572265625
72.303395,1.1376953125
72.3099727,1.123046875
72.3289303,1.1083984375
72.3689052,1.09375
72.3691551,1.07421875
72.404801,1.0693359375
72.409862,1.0595703125
72.4281185,1.0546875
72.4483915,1.044921875
72.484919,1.03515625
72.4870919,1.025390625
72.5227076,1.015625
72.5446123,1.0009765625
72.5487558,1.0009765625
72.5906375,0.9912109375
72.590884,0.9814453125
72.6115499,0.986328125
72.6279536,0.9814453125
72.665719,0.9814453125
72.6703879,0.9765625
72.6898585,0.9814453125
72.7272067,0.9814453125
72.7329218,0.9814453125
72.7471182,0.9765625
72.7757442,0.9814453125
72.7880075,0.9814453125
72.8244425,0.99609375
72.8293567,1.0205078125
72.8803604,1.0791015625
72.8807645,1.162109375
72.8918449,1.2353515625
72.911756,1.328125
72.9266452,1.40625
72.9645235,1.494140625
72.9687968,1.5625
73.0039214,1.630859375
73.0092523,1.6796875
73.0520789,1.728515625
73.0526958,1.748046875
73.070688,1.7626953125
73.086728,1.748046875
73.1302528,1.728515625
73.1305694,1.689453125
73.1767847,1.650390625
73.1771106,1.6064453125
73.1900233,1.5771484375
73.209361,1.5478515625
73.244752,1.513671875
73.2653204,1.4794921875
73.2715991,1.4404296875
73.3226064,1.40625
73.3229293,1.376953125
73.3290833,1.3525390625
73.3679073,1.328125
73.3707133,1.3037109375
73.4161653,1.2744140625
73.4167175,1.25
73.4318511,1.2255859375
73.4832541,1.2109375
73.4836596,1.1865234375
73.4884986,1.1767578125
73.5251513,1.1669921875
73.5301287,1.142578125
73.5495155,1.1328125
73.5704165,1.1181640625
73.619061,1.1083984375
73.6193038,1.09375
73.6323835,1.083984375
73.6475044,1.0693359375
73.6833137,1.0693359375
73.7024202,1.064453125
73.7094249,1.0693359375
73.7581082,1.064453125
73.7636162,1.0595703125
73.7737114,1.0546875
73.7915754,1.044921875
73.8087491,1.03515625
73.8446562,1.0400390625
73.8491441,1.0400390625
73.8844616,1.03515625
73.8890357,1.03515625
73.9290525,1.0302734375
73.9293706,1.025390625
73.9490949,1.0205078125
73.9851689,1.0205078125
74.0083903,1.015625
74.0130233,1.025390625
74.0281845,1.005859375
74.0636291,1.0595703125
74.0847076,1.1279296875
74.0887931,1.2158203125
74.1255081,1.298828125
74.1464711,1.38671875
74.1506499,1.474609375
74.1893381,1.54296875
74.2075816,1.611328125
74.2078963,1.669921875
74.2553251,1.73828125
74.2625778,1.77734375
74.2696576,1.8017578125
74.3056821,1.8017578125
74.3336206,1.7822265625
74.3340379,1.7431640625
74.382337,1.7041015625
74.382676,1.6552734375
74.4077695,1.62109375
74.4103646,1.58203125
74.4547756,1.54296875
74.4550952,1.50390625
74.4832952,1.4794921875
74.4922383,1.4453125
74.5311125,1.4111328125
74.5313537,1.3818359375
74.5773742,1.34765625
74.5777003,1.328125
74.5901653,1.298828125
74.6382748,1.2744140625
74.6386973,1.2451171875
74.6519395,1.220703125
74.687084,1.201171875
74.7147447,1.1767578125
74.7149866,1.162109375
74.7312823,1.1572265625
74.7501097,1.142578125
74.7930413,1.1328125
74.7933819,1.1181640625
74.8126708,1.103515625
74.8489021,1.0986328125
74.8542626,1.0888671875
74.8732711,1.083984375
74.9237767,1.0693359375
74.9241498,1.0546875
74.9306345,1.044921875
74.9659559,1.044921875
74.9832968,1.03515625
74.9917324,1.0302734375
75.0125712,1.0205078125
75.0483996,1.0205078125
75.0524395,1.0107421875
75.0846841,1.005859375
75.1047386,0.99609375
75.1090104,1.005859375
75.1422891,1.005859375
75.1641554,1.0009765625
75.1837889,1.005859375
75.1913726,1.0009765625
75.2300301,1.0009765625
75.2320136,1.0009765625
75.2664395,1.025390625
75.2932378,1.0693359375
75.2934918,1.1474609375
75.3164988,1.2255859375
75.3323254,1.3134765625
75.381097,1.3916015625
75.3813994,1.474609375
75.3945555,1.5380859375
75.4303916,1.6015625
75.4324373,1.66015625
75.4661433,1.6943359375
75.4704336,1.7333984375
75.5213746,1.748046875
75.521776,1.748046875
75.5327292,1.7236328125
75.5682378,1.689453125
75.599739,1.650390625
75.6000379,1.6064453125
75.6132151,1.5673828125
75.6347952,1.5087890625
75.6517031,1.4501953125
75.685572,1.435546875
75.6927076,1.4111328125
75.7269782,1.38671875
75.7527363,1.357421875
75.7530769,1.3427734375
75.7962342,1.318359375
75.7966334,1.2939453125
75.8168875,1.26953125
75.8294717,1.2451171875
75.8641092,1.2255859375
75.8837537,1.2060546875
75.8926352,1.19140625
75.9360112,1.1767578125
75.9363667,1.1572265625
75.9557692,1.1376953125
75.9880893,1.123046875
76.0082825,1.1083984375
76.0100936,1.1083984375
76.0457356,1.0986328125
76.0658546,1.0888671875
76.0726787,1.083984375
76.105793,1.0693359375
76.1273024,1.0546875
76.1338865,1.044921875
76.1696412,1.03515625
76.1699354,1.025390625
76.1907976,1.025390625
76.2283508,1.015625
76.2330556,1.015625
76.2799839,1.005859375
76.2804348,1.015625
76.2947769,1.0107421875
76.3156445,1.0107421875
76.3351087,1.005859375
76.3530667,1.0107421875
76.3715258,1.0107421875
76.4080612,1.0107421875
76.4289139,1.0107421875
76.4330128,1.0107421875
76.4682789,1.0107421875
76.5015538,1.0205078125
76.5020668,1.0595703125
76.5153972,1.123046875
76.5618294,1.201171875
76.5621427,1.2744140625
76.574324,1.3623046875
76.5930596,1.4306640625
76.6137998,1.4990234375
76.63353,1.5576171875
76.6682216,1.6064453125
76.6900496,1.6455078125
76.696425,1.6796875
76.7327843,1.7041015625
76.7331148,1.7041015625
76.7684232,1.7041015625
76.7880962,1.6796875
76.7924509,1.650390625
76.8307581,1.611328125
76.8516533,1.5771484375
76.857412,1.533203125
76.8757379,1.494140625
76.892083,1.455078125
76.9356034,1.4306640625
76.9358913,1.4013671875
76.9546592,1.376953125
76.9989679,1.3427734375
76.9992099,1.318359375
77.0295288,1.2890625
77.0368002,1.26953125
77.0728042,1.2451171875
77.0735337,1.220703125
77.0927833,1.2109375
77.1293325,1.19140625
77.1369149,1.171875
77.1540666,1.15234375
77.1974535,1.1376953125
77.1978531,1.123046875
77.2162015,1.103515625
77.2364173,1.0888671875
77.2764659,1.0498046875
77.2767163,1.0400390625
77.292842,1.0546875
77.3282838,1.0498046875
77.3589574,1.044921875
77.3592812,1.044921875
77.375686,1.03515625
77.4119427,1.0302734375
77.414341,1.025390625
77.4488822,1.0205078125
77.4773604,1.0107421875
77.4778928,1.0107421875
77.4940888,1.0107421875
77.5391179,1.0107421875
77.5396415,1.005859375
77.56046,0.8837890625
77.5747907,0.78125
77.6180673,0.712890625
77.6183884,0.673828125
77.6402196,0.654296875
77.6533024,0.64453125
77.7016735,0.6494140625
77.7020316,0.673828125
77.7149569,0.72265625
77.7523042,0.810546875
77.7569631,0.8984375
77.7773956,1.07421875
77.7945467,1.25
77.8129444,1.396484375
77.8572,1.50390625
77.8575916,1.5869140625
77.8766812,1.6455078125
77.9089906,1.6943359375
77.9287878,1.7236328125
77.9382493,1.7431640625
77.9520949,1.73828125
77.9883184,1.728515625
78.0225384,1.6796875
78.0227876,1.62109375
78.0353636,1.6015625
78.0855557,1.572265625
78.0858538,1.552734375
78.0964786,1.5185546875
78.1476491,1.494140625
78.1482446,1.46484375
78.1573095,1.435546875
78.1743265,1.40625
78.223831,1.38671875
78.2241675,1.3623046875
78.2441478,1.3427734375
78.2542763,1.3134765625
78.2865747,1.2890625
78.3088041,1.259765625
78.3178488,1.2548828125
78.3384273,1.240234375
78.3547521,1.2255859375
78.3944072,1.220703125
78.3948066,1.2060546875
78.446621,1.19140625
78.4469429,1.1767578125
78.4572471,1.1669921875
78.4962634,1.15234375
78.5010387,1.1376953125
78.5143696,1.1279296875
78.5350772,1.1181640625
78.5539066,1.11328125
78.5892287,1.103515625
78.6093273,1.0986328125
78.6142888,1.0888671875
78.6493913,1.083984375
78.6712536,1.0693359375
78.6797532,1.064453125
78.6960218,1.0498046875
78.7352849,1.0546875
78.7356358,1.0498046875
78.7742815,1.0546875
78.7746363,1.044921875
78.8141754,1.044921875
78.8145765,1.0400390625
78.8588625,1.0400390625
78.8592288,1.03515625
78.8802301,1.0546875
78.8960389,1.0986328125
78.9154349,1.171875
78.9546837,1.240234375
78.9552158,1.318359375
78.9966947,1.38671875
79.0129818,1.4453125
79.0179053,1.50390625
79.0521585,1.5478515625
79.0582181,1.591796875
79.0921879,1.6259765625
79.0968766,1.6552734375
79.1157535,1.6748046875
79.152112,1.6796875
79.1562341,1.66015625
79.1898799,1.6357421875
79.2163657,1.6015625
79.2166799,1.572265625
79.2611142,1.5380859375
79.2615134,1.5087890625
79.2771446,1.4892578125
79.3136484,1.455078125
79.3140567,1.4306640625
79.3542406,1.4013671875
79.3583964,1.3818359375
79.3950421,1.357421875
79.3975467,1.3330078125
79.413708,1.30859375
79.4566296,1.2890625
79.4569593,1.2646484375
79.4766578,1.2451171875
79.5179307,1.220703125
79.5182025,1.2060546875
79.5394432,1.1865234375
79.5801133,1.1767578125
79.5804583,1.15234375
79.6119696,1.123046875
79.6192278,1.0986328125
79.6361889,1.0693359375
79.6705868,1.0791015625
79.6904552,1.083984375
79.6981739,1.0791015625
79.7347981,1.07421875
79.7397131,1.0693359375
79.7811878,1.0595703125
79.7814862,1.0595703125
79.794141,1.0498046875
79.8330365,1.0498046875
79.8482186,1.044921875
79.8553983,1.0498046875
79.8996592,1.0400390625
79.9165491,1.0400390625
79.9186447,1.044921875
79.9521665,1.0400390625
79.9724868,1.03515625
79.9745507,1.0302734375
79.9995799,1.0400390625
80.0177266,1.03515625
80.0614827,1.03515625
80.0618088,1.03515625
80.0778204,1.03515625
80.1227253,1.0498046875
80.1230652,1.09375
80.1347195,1.15234375
80.1827316,1.2353515625
80.1833501,1.30859375
80.2073167,1.38671875
80.2188061,1.4453125
80.2600709,1.50390625
80.2603972,1.552734375
80.2948559,1.5869140625
80.2987011,1.62109375
80.3158418,1.640625
80.351199,1.66015625
80.372861,1.66015625
80.3779756,1.650390625
80.4069183,1.630859375
80.4191581,1.6015625
80.4410151,1.572265625
80.4692358,1.54296875
80.4792107,1.513671875
80.5136936,1.484375
80.5354087,1.455078125
80.535858,1.435546875
80.5788142,1.416015625
80.5791679,1.38671875
80.5983485,1.357421875
80.6353671,1.3330078125
80.6675851,1.3134765625
80.6681368,1.2939453125
80.68037,1.26953125
80.6962625,1.2451171875
80.7311704,1.2353515625
80.7535724,1.2109375
80.758302,1.1962890625
80.7785218,1.1767578125
80.81481,1.1669921875
80.8210295,1.1474609375
80.8434399,1.1376953125
80.8648518,1.123046875
80.8778278,1.123046875
80.9118353,1.11328125
80.9167929,1.103515625
80.9521569,1.0986328125
80.9727402,1.0888671875
80.9776286,1.0791015625
81.0028116,1.0693359375
81.0210965,1.0595703125
81.0374071,1.0498046875
81.0795437,1.0498046875
81.0800094,1.044921875
81.1022093,1.0400390625
81.1184363,1.03515625
81.1405905,1.03515625
81.1615937,1.0302734375
81.1804545,1.0302734375
81.202247,1.03515625
81.2219023,1.025390625
81.2595921,1.0009765625
81.2598369,1.0009765625
81.2928914,1.015625
81.3231744,1.0205078125
81.3235005,1.025390625
81.3414794,1.0302734375
81.3810382,1.0693359375
81.3813439,1.123046875
81.4010818,1.2060546875
81.4168833,1.279296875
81.4525308,1.3720703125
81.4773369,1.4453125
81.4776541,1.5185546875
81.5144833,1.5771484375
81.5349459,1.640625
81.5420693,1.689453125
81.56326,1.7236328125
81.5822095,1.7529296875
81.5978325,1.7626953125
81.6396681,1.7626953125
81.6400209,1.748046875
81.686464,1.7236328125
81.6867061,1.6845703125
81.7006861,1.650390625
81.7364561,1.611328125
81.7571482,1.572265625
81.7574679,1.5380859375
81.7990444,1.513671875
81.8032108,1.484375
81.818875,1.4501953125
81.864177,1.42578125
81.8644968,1.396484375
81.8949243,1.3671875
81.8993713,1.337890625
81.9342312,1.3134765625
81.9576728,1.2841796875
81.9579724,1.2646484375
82.0028829,1.2451171875
82.0032337,1.23046875
82.0230396,1.2060546875
82.056316,1.1865234375
82.0600688,1.1669921875
82.0917336,1.15234375
82.1129511,1.1328125
82.1220461,1.123046875
82.1386681,1.103515625
82.1751238,1.103515625
82.179299,1.0986328125
82.2202433,1.0888671875
82.2208693,1.083984375
82.2488107,1.0693359375
82.2618264,1.064453125
82.3000508,1.0546875
82.3003005,1.044921875
82.3184529,1.03515625
82.3398705,1.03515625
82.360302,1.0302734375
82.3983955,1.025390625
82.4027118,1.0205078125
82.4218809,1.025390625
82.4410865,1.0205078125
82.4812332,1.0205078125
82.5022022,1.025390625
82.5025334,1.0205078125
82.5204956,1.0205078125
82.5423347,1.0205078125
82.5762657,1.0205078125
82.5811052,1.015625
82.6156463,1.025390625
82.6365092,1.064453125
82.6417745,1.1328125
82.6569829,1.2109375
82.6977752,1.3037109375
82.7178592,1.376953125
82.7196803,1.4599609375
82.7570379,1.5185546875
82.7614334,1.5771484375
82.8064269,1.62109375
82.8068573,1.6650390625
82.8236339,1.6943359375
82.8427768,1.7041015625
82.8848983,1.708984375
82.8852194,1.6943359375
82.90036,1.6748046875
82.9509674,1.6455078125
82.9513699,1.6162109375
82.9614671,1.58203125
82.999254,1.5478515625
83.003809,1.513671875
83.0422818,1.484375
83.0426044,1.4501953125
83.0763952,1.42578125
83.0818453,1.4013671875
83.1025441,1.3720703125
83.1520812,1.3525390625
83.1523344,1.3232421875
83.1632518,1.298828125
83.2094828,1.2744140625
83.2099004,1.2548828125
83.2189934,1.23046875
83.2537026,1.2158203125
83.2740669,1.201171875
83.2823211,1.181640625
83.3187184,1.1669921875
83.3206709,1.15234375
83.3534707,1.1328125
83.3736673,1.123046875
83.3786961,1.1083984375
83.4116176,1.103515625
83.4340915,1.09375
83.441913,1.09375
83.4928303,1.0888671875
83.4930716,1.0791015625
83.5030321,1.07421875
83.538387,1.064453125
83.5424834,1.0546875
83.5749345,1.044921875
83.5829248,1.0498046875
83.6016957,1.015625
83.6398193,1.0205078125
83.6400622,1.025390625
83.6924993,1.0302734375
83.7004014,1.0302734375
83.702402,1.03515625
83.739128,1.0302734375
83.757559,1.025390625
83.7643212,1.025390625
83.7815255,1.0205078125
83.8163003,1.025390625
83.8203071,1.0400390625
83.8648433,1.0888671875
83.8652041,1.15234375
83.8901237,1.2353515625
83.903962,1.3134765625
83.9284413,1.3916015625
83.947599,1.455078125
83.9615767,1.533203125
84.0029965,1.58203125
84.0032706,1.630859375
84.023327,1.6650390625
84.0584716,1.689453125
84.0640481,1.6943359375
84.1138552,1.6943359375
84.1141536,1.6748046875
84.1201764,1.640625
84.14146,1.6162109375
84.1769397,1.5869140625
84.1820873,1.5576171875
84.2198125,1.5283203125
84.2404066,1.4990234375
84.2429989,1.4697265625
84.2847168,1.4404296875
84.2855421,1.4111328125
84.3039978,1.3916015625
84.3375825,1.3623046875
84.3404001,1.337890625
84.3756476,1.30859375
84.4066145,1.2841796875
84.4070133,1.2646484375
84.4223881,1.240234375
84.4560862,1.220703125
84.4754835,1.201171875
84.4858576,1.1865234375
84.5025862,1.1669921875
84.5535688,1.162109375
84.5541137,1.15234375
84.5635442,1.142578125
84.6145476,1.1279296875
84.6149512,1.1181640625
84.6230602,1.103515625
84.6557037,1.09375
84.6758078,1.07421875
84.6818274,1.07421875
84.7155982,1.064453125
84.7371667,1.0693359375
84.7434382,1.064453125
84.7847805,1.0546875
84.7901822,1.0498046875
84.8059974,1.0400390625
84.8254031,1.03515625
84.8420096,1.025390625
84.8630988,1.025390625
84.9093398,1.0205078125
84.9097225,1.0205078125
84.924001,1.0205078125
84.9722891,1.015625
84.9726206,1.015625
85.0024064,1.015625
85.0027057,1.015625
85.0424587,1.0205078125
85.0427833,1.03515625
85.0728735,1.0400390625
85.0832958,1.0693359375
85.118837,1.123046875
85.1505019,1.2109375
85.1508888,1.2890625
85.165164,1.3720703125
85.1967195,1.4501953125
85.2061846,1.5087890625
85.222472,1.5576171875
85.2595966,1.6455078125
85.2615853,1.7041015625
85.3003359,1.7529296875
85.3175386,1.787109375
85.3245832,1.806640625
85.3651276,1.796875
85.3655039,1.77734375
85.3845477,1.7431640625
85.4166517,1.69921875
85.4386468,1.6650390625
85.4450361,1.6259765625
85.4816167,1.591796875
85.48616,1.552734375
85.5081784,1.5234375
85.5261745,1.494140625
85.5666175,1.455078125
85.5668975,1.4208984375
85.5866302,1.396484375
85.6199784,1.3671875
85.6239823,1.3427734375
85.6603208,1.3134765625
85.6806467,1.2841796875
85.6860211,1.2646484375
85.7063396,1.240234375
85.7405074,1.2158203125
85.761958,1.19140625
85.7622809,1.181640625
85.7999016,1.162109375
85.8368055,1.1474609375
85.837236,1.1328125
85.8445695,1.1181640625
85.8827617,1.0986328125
85.8877061,1.0888671875
85.9051075,1.0791015625
85.9230765,1.0693359375
85.9692205,1.0595703125
85.9695633,1.0546875
86.005,1.044921875
86.0095235,1.0400390625
86.0266897,1.0302734375
86.0673082,1.015625
86.0675676,1.0107421875
86.1009818,1.0009765625
86.1207298,0.99609375
86.1226692,0.9912109375
86.1573655,0.99609375
86.1774575,0.9912109375
86.1834511,0.9912109375
86.2157366,0.986328125
86.2361292,0.9912109375
86.24533,0.986328125
86.281606,0.9912109375
86.3082968,0.9912109375
86.3087738,1.0009765625
86.322659,1.0107421875
86.3564445,1.0400390625
86.3782607,1.1083984375
86.3856319,1.181640625
86.4214267,1.2744140625
86.4253737,1.357421875
86.4615125,1.4404296875
86.4819012,1.50390625
86.4839636,1.5771484375
86.5202036,1.640625
86.5241925,1.6943359375
86.5453353,1.728515625
86.5657593,1.7578125
86.6040146,1.7578125
86.6081026,1.748046875
86.623096,1.7138671875
86.6689345,1.689453125
86.6691983,1.650390625
86.6888815,1.611328125
86.7216708,1.5771484375
86.7236464,1.54296875
86.757259,1.5087890625
86.7775125,1.474609375
86.7852659,1.4453125
86.8240615,1.416015625
86.825842,1.3671875
86.8587191,1.3427734375
86.8647208,1.328125
86.900309,1.3037109375
86.9216086,1.2841796875
86.9265846,1.259765625
86.9646252,1.240234375
86.9649529,1.220703125
87.0017601,1.1962890625
87.0254627,1.1767578125
87.0259093,1.1572265625
87.0448259,1.15234375
87.1012403,1.142578125
87.1017101,1.1279296875
87.1053608,1.11328125
87.151348,1.103515625
87.1517408,1.0888671875
87.1699664,1.083984375
87.1838533,1.064453125
87.216476,1.064453125
87.2368367,1.0595703125
87.2443632,1.0546875
87.2782779,1.044921875
87.3155067,1.0400390625
87.3162546,1.03515625
87.3287962,1.025390625
87.3489752,1.0205078125
87.3662845,1.0107421875
87.3865323,1.015625
87.4055821,1.0107421875
87.4508318,1.0107421875
87.4512423,1.0107421875
87.4677295,1.0107421875
87.5107452,1.005859375
87.5115316,1.0107421875
87.5228366,1.005859375
87.5564409,1.0205078125
87.5771661,1.0498046875
87.5851085,1.1083984375
87.6178921,1.1962890625
87.63784,1.279296875
87.6467897,1.3720703125
87.6810258,1.4501953125
87.7022997,1.5380859375
87.7095798,1.6015625
87.7555861,1.6650390625
87.7558298,1.7138671875
87.766281,1.7626953125
87.8027288,1.7919921875
87.8071974,1.806640625
87.8506039,1.796875
87.850852,1.7724609375
87.8845949,1.73828125
87.8871448,1.6943359375
87.9220969,1.6455078125
87.9251326,1.6162109375
87.9583854,1.5771484375
87.9803131,1.5380859375
87.988438,1.50390625
88.0076595,1.4697265625
88.043285,1.435546875
88.0481136,1.4013671875
88.0852213,1.376953125
88.085543,1.34765625
88.1157129,1.328125
88.126068,1.3037109375
88.1597827,1.279296875
88.1799107,1.25
88.185935,1.23046875
88.2188324,1.2060546875
88.2385936,1.1865234375
88.2490171,1.171875
88.2649729,1.1474609375
88.3006789,1.142578125
88.3311243,1.1279296875
88.3320561,1.123046875
88.3476686,1.1083984375
88.3815292,1.09375
88.4097925,1.0791015625
88.4101903,1.07421875
88.4462193,1.0595703125
88.4506839,1.0498046875
88.4660634,1.0400390625
88.5154807,1.03515625
88.5159035,1.0302734375
88.5318829,1.025390625
88.5481783,1.015625
88.5839799,1.025390625
88.5995361,1.025390625
88.6100365,1.0205078125
88.647799,1.015625
88.6481042,1.0107421875
88.6939114,1.015625
88.6943101,1.015625
88.7074235,1.015625
88.744817,1.015625
88.7714804,1.015625
88.7717267,1.0107421875
88.8040966,1.015625
88.8305751,1.0107421875
88.830917,1.03515625
88.8480163,1.083984375
88.8959936,1.162109375
88.8962728,1.259765625
88.9330025,1.34765625
88.9332791,1.4404296875
88.9497176,1.5234375
88.9997334,1.6015625
89.0171271,1.6650390625
89.0174763,1.7333984375
89.0284906,1.7822265625
89.0640568,1.8212890625
89.0688946,1.8359375
89.1156056,1.845703125
89.1158493,1.8212890625
89.13083,1.7822265625
89.1493776,1.7333984375
89.1709283,1.66015625
89.1879259,1.591796875
89.2230576,1.572265625
89.2274298,1.54296875
89.26015,1.513671875
89.2801569,1.4794921875
89.2898043,1.4453125
89.3292643,1.416015625
89.3445356,1.3818359375
89.3502727,1.3525390625
89.3842962,1.328125
89.3865602,1.3037109375
89.4226449,1.279296875
89.4428647,1.2548828125
89.4475922,1.23046875
89.4846681,1.2109375
89.5066698,1.1865234375
89.5109765,1.1669921875
89.5638122,1.15234375
89.5641338,1.1328125
89.5685556,1.1279296875
89.5992184,1.1181640625
89.6318875,1.1083984375
89.6364847,1.09375
89.6505792,1.0888671875
89.6963931,1.07421875
89.696721,1.064453125
89.7060976,1.0498046875
89.7403857,1.044921875
89.7611311,1.03515625
89.767146,1.0302734375
89.8015168,1.0205078125
89.830043,1.0205078125
89.8304038,1.0107421875
89.8663419,1.0107421875
89.8708823,1.0107421875
89.895792,1.005859375
89.9091089,1.0107421875
89.9455978,1.0107421875
89.9504719,1.0107421875
89.9859782,1.0107421875
89.987956,1.0107421875
90.0291188,1.0107421875
90.0595682,1.0107421875
90.0599785,1.0107421875
90.0730747,1.0400390625
90.0966498,1.09375
90.1088549,1.1865234375
90.1565622,1.26953125
90.1569592,1.3623046875
90.1884208,1.4501953125
90.1923681,1.5185546875
90.228386,1.5869140625
90.2328818,1.6357421875
90.2532573,1.6845703125
90.2704063,1.7138671875
90.2949183,1.7333984375
90.309012,1.728515625
90.3304628,1.708984375
90.3762942,1.6748046875
90.3769135,1.6357421875
90.3912278,1.5966796875
90.4279603,1.5625
90.4283674,1.5185546875
90.4682325,1.494140625
90.4684894,1.4599609375
90.4883759,1.435546875
90.531734,1.40625
90.532177,1.376953125
90.578366,1.34765625
90.5786593,1.3232421875
90.5916301,1.298828125
90.6094059,1.2744140625
90.6454938,1.259765625
90.6499595,1.2451171875
90.6839932,1.23046875
90.7045152,1.2158203125
90.7095244,1.1962890625
90.7443573,1.1767578125
90.7672019,1.162109375
90.7730798,1.142578125
90.7926521,1.1083984375
90.8292927,1.083984375
90.8354444,1.0791015625
90.8507323,1.083984375
90.8940271,1.0791015625
90.8943222,1.0791015625
90.9296719,1.0693359375
90.9344658,1.064453125
90.9538618,1.0546875
90.9965095,1.0546875
90.9969111,1.044921875
91.0094918,1.044921875
91.0462879,1.03515625
91.0765084,1.03515625
91.0767747,1.025390625
91.0910975,1.025390625
91.1260359,1.015625
91.1469996,1.0205078125
91.1533423,1.0205078125
91.1707875,1.0205078125
91.2064372,1.025390625
91.2116339,1.0302734375
91.2359455,1.0302734375
91.2508251,1.025390625
91.2966984,1.0302734375
91.2969437,1.044921875
91.3298916,1.0986328125
91.330145,1.1669921875
91.3757814,1.259765625
91.3760227,1.34765625
91.3908278,1.4501953125
91.4128918,1.5283203125
91.452835,1.611328125
91.4530766,1.689453125
91.4863537,1.748046875
91.5065465,1.796875
91.5083988,1.826171875
91.5440709,1.8505859375
91.5774897,1.845703125
91.5777383,1.8212890625
91.591066,1.7822265625
91.6385097,1.7333984375
91.6387744,1.6845703125
91.6536113,1.640625
91.6754378,1.5966796875
91.6939329,1.552734375
91.7110509,1.513671875
91.7466688,1.484375
91.7510289,1.4453125
91.7921371,1.416015625
91.792386,1.38671875
91.8139836,1.3525390625
91.8333546,1.3232421875
91.868104,1.2939453125
91.8881263,1.2646484375
91.8911811,1.240234375
91.9320408,1.2255859375
91.9323955,1.2060546875
91.987204,1.19140625
91.9875094,1.171875
91.9939817,1.15234375
92.0294637,1.1328125
92.0340024,1.123046875
92.0496509,1.103515625
92.0874082,1.0986328125
92.0930008,1.0888671875
92.1117127,1.07421875
92.132199,1.064453125
92.1717311,1.0498046875
92.1719868,1.044921875
92.1941018,1.0302734375
92.2135025,1.0205078125
92.2301822,1.005859375
92.267206,1.005859375
92.2723249,1.0009765625
92.2918637,0.99609375
92.3344513,0.9814453125
92.3347123,0.9765625
92.3674572,0.9716796875
92.3898199,0.966796875
92.3940887,0.95703125
92.4161202,0.9619140625
92.4372482,0.9619140625
92.4508603,0.95703125
92.4904028,0.9619140625
92.4922617,0.9619140625
92.5383931,0.9619140625
92.5386387,0.9619140625
92.5534396,0.9765625
92.5909452,1.0107421875
92.5935725,1.0888671875
92.6278578,1.1669921875
92.6304039,1.2646484375
92.6672481,1.3525390625
92.6717086,1.4501953125
92.7073792,1.5283203125
92.7401743,1.6015625
92.7404787,1.669921875
92.7548578,1.71875
92.8031033,1.7529296875
92.8033483,1.767578125
92.8243534,1.77734375
92.8336955,1.7578125
92.8542677,1.7236328125
92.8747024,1.6796875
92.9178969,1.640625
92.9183094,1.5966796875
92.9349099,1.5576171875
92.951186,1.5185546875
92.9921797,1.4892578125
93.019952,1.455078125
93.0203166,1.42578125
93.0324468,1.3916015625
93.0655148,1.3671875
93.0849235,1.337890625
93.0939148,1.3037109375
93.1286137,1.2744140625
93.1480944,1.25
93.1545181,1.2353515625
93.1716481,1.19140625
93.2241122,1.181640625
93.2243989,1.171875
93.2338245,1.162109375
93.2709145,1.15234375
93.2755713,1.1376953125
93.2952615,1.123046875
93.341011,1.1083984375
93.3413588,1.09375
93.3695132,1.0888671875
93.3715158,1.0888671875
93.4069938,1.07421875
93.4369037,1.064453125
93.4371538,1.0546875
93.455264,1.0498046875
93.5072418,1.0400390625
93.5074834,1.03515625
93.5118138,1.0205078125
93.5448234,1.025390625
93.5696417,1.015625
93.5750032,1.015625
93.6150317,1.005859375
93.6154318,1.0009765625
93.6485669,0.99609375
93.6775679,0.99609375
93.6778895,0.986328125
93.6925666,1.0009765625
93.7378593,1.005859375
93.7381911,1.005859375
93.7582328,1.005859375
93.7745496,1.005859375
93.8157991,1.03515625
93.8161351,1.09375
93.8496261,1.171875
93.8692769,1.25
93.8711888,1.3427734375
93.9037822,1.416015625
93.9259355,1.494140625
93.9352692,1.5576171875
93.9722811,1.62109375
93.972528,1.6650390625
94.0212494,1.7041015625
94.0214968,1.728515625
94.0415471,1.728515625
94.0561089,1.7138671875
94.0733265,1.6796875
94.1077669,1.6552734375
94.1287677,1.611328125
94.1348023,1.5771484375
94.1693499,1.5380859375
94.194251,1.50390625
94.1945491,1.4697265625
94.2283838,1.4404296875
94.2500228,1.40625
94.2542343,1.3916015625
94.3059574,1.3623046875
94.3063536,1.337890625
94.3141747,1.30859375
94.3498143,1.2841796875
94.3697725,1.259765625
94.3758029,1.23046875
94.4156405,1.2109375
94.416242,1.1865234375
94.4377562,1.1767578125
94.4536063,1.162109375
94.4957721,1.15234375
94.4961696,1.1376953125
94.5244977,1.1279296875
94.5367034,1.11328125
94.5949714,1.0986328125
94.5953936,1.083984375
94.5981183,1.0791015625
94.613696,1.0693359375
94.6352062,1.0595703125
94.6630249,1.0546875
94.6731859,1.0400390625
94.7076795,1.03515625
94.7284017,1.03515625
94.7362965,1.0400390625
94.7554366,1.03515625
94.778622,1.0107421875
94.794791,0.9912109375
94.8356523,1.005859375
94.8621518,1.0107421875
94.8627277,1.0205078125
94.8749255,1.015625
94.9244531,1.015625
94.9248324,1.015625
94.9390587,1.015625
94.9552725,1.005859375
94.975471,1.0205078125
95.0083554,1.025390625
95.0152113,1.025390625
95.0501762,1.0302734375
95.070017,1.0400390625
95.0779108,1.083984375
95.0972148,1.1474609375
95.1326898,1.23046875
95.135031,1.30859375
95.1815873,1.396484375
95.1818446,1.474609375
95.1968829,1.552734375
95.2339093,1.611328125
95.2343121,1.6748046875
95.269216,1.71875
95.2892193,1.7578125
95.2965581,1.787109375
95.3158672,1.7822265625
95.3521787,1.767578125
95.3567587,1.7333984375
95.4079966,1.6943359375
95.4084491,1.650390625
95.4170927,1.611328125
95.4547557,1.5673828125
95.4589307,1.5283203125
95.4738872,1.494140625
95.5150543,1.4697265625
95.5152957,1.435546875
95.5493249,1.40625
95.5699234,1.3720703125
95.5773536,1.3427734375
95.6137244,1.30859375
95.6180897,1.2890625
95.6592112,1.259765625
95.6595929,1.23046875
95.6918308,1.2060546875
95.7118342,1.1865234375
95.7157584,1.171875
95.7510639,1.15234375
95.7722086,1.142578125
95.7785105,1.1279296875
95.8162382,1.11328125
95.8165653,1.0986328125
95.8675305,1.083984375
95.8681043,1.0693359375
95.887506,1.0693359375
95.8965369,1.0595703125
95.9308117,1.0546875
95.9526313,1.0498046875
95.9570304,1.03515625
96.0061999,1.025390625
96.0065908,1.0107421875
96.0276104,1.005859375
96.0362199,1.0009765625
96.0733077,1.005859375
96.0774432,1.0009765625
96.1161178,1.005859375
96.1165222,0.99609375
96.1530516,1.0009765625
96.1731879,0.99609375
96.1797787,0.99609375
96.1945691,0.9912109375
96.2292029,0.99609375
96.2506363,0.99609375
96.257555,1.005859375
96.2958523,1.0107421875
96.2962018,1.0107421875
96.3452094,1.0205078125
96.3455484,1.0498046875
96.3666633,1.1083984375
96.3787557,1.181640625
96.4219484,1.240234375
96.4225762,1.318359375
96.4355845,1.4013671875
96.4816893,1.46484375
96.4819532,1.5234375
96.5035696,1.572265625
96.5194534,1.62109375
96.5600068,1.6455078125
96.5603701,1.66015625
96.5963319,1.6552734375
96.59663,1.630859375
96.6349203,1.611328125
96.6371196,1.5771484375
96.6719836,1.552734375
96.6937586,1.5185546875
96.7009636,1.494140625
96.7196279,1.4599609375
96.7563851,1.435546875
96.7566831,1.40625
96.7918356,1.3916015625
96.7961541,1.3720703125
96.8313975,1.34765625
96.850191,1.3232421875
96.8585973,1.298828125
96.890438,1.26953125
96.9131054,1.2548828125
96.9199146,1.2353515625
96.9353881,1.2109375
96.9782823,1.201171875
96.9787931,1.181640625
97.0127652,1.1669921875
97.0179409,1.15234375
97.0526095,1.142578125
97.0738477,1.1279296875
97.0775917,1.11328125
97.1112991,1.0986328125
97.1317139,1.09375
97.1357348,1.0888671875
97.1700161,1.083984375
97.1957991,1.07421875
97.1960448,1.064453125
97.2333481,1.0595703125
97.2539961,1.0498046875
97.2588261,1.044921875
97.3061996,1.0400390625
97.3121927,1.0400390625
97.3165831,1.0302734375
97.3505455,1.0302734375
97.3722931,1.0302734375
97.3781942,1.0302734375
97.4109179,1.025390625
97.4322523,1.0302734375
97.4424332,1.025390625
97.4621348,1.025390625
97.4775957,1.025390625
97.5123424,1.0302734375
97.517188,1.025390625
97.5522887,1.03515625
97.572604,1.0498046875
97.5795423,1.09375
97.6204789,1.162109375
97.639927,1.23046875
97.6402766,1.3134765625
97.658234,1.38671875
97.6783599,1.4794921875
97.7138652,1.5478515625
97.7329625,1.62109375
97.7378324,1.6748046875
97.7758612,1.728515625
97.7802085,1.7626953125
97.8166815,1.7919921875
97.8169447,1.796875
97.8372966,1.787109375
97.8731757,1.7626953125
97.8780567,1.71875
97.9120792,1.6748046875
97.9342768,1.630859375
97.9411103,1.5966796875
97.9825403,1.552734375
97.9831137,1.5185546875
97.9996289,1.484375
98.0353644,1.4501953125
98.0549726,1.416015625
98.0594253,1.396484375
98.0866915,1.3671875
98.0990819,1.337890625
98.1482766,1.30859375
98.1486005,1.2841796875
98.1793589,1.2548828125
98.1816475,1.2353515625
98.2186289,1.2109375
98.2190264,1.19140625
98.2388743,1.1767578125
98.2743997,1.162109375
98.2788447,1.142578125
98.3148006,1.1279296875
98.3347198,1.11328125
98.3427384,1.0986328125
98.3626279,1.0888671875
98.3789222,1.07421875
98.4268779,1.0693359375
98.4274217,1.0595703125
98.453586,1.0546875
98.4590284,1.044921875
98.4935293,1.03515625
98.5152404,1.025390625
98.5216773,1.015625
98.5551779,1.005859375
98.5767045,0.99609375
98.5788011,0.99609375
98.6133176,0.99609375
98.634766,0.9912109375
98.6399934,0.986328125
98.6843083,0.9814453125
98.6845593,0.9765625
98.7005674,0.9814453125
98.7342944,0.9716796875
98.7412869,0.9521484375
98.7586424,0.9326171875
98.7946676,0.95703125
98.8276249,0.9619140625
98.8279509,1.0009765625
98.8410735,1.0595703125
98.8757406,1.1328125
98.8829993,1.2158203125
98.9297032,1.298828125
98.9301042,1.3818359375
98.9379305,1.455078125
98.9726884,1.5380859375
98.9944607,1.6015625
99.0017777,1.66015625
99.0444563,1.7041015625
99.0448019,1.73828125
99.0630003,1.7529296875
99.0827427,1.748046875
99.1003756,1.7236328125
99.1360939,1.69921875
99.1386738,1.6650390625
99.1753194,1.62109375
99.1997646,1.5869140625
99.2000171,1.5478515625
99.2369067,1.513671875
99.2632556,1.474609375
99.2682316,1.4453125
99.2801397,1.4111328125
99.299593,1.3916015625
99.3199456,1.3623046875
99.3563563,1.3427734375
99.3760515,1.3134765625
99.3828492,1.2939453125
99.4209944,1.26953125
99.4213899,1.2451171875
99.4395375,1.220703125
99.4718535,1.2109375
99.4809414,1.1962890625
99.5002175,1.1767578125
99.5348627,1.162109375
99.5653613,1.1474609375
99.5656675,1.1328125
99.5837143,1.1181640625
99.6222841,1.103515625
99.6225249,1.0888671875
99.6711978,1.0791015625
99.6881277,1.0693359375
99.6884211,1.064453125
99.6996817,1.0595703125
99.7341345,1.0546875
99.7654563,1.044921875
99.7658609,1.03515625
99.8084043,1.03515625
99.8087622,1.025390625
99.8250592,1.0205078125
99.841068,1.0205078125
99.8747712,1.0302734375
99.8815551,1.0302734375
99.9182296,1.03515625
99.9202506,1.0302734375
99.9544278,1.0302734375
99.979084,1.025390625
99.9838192,1.0302734375
100.0002572,1.025390625
100.0400298,1.0400390625
100.0403489,1.064453125
100.0871033,1.1181640625
100.0875128,1.1865234375
100.1039912,1.2744140625
100.1396015,1.357421875
100.1414203,1.4306640625
100.1744611,1.5087890625
100.195746,1.5771484375
100.1999349,1.650390625
100.2401239,1.7041015625
100.2430698,1.7578125
100.2642543,1.7822265625
100.2828585,1.7919921875
100.3198763,1.77734375
100.32419,1.748046875
100.3442246,1.708984375
100.3654526,1.6455078125
100.3816719,1.5869140625
100.4185026,1.5673828125
100.4228783,1.54296875
100.4579916,1.513671875
100.462375,1.484375
100.4970557,1.455078125
100.517458,1.42578125
100.5245374,1.396484375
100.5688709,1.3623046875
100.5866578,1.3330078125
100.5869519,1.3134765625
100.6029733,1.2890625
100.6464231,1.26953125
100.6467546,1.2451171875
100.6617057,1.2255859375
100.6839823,1.2060546875
100.7206345,1.181640625
100.7209519,1.162109375
100.7550489,1.15234375
100.7759813,1.142578125
100.7812706,1.1279296875
100.815315,1.11328125
100.8356802,1.0986328125
100.8438184,1.0888671875
100.8766188,1.0791015625
100.8976827,1.07421875
100.8997333,1.064453125
100.9339824,1.064453125
100.9577219,1.0546875
100.9616975,1.0546875
100.9985583,1.044921875
101.0026929,1.044921875
101.0366152,1.03515625
101.0658466,1.0302734375
101.0662422,1.0302734375
101.082264,1.0205078125
101.1027696,1.0205078125
101.1223753,1.025390625
101.157677,1.0302734375
101.178068,1.025390625
101.1849395,1.025390625
101.2214677,1.0205078125
101.2218098,1.0205078125
101.2572881,1.0107421875
101.278612,1.015625
101.2810338,1.025390625
101.3020914,1.07421875
101.3414083,1.142578125
101.3712992,1.23046875
101.3717026,1.3134765625
101.3839994,1.4111328125
101.4057013,1.4990234375
