Time,PPG_Signal
0.6741859,1.123046875
0.6963217,1.1572265625
0.7011843,1.2255859375
0.7355723,1.3037109375
0.7397388,1.3623046875
0.7747196,1.40625
0.8006209,1.4208984375
0.8008821,1.4306640625
0.845547,1.42578125
0.8457489,1.4208984375
0.8608316,1.4013671875
0.9089534,1.38671875
0.9092625,1.3720703125
0.9216932,1.34765625
0.9571411,1.328125
0.9778747,1.3037109375
0.9781383,1.298828125
1.0151016,1.2890625
1.0196613,1.2890625
1.0412699,1.2841796875
1.0608628,1.2841796875
1.1128131,1.2744140625
1.1130637,1.2744140625
1.1171804,1.259765625
1.152516,1.2548828125
1.1723874,1.2158203125
1.1785405,1.2109375
1.2141305,1.1962890625
1.2340808,1.1865234375
1.241071,1.171875
1.2793324,1.1474609375
1.2795342,1.1181640625
1.3174445,1.0888671875
1.3387947,1.0595703125
1.3390093,1.03515625
1.3729336,1.03515625
1.3938749,1.0693359375
1.4007881,1.1572265625
1.4350005,1.240234375
1.4570034,1.318359375
1.4644028,1.3623046875
1.4858212,1.3916015625
1.4994897,1.396484375
1.5374555,1.3916015625
1.5424409,1.376953125
1.5613201,1.357421875
1.5999226,1.3330078125
1.6001223,1.3037109375
1.6456521,1.279296875
1.6458494,1.2451171875
1.6654916,1.220703125
1.6798188,1.1962890625
1.7218269,1.19140625
1.7220234,1.1865234375
1.7567998,1.1865234375
1.7618791,1.1767578125
1.7834455,1.171875
1.8037127,1.15234375
1.8467612,1.1328125
1.8471122,1.1083984375
1.8604491,1.103515625
1.8810396,1.0888671875
1.9014289,1.07421875
1.9206862,1.064453125
1.9722418,1.0498046875
1.9725532,1.044921875
1.9821896,1.03515625
2.004567,1.0302734375
2.0247993,1.0205078125
2.0447145,1.0302734375
2.0603594,1.07421875
2.096856,1.1669921875
2.1021316,1.2548828125
2.1223067,1.337890625
2.1419251,1.3818359375
2.1876144,1.4111328125
2.1879608,1.416015625
2.2021202,1.4013671875
2.2363824,1.3720703125
2.2582136,1.3427734375
2.2585599,1.3134765625
2.2924697,1.26953125
2.3136484,1.2353515625
2.3242913,1.2060546875
2.3430048,1.1865234375
2.3895713,1.1767578125
2.3898303,1.1865234375
2.4002979,1.1865234375
2.4509954,1.1962890625
2.4512107,1.201171875
2.4619139,1.1962890625
2.4820176,1.181640625
2.5288443,1.171875
2.5291345,1.162109375
2.5425019,1.142578125
2.5787209,1.1279296875
2.6068913,1.11328125
2.6071546,1.103515625
2.6208812,1.09375
2.6557912,1.09375
2.6847712,1.083984375
2.6850301,1.0888671875
2.7044381,1.103515625
2.7237529,1.1669921875
2.7410602,1.2451171875
2.7782676,1.337890625
2.7813436,1.4013671875
2.8257625,1.4501953125
2.8260723,1.4697265625
2.8431874,1.4697265625
2.888437,1.455078125
2.8886492,1.4306640625
2.9037796,1.40625
2.9238538,1.3623046875
2.9663918,1.3232421875
2.9665908,1.2890625
2.9823623,1.2646484375
3.0190527,1.25
3.0410395,1.2548828125
3.0456685,1.2548828125
3.064765,1.259765625
3.1012884,1.259765625
3.1043981,1.25
3.137923,1.2353515625
3.1422125,1.23046875
3.1938581,1.220703125
3.1941823,1.201171875
3.2048143,1.181640625
3.2236351,1.1669921875
3.2699715,1.15234375
3.2702873,1.1376953125
3.2896077,1.1328125
3.3016539,1.123046875
3.3487254,1.1376953125
3.3490781,1.1865234375
3.3793437,1.2744140625
3.3846693,1.357421875
3.4048882,1.435546875
3.4405646,1.4794921875
3.4456282,1.5087890625
3.4800568,1.5185546875
3.5023189,1.5087890625
3.5025392,1.4990234375
3.5516041,1.484375
3.5518972,1.4697265625
3.5799067,1.4404296875
3.5819909,1.4111328125
3.6176291,1.38671875
3.6415512,1.3671875
3.6433532,1.3525390625
3.6775697,1.328125
3.697322,1.3232421875
3.7022843,1.3330078125
3.7370236,1.328125
3.7590712,1.3232421875
3.7645054,1.3037109375
3.7845017,1.2890625
3.8216667,1.26953125
3.8239648,1.2451171875
3.8597608,1.220703125
3.8823033,1.1962890625
3.8826235,1.1767578125
3.9193171,1.1669921875
3.9244173,1.162109375
3.9712877,1.171875
3.9716521,1.2255859375
3.9909839,1.298828125
4.005193,1.376953125
4.0220645,1.4306640625
4.0634605,1.474609375
4.0639974,1.494140625
4.0859211,1.4990234375
4.1048352,1.4990234375
4.1395259,1.4794921875
4.1595988,1.4697265625
4.1659983,1.4501953125
4.2044458,1.4306640625
4.2047355,1.40625
4.2231114,1.3916015625
4.2432223,1.376953125
4.2818304,1.3720703125
4.3041433,1.3623046875
4.3044317,1.3623046875
4.3443404,1.357421875
4.3751168,1.34765625
4.3753514,1.337890625
4.3833345,1.328125
4.4196136,1.318359375
4.4214991,1.3134765625
4.4691231,1.298828125
4.4694755,1.2841796875
4.5003454,1.26953125
4.5060328,1.2548828125
4.5450718,1.240234375
4.5453379,1.2255859375
4.5799052,1.2255859375
4.5998819,1.25
4.6040578,1.3037109375
4.6403772,1.357421875
4.644567,1.4111328125
4.685488,1.4404296875
4.685834,1.46484375
4.7054611,1.46484375
4.7393827,1.46484375
4.7612512,1.4599609375
4.7615097,1.4453125
4.7960601,1.435546875
4.8181514,1.416015625
4.8249908,1.4013671875
4.8595387,1.3818359375
4.8789486,1.3671875
4.8859494,1.3525390625
4.931951,1.34765625
4.9322955,1.337890625
4.9520901,1.34765625
4.9635229,1.34765625
5.010125,1.3427734375
5.0104487,1.3330078125
5.0241361,1.3232421875
5.0590249,1.3037109375
5.0894396,1.2890625
5.0901966,1.26953125
5.1046801,1.25
5.1238964,1.2353515625
5.1662799,1.220703125
5.1666303,1.201171875
5.1859206,1.1865234375
5.2200339,1.1767578125
5.2425453,1.181640625
5.2474123,1.2255859375
5.2669295,1.279296875
5.2878905,1.3134765625
5.3047945,1.337890625
5.3411567,1.38671875
5.3465137,1.40625
5.3651521,1.4208984375
5.4131536,1.4208984375
5.4134732,1.416015625
5.4329671,1.40625
5.4459052,1.3916015625
5.4790773,1.3818359375
5.5011611,1.3623046875
5.5042213,1.34765625
5.5264036,1.337890625
5.5602025,1.3330078125
5.5663621,1.3232421875
5.6157357,1.3232421875
5.6160781,1.318359375
5.635907,1.3134765625
5.6428483,1.3037109375
5.6795081,1.2939453125
5.6993953,1.279296875
5.7055138,1.2744140625
5.7418005,1.259765625
5.7458287,1.240234375
5.7795583,1.2255859375
5.8007681,1.2060546875
5.8061245,1.19140625
5.8241349,1.1767578125
5.8633151,1.1669921875
5.8636589,1.1572265625
5.8878829,1.15234375
5.9058011,1.1767578125
5.9413563,1.23046875
5.9617037,1.2890625
5.9661197,1.3525390625
5.9830781,1.3916015625
6.0168319,1.4208984375
6.0384037,1.4404296875
6.046334,1.435546875
6.0887503,1.4306640625
6.089035,1.416015625
6.1079577,1.4111328125
6.1444861,1.3916015625
6.1466744,1.3720703125
6.1824011,1.3525390625
6.2029784,1.3330078125
6.2048007,1.3232421875
6.2390852,1.3232421875
6.2608894,1.3232421875
6.2694218,1.3232421875
6.2875342,1.318359375
6.3270742,1.3134765625
6.3276325,1.298828125
6.3665429,1.2939453125
6.3668031,1.279296875
6.3849363,1.2646484375
6.4232651,1.259765625
6.4284781,1.2451171875
6.4474421,1.2353515625
6.4903257,1.2255859375
6.4905623,1.2158203125
6.5101404,1.2060546875
6.5453349,1.1962890625
6.5456228,1.19140625
6.5824213,1.2158203125
6.5849394,1.259765625
6.6252145,1.3134765625
6.6255004,1.3525390625
6.6745861,1.38671875
6.6748665,1.4111328125
6.6902803,1.4208984375
6.7095941,1.4208984375
6.7259333,1.4111328125
6.7677895,1.416015625
6.7680507,1.40625
6.7867603,1.4013671875
6.8231251,1.376953125
6.8464319,1.3623046875
6.8467965,1.337890625
6.8922406,1.328125
6.8925293,1.3134765625
6.9088469,1.3134765625
6.9264103,1.2841796875
6.961438,1.2890625
6.9810761,1.2841796875
6.9860619,1.2939453125
7.0218728,1.2890625
7.0428076,1.2744140625
7.0486836,1.259765625
7.0864845,1.2451171875
7.1068778,1.2353515625
7.1070805,1.2255859375
7.1414344,1.2255859375
7.1734045,1.2158203125
7.1737673,1.2109375
7.1871777,1.2060546875
7.220195,1.201171875
7.2409378,1.201171875
7.2494336,1.23046875
7.2645353,1.2646484375
7.2983474,1.3134765625
7.3194733,1.3525390625
7.3286078,1.3720703125
7.366531,1.38671875
7.3684931,1.3916015625
7.4019074,1.3916015625
7.4226437,1.376953125
7.4309002,1.3671875
7.4457079,1.3525390625
7.4816381,1.337890625
7.5112076,1.318359375
7.5118413,1.3037109375
7.5285158,1.2890625
7.5647493,1.2841796875
7.5698755,1.2744140625
7.6112886,1.2744140625
7.6116473,1.26953125
7.627606,1.2744140625
7.6729344,1.26953125
7.6732535,1.259765625
7.6860521,1.25
7.7268956,1.2353515625
7.727259,1.220703125
7.7597936,1.2109375
7.7808355,1.1962890625
7.790366,1.181640625
7.8107797,1.171875
7.827132,1.1572265625
7.863665,1.1474609375
7.8686343,1.1376953125
7.907232,1.1328125
7.9074649,1.1279296875
7.9457336,1.15234375
7.9696998,1.201171875
7.9700272,1.2548828125
8.0153755,1.3037109375
8.0155771,1.337890625
8.0451355,1.3720703125
8.0470318,1.376953125
8.0935169,1.3818359375
8.0937145,1.376953125
8.1100642,1.3671875
8.1449651,1.3525390625
8.1500633,1.337890625
8.1668925,1.318359375
8.2023476,1.3037109375
8.2072688,1.2890625
8.2408125,1.279296875
8.2616881,1.2744140625
8.2702907,1.2744140625
8.3127037,1.2744140625
8.3130445,1.26953125
8.3316091,1.2646484375
8.3470093,1.2548828125
8.3962334,1.2451171875
8.3964381,1.23046875
8.409895,1.220703125
8.4591912,1.2060546875
8.4594064,1.1865234375
8.4703091,1.171875
8.5069235,1.1572265625
8.5071203,1.142578125
8.5260358,1.142578125
8.5616091,1.1328125
8.5834237,1.1279296875
8.5907461,1.123046875
8.6093529,1.103515625
8.6476618,1.103515625
8.6504483,1.11328125
8.6859116,1.1669921875
8.7054295,1.220703125
8.7130334,1.279296875
8.7279861,1.318359375
8.7644905,1.34765625
8.7888098,1.3623046875
8.7891817,1.3720703125
8.8344887,1.3720703125
8.8347007,1.3623046875
8.8504775,1.3525390625
8.8885053,1.337890625
8.88886,1.318359375
8.9261227,1.30859375
8.928276,1.2939453125
8.9638413,1.2841796875
8.9912877,1.279296875
8.9915837,1.2744140625
9.038825,1.26953125
9.0390897,1.26953125
9.0514339,1.26953125
9.0687218,1.2646484375
9.1052547,1.259765625
9.1097679,1.25
9.1289183,1.2353515625
9.1644907,1.220703125
9.195165,1.2060546875
9.1953996,1.1865234375
9.2121181,1.171875
9.2475286,1.162109375
9.2480272,1.142578125
9.296124,1.1376953125
9.2964036,1.1279296875
9.3263061,1.1279296875
9.3308381,1.1181640625
9.3729697,1.11328125
9.3732989,1.0986328125
9.4088362,1.0986328125
9.4115096,1.103515625
9.4478752,1.1328125
9.4825815,1.201171875
9.4828432,1.2744140625
9.4914612,1.3232421875
9.512066,1.357421875
9.5598542,1.3720703125
9.5604164,1.38671875
9.5713916,1.38671875
9.6062371,1.376953125
9.6279416,1.3671875
9.6282774,1.3525390625
9.6711812,1.337890625
9.6714469,1.318359375
9.7020207,1.30859375
9.7114426,1.2939453125
9.7319866,1.2841796875
9.766685,1.279296875
9.7883301,1.2744140625
9.7887188,1.26953125
9.8270656,1.26953125
9.8475372,1.259765625
9.8495486,1.25
9.8858961,1.240234375
9.9203723,1.2158203125
9.9205732,1.201171875
9.9328596,1.1767578125
9.9679139,1.162109375
9.9981493,1.142578125
9.9984269,1.1279296875
10.0123748,1.1181640625
10.0305121,1.1083984375
10.0690628,1.0986328125
10.0993328,1.0986328125
10.0995956,1.0888671875
10.1131691,1.0791015625
10.129919,1.064453125
10.1495667,1.0595703125
10.1852833,1.0595703125
10.2067392,1.0888671875
10.2096671,1.1572265625
10.2468592,1.2255859375
10.2667031,1.2939453125
10.2744722,1.3330078125
10.2922452,1.3623046875
10.3289923,1.3720703125
10.3334117,1.376953125
10.3512515,1.3720703125
10.3945793,1.3720703125
10.3948142,1.3623046875
10.4110275,1.34765625
10.455167,1.3330078125
10.4553774,1.318359375
10.4885998,1.298828125
10.492713,1.2890625
10.53662,1.2841796875
10.537015,1.2744140625
10.5659093,1.26953125
10.5699388,1.26953125
10.6058546,1.2646484375
10.6302943,1.259765625
10.6305937,1.25
10.6674776,1.2353515625
10.689775,1.220703125
10.6901806,1.201171875
10.7382932,1.19140625
10.738621,1.1767578125
10.7501583,1.1669921875
10.7839398,1.1474609375
10.8178659,1.1376953125
10.8182135,1.1181640625
10.8327016,1.11328125
10.8761663,1.1083984375
10.8764986,1.09375
10.8986671,1.0888671875
10.9106611,1.0791015625
10.9468681,1.07421875
10.9719456,1.0693359375
10.9722209,1.103515625
11.0075196,1.162109375
11.0273376,1.2353515625
11.0348103,1.2841796875
11.0541117,1.3037109375
11.0719883,1.3037109375
11.1104405,1.3427734375
11.1106478,1.357421875
11.1430967,1.3623046875
11.1632422,1.3671875
11.1737739,1.357421875
11.2187746,1.34765625
11.2194726,1.328125
11.2398875,1.318359375
11.2499823,1.3037109375
11.2820482,1.298828125
11.3033997,1.2890625
11.3115162,1.2841796875
11.3439551,1.279296875
11.366627,1.279296875
11.3733471,1.26953125
11.4064511,1.2646484375
11.4367919,1.25
11.4371169,1.240234375
11.4528329,1.2255859375
11.471877,1.2158203125
11.5073616,1.201171875
11.527269,1.181640625
11.5336667,1.1669921875
11.567428,1.15234375
11.5901946,1.1376953125
11.5905973,1.123046875
11.6364853,1.123046875
11.6367773,1.1181640625
11.6529154,1.1083984375
11.6990173,1.0986328125
11.6993816,1.0888671875
11.7149044,1.07421875
11.7367774,1.0693359375
11.7531587,1.083984375
11.771632,1.1376953125
11.8084688,1.2158203125
11.8126349,1.279296875
11.8511875,1.337890625
11.8530723,1.3671875
11.8874628,1.3916015625
11.9079213,1.396484375
11.9142022,1.396484375
11.9485526,1.3818359375
11.9769608,1.376953125
11.977274,1.357421875
11.9928712,1.34765625
12.0384789,1.328125
12.0386783,1.318359375
12.0530285,1.298828125
12.1008898,1.2939453125
12.1011898,1.2841796875
12.1212434,1.2890625
12.1348345,1.2890625
12.1511166,1.279296875
12.184418,1.2744140625
12.2046012,1.2646484375
12.2136222,1.2548828125
12.249274,1.2353515625
12.2702805,1.220703125
12.2765261,1.201171875
12.3137405,1.181640625
12.314056,1.162109375
12.3479033,1.1474609375
12.3518657,1.1376953125
12.3870925,1.1328125
12.4076171,1.1181640625
12.4138297,1.11328125
12.4539758,1.1083984375
12.4722335,1.09375
12.4741951,1.0888671875
12.4911077,1.07421875
12.5294519,1.0693359375
12.5346324,1.064453125
12.5693547,1.0791015625
12.5750781,1.1181640625
12.6104818,1.1962890625
12.615389,1.2646484375
12.6492705,1.3330078125
12.6703243,1.3720703125
12.6767306,1.3720703125
12.6954387,1.357421875
12.7133553,1.376953125
12.7656086,1.376953125
12.7658096,1.3818359375
12.7943002,1.376953125
12.7945631,1.357421875
12.8297778,1.337890625
12.8576948,1.318359375
12.8579059,1.3037109375
12.873483,1.2890625
12.90933,1.2890625
12.9136,1.2841796875
12.9500078,1.2841796875
12.9790311,1.279296875
12.979267,1.26953125
12.9966027,1.259765625
13.0422894,1.25
13.0424926,1.23046875
13.0642096,1.2158203125
13.0750487,1.19140625
13.0936531,1.1669921875
13.1299178,1.1474609375
13.1508811,1.1376953125
13.1552119,1.1328125
13.1919607,1.123046875
13.1961698,1.11328125
13.21198,1.103515625
13.2488182,1.0986328125
13.2539753,1.09375
13.2729225,1.09375
13.3151524,1.0791015625
13.3154123,1.07421875
13.3367199,1.064453125
13.3779624,1.064453125
13.3782459,1.083984375
13.3949497,1.1572265625
13.4400282,1.25
13.4402353,1.3232421875
13.4559044,1.3818359375
13.5022864,1.416015625
13.502569,1.4306640625
13.5168262,1.4306640625
13.5648299,1.4208984375
13.5651175,1.4111328125
13.5782018,1.3916015625
13.5930024,1.3720703125
13.6295266,1.357421875
13.6335462,1.3330078125
13.6693418,1.318359375
13.6902881,1.298828125
13.6984834,1.2939453125
13.7330941,1.2939453125
13.7380784,1.2841796875
13.7716368,1.279296875
13.796308,1.26953125
13.7965068,1.2646484375
13.8147288,1.2548828125
13.8574998,1.2451171875
13.8578395,1.2255859375
13.8777148,1.2060546875
13.899046,1.181640625
13.9177706,1.1669921875
13.9337158,1.142578125
13.9826279,1.1328125
13.9828928,1.1181640625
14.0025021,1.11328125
14.0158563,1.103515625
14.0501918,1.0986328125
14.0709425,1.09375
14.0780979,1.0791015625
14.123355,1.0693359375
14.1235515,1.064453125
14.1344634,1.0693359375
14.1701888,1.103515625
14.1897419,1.1767578125
14.1967671,1.2548828125
14.2316051,1.328125
14.2536838,1.3818359375
14.2578036,1.416015625
14.2751103,1.42578125
14.3107619,1.435546875
14.3127602,1.42578125
14.3500602,1.416015625
14.3540846,1.40625
14.3883286,1.3818359375
14.4101606,1.357421875
14.4159103,1.328125
14.4505168,1.30859375
14.4701611,1.2890625
14.4791853,1.2841796875
14.494168,1.2744140625
14.5281029,1.279296875
14.5480726,1.2744140625
14.5551332,1.279296875
14.5918293,1.2646484375
14.6215534,1.2548828125
14.6217583,1.240234375
14.6395608,1.220703125
14.6542192,1.1962890625
14.69857,1.1865234375
14.6989136,1.171875
14.7182629,1.1572265625
14.7361325,1.1474609375
14.7683924,1.1376953125
14.7906673,1.1279296875
14.7977713,1.1181640625
14.8336945,1.11328125
14.8338983,1.0986328125
14.8693453,1.09375
14.8900894,1.09375
14.8963759,1.1083984375
14.932631,1.1572265625
14.9381034,1.240234375
14.9738924,1.30859375
14.9799497,1.3720703125
15.014755,1.4111328125
15.0149628,1.4306640625
15.0492572,1.4404296875
15.0716146,1.435546875
15.0760058,1.4306640625
15.1174111,1.4208984375
15.117611,1.40625
15.1630716,1.38671875
15.1634352,1.3671875
15.1855856,1.34765625
15.1990472,1.3330078125
15.215725,1.318359375
15.2559159,1.318359375
15.2561903,1.3134765625
15.2920577,1.3134765625
15.3177885,1.3037109375
15.3181407,1.3037109375
15.3639936,1.2939453125
15.3643587,1.2744140625
15.3842154,1.2548828125
15.3962971,1.240234375
15.4420137,1.220703125
15.442362,1.201171875
15.4617591,1.1865234375
15.4782283,1.171875
15.5219216,1.1572265625
15.5221823,1.142578125
15.5406772,1.1328125
15.5555088,1.1181640625
15.5895494,1.11328125
15.6136515,1.103515625
15.616697,1.0986328125
15.6514598,1.103515625
15.6717632,1.1279296875
15.6779142,1.19140625
15.7114082,1.2646484375
15.7332301,1.3330078125
15.7363063,1.3818359375
15.7563324,1.416015625
15.7922512,1.4306640625
15.8172967,1.4404296875
15.8175708,1.4306640625
15.8609576,1.42578125
15.8612571,1.4111328125
15.9087792,1.4013671875
15.9090456,1.3818359375
15.9164832,1.3671875
15.9505684,1.3427734375
15.9733165,1.3330078125
15.978563,1.3232421875
16.0000733,1.3134765625
16.0181959,1.30859375
16.0547906,1.3037109375
16.0609433,1.2939453125
16.0814927,1.2841796875
16.1219971,1.2744140625
16.1221969,1.2548828125
16.1381679,1.2353515625
16.1732677,1.220703125
16.1782233,1.2060546875
16.2130107,1.1865234375
16.2327841,1.1767578125
16.2397074,1.162109375
16.2769949,1.15234375
16.2789833,1.142578125
16.2968003,1.1279296875
16.3177789,1.123046875
16.3555966,1.1083984375
16.3749665,1.103515625
16.3769535,1.09375
16.410344,1.0888671875
16.431937,1.1083984375
16.4426325,1.171875
16.4590787,1.2353515625
16.4782104,1.30859375
16.5003841,1.3623046875
16.5388212,1.396484375
16.5390313,1.4111328125
16.5733609,1.4208984375
16.6005977,1.4111328125
16.600819,1.40625
16.6186419,1.396484375
16.662958,1.376953125
16.6631695,1.3671875
16.6782365,1.34765625
16.7251463,1.328125
16.7255008,1.3134765625
16.7451358,1.3037109375
16.7581306,1.298828125
16.7917013,1.2939453125
16.8184105,1.2890625
16.8214166,1.259765625
16.8379514,1.2353515625
16.8719617,1.240234375
16.8921848,1.2353515625
16.8981147,1.23046875
16.9351596,1.220703125
16.9382514,1.2060546875
16.9742996,1.19140625
17.0048708,1.171875
17.0051829,1.162109375
17.019092,1.1474609375
17.0384485,1.142578125
17.0808538,1.1328125
17.0810828,1.1328125
17.1004286,1.1181640625
17.142953,1.1083984375
17.1433434,1.0986328125
17.1777067,1.0986328125
17.1779733,1.1083984375
17.2207968,1.1669921875
17.2211421,1.2353515625
17.2403108,1.3134765625
17.2826666,1.3720703125
17.2831801,1.40625
17.3002094,1.42578125
17.3204625,1.42578125
17.362427,1.4208984375
17.3627726,1.4111328125
17.3926273,1.40625
17.3989312,1.3916015625
17.4391828,1.3818359375
17.4393799,1.3623046875
17.4842148,1.3427734375
17.4845328,1.328125
17.5013882,1.318359375
17.5176056,1.3134765625
17.5556173,1.3134765625
17.5605288,1.318359375
17.580064,1.30859375
17.5994806,1.298828125
17.6377796,1.2841796875
17.6380548,1.2744140625
17.6831406,1.25
17.6833962,1.23046875
17.7033213,1.2060546875
17.7389865,1.1865234375
17.7392632,1.162109375
17.7743723,1.1572265625
17.7793949,1.142578125
17.8146596,1.1376953125
17.8351476,1.1279296875
17.8411816,1.123046875
17.8852021,1.1083984375
17.8854609,1.0986328125
17.9065546,1.0888671875
17.9204548,1.0791015625
17.9614515,1.0888671875
17.9617506,1.123046875
17.9965253,1.1962890625
18.0020444,1.2646484375
18.0407728,1.3330078125
18.0410765,1.376953125
18.0790515,1.40625
18.0793715,1.4111328125
18.1181392,1.4111328125
18.1183579,1.40625
18.1553675,1.4013671875
18.181272,1.38671875
18.1816174,1.3671875
18.2146299,1.34765625
18.2362699,1.3232421875
18.2431684,1.298828125
18.2584942,1.2841796875
18.2933901,1.2841796875
18.3241472,1.2841796875
18.3246526,1.2890625
18.340413,1.2841796875
18.3766952,1.279296875
18.4002215,1.2646484375
18.4021365,1.2548828125
18.421616,1.2353515625
18.4431421,1.1962890625
18.4606927,1.1572265625
18.4800996,1.1572265625
18.5148334,1.142578125
18.5371187,1.142578125
18.5420443,1.1376953125
18.5618578,1.1279296875
18.5982303,1.1181640625
18.6028823,1.1083984375
18.6395335,1.0986328125
18.6397509,1.0888671875
18.6754752,1.083984375
18.7071093,1.07421875
18.7073448,1.07421875
18.7227477,1.0791015625
18.7710111,1.1279296875
18.7712088,1.1962890625
18.7838428,1.279296875
18.8027758,1.337890625
18.8200551,1.38671875
18.8657543,1.4208984375
18.8661566,1.4306640625
18.8806583,1.4306640625
18.9170786,1.4208984375
18.9425012,1.4111328125
18.9428414,1.396484375
18.978438,1.376953125
19.004736,1.357421875
19.0049402,1.337890625
19.0205407,1.3232421875
19.0586989,1.318359375
19.063454,1.30859375
19.0816315,1.30859375
19.1204415,1.298828125
19.152671,1.2939453125
19.1528816,1.279296875
19.1611002,1.2744140625
19.2002734,1.259765625
19.2005873,1.240234375
19.2458746,1.2255859375
19.2462189,1.2060546875
19.2676792,1.1865234375
19.2836712,1.1669921875
19.3228108,1.1572265625
19.3230815,1.1474609375
19.3571134,1.1376953125
19.38601,1.123046875
19.3862112,1.1181640625
19.4008909,1.11328125
19.4371741,1.103515625
19.4693046,1.09375
19.4696099,1.083984375
19.4840058,1.0888671875
19.5297546,1.1083984375
19.5299533,1.171875
19.5516855,1.240234375
19.5610902,1.318359375
19.5970573,1.3720703125
19.6227072,1.4111328125
19.6231556,1.42578125
19.6439746,1.4306640625
19.6836501,1.4208984375
19.6841508,1.416015625
19.7011567,1.396484375
19.7339858,1.3818359375
19.7545397,1.3623046875
19.761989,1.3427734375
19.8105919,1.318359375
19.8108058,1.3134765625
19.8247148,1.3037109375
19.8599787,1.298828125
19.8642406,1.2890625
19.8791807,1.2841796875
19.9144873,1.279296875
19.9358335,1.26953125
19.9434734,1.259765625
19.9784912,1.240234375
19.9825176,1.2255859375
20.0185319,1.2060546875
20.0435386,1.181640625
20.0438143,1.1669921875
20.0637958,1.15234375
20.0801118,1.11328125
20.1169326,1.1083984375
20.1378091,1.1083984375
20.1428656,1.103515625
20.1865388,1.0986328125
20.1868214,1.0888671875
20.2041372,1.083984375
20.2390844,1.07421875
20.260585,1.0693359375
20.2624787,1.07421875
20.3020067,1.123046875
20.3022114,1.19140625
20.3399555,1.279296875
20.3418109,1.3427734375
20.3813309,1.3916015625
20.3854369,1.416015625
20.4062889,1.4306640625
20.4216091,1.42578125
20.4431784,1.42578125
20.4790586,1.416015625
20.4839653,1.396484375
20.5214302,1.3818359375
20.5267812,1.357421875
20.5444025,1.337890625
20.586155,1.318359375
20.5863547,1.30859375
20.6011496,1.298828125
20.6366663,1.298828125
20.6647751,1.298828125
20.6650708,1.2939453125
20.6979319,1.2841796875
20.7279501,1.279296875
20.728308,1.259765625
20.7449013,1.240234375
20.7886371,1.220703125
20.7890381,1.201171875
20.8091212,1.1865234375
20.8216099,1.171875
20.8575917,1.162109375
20.8773591,1.1474609375
20.884362,1.1376953125
20.9272672,1.123046875
20.9276123,1.1181640625
20.9477433,1.103515625
20.9676292,1.0986328125
20.9835102,1.083984375
21.0190139,1.0888671875
21.0239215,1.1083984375
21.060107,1.1669921875
21.0839162,1.2353515625
21.0841937,1.3134765625
21.1292149,1.3720703125
21.1294724,1.4013671875
21.1500789,1.4208984375
21.1625423,1.4208984375
21.199341,1.4208984375
21.2202201,1.4111328125
21.2241502,1.4013671875
21.2605783,1.3818359375
21.264681,1.3623046875
21.313849,1.337890625
21.3141292,1.3134765625
21.3357955,1.298828125
21.3432435,1.3037109375
21.3917907,1.3037109375
21.3925521,1.30859375
21.4214063,1.3134765625
21.4233703,1.3037109375
21.4598002,1.2939453125
21.4642431,1.279296875
21.500809,1.2646484375
21.520203,1.2451171875
21.5221605,1.23046875
21.5563985,1.2109375
21.5783621,1.1962890625
21.5850733,1.1767578125
21.6250767,1.171875
21.625392,1.15234375
21.6710458,1.1474609375
21.6712644,1.1328125
21.6928558,1.123046875
21.7042802,1.11328125
21.7402185,1.1083984375
21.7425797,1.103515625
21.7767628,1.103515625
21.7983048,1.1474609375
21.8069489,1.2109375
21.8502592,1.2841796875
21.8505555,1.3427734375
21.8673678,1.3916015625
21.8834573,1.416015625
21.9192357,1.4306640625
21.923459,1.4306640625
21.9585818,1.42578125
21.9782989,1.4111328125
21.9856224,1.4013671875
22.0212985,1.376953125
22.0410585,1.357421875
22.0500626,1.337890625
22.0638575,1.318359375
22.1034326,1.30859375
22.1037001,1.3037109375
22.1240696,1.3037109375
22.1654933,1.298828125
22.1656956,1.2939453125
22.2023099,1.2841796875
22.2071393,1.2744140625
22.2246478,1.2548828125
22.2593739,1.2451171875
22.2642816,1.2255859375
22.3000774,1.2109375
22.3041276,1.19140625
22.3390154,1.1767578125
22.3678127,1.1572265625
22.36802,1.15234375
22.414722,1.142578125
22.4152388,1.1328125
22.4458539,1.123046875
22.4461981,1.1181640625
22.4822807,1.11328125
22.4864217,1.11328125
22.5215564,1.1279296875
22.5269014,1.1767578125
22.5624351,1.2451171875
22.5671592,1.30859375
22.6042909,1.3330078125
22.6341664,1.3671875
22.6345283,1.396484375
22.6447686,1.40625
22.6781627,1.4013671875
22.6992542,1.4013671875
22.7069068,1.3818359375
22.7448453,1.3671875
22.7512646,1.3427734375
22.7690178,1.3232421875
22.7848057,1.3037109375
22.8298719,1.2939453125
22.8301521,1.2890625
22.8458102,1.2890625
22.8812302,1.2890625
22.9081734,1.2890625
22.9085182,1.2841796875
22.9543693,1.279296875
22.9546524,1.2646484375
22.9743504,1.259765625
22.9846983,1.240234375
23.0174689,1.2255859375
23.0379618,1.2158203125
23.0473527,1.1962890625
23.0908335,1.1865234375
23.0911374,1.1669921875
23.1094134,1.162109375
23.124785,1.142578125
23.1450505,1.1376953125
23.1843431,1.1279296875
23.1845516,1.1279296875
23.2331411,1.1279296875
23.2334549,1.1669921875
23.2631417,1.2255859375
23.2679897,1.2939453125
23.2849277,1.3427734375
23.3220241,1.38671875
23.3262238,1.4208984375
23.346067,1.4306640625
23.3859662,1.4306640625
23.3862532,1.4306640625
23.4216748,1.4306640625
23.448497,1.4208984375
23.4488111,1.4111328125
23.4950243,1.3916015625
23.4952258,1.3720703125
23.5060214,1.3525390625
23.5261226,1.3427734375
23.5601981,1.3330078125
23.5811887,1.3330078125
23.586018,1.328125
23.6371637,1.3232421875
23.6374532,1.3134765625
23.6493708,1.30859375
23.6849558,1.298828125
23.6853268,1.2841796875
23.7312902,1.2744140625
23.7314985,1.259765625
23.7627874,1.2451171875
23.7675154,1.2255859375
23.8106651,1.2158203125
23.8108789,1.201171875
23.8472123,1.1865234375
23.8474316,1.1669921875
23.8854893,1.162109375
23.885769,1.15234375
23.9228279,1.1572265625
23.9268495,1.1767578125
23.9705451,1.23046875
23.9707689,1.2939453125
24.0168306,1.337890625
24.0170297,1.376953125
24.0262003,1.396484375
24.0613931,1.416015625
24.096002,1.416015625
24.0962619,1.416015625
24.1097965,1.4111328125
24.1277016,1.40625
24.1628394,1.3916015625
24.1895635,1.3818359375
24.1898356,1.357421875
24.2114398,1.318359375
24.2278515,1.279296875
24.247169,1.2841796875
24.2965408,1.2890625
24.2967437,1.2939453125
24.3065136,1.298828125
24.3412643,1.298828125
24.362834,1.2890625
24.3691737,1.279296875
24.4118091,1.2646484375
24.4120678,1.2548828125
24.4446141,1.2451171875
24.4492761,1.23046875
24.4900917,1.220703125
24.4903335,1.201171875
24.5213417,1.19140625
24.5307516,1.171875
24.5508916,1.162109375
24.5671049,1.1474609375
24.6034155,1.1376953125
24.608681,1.1328125
24.6468202,1.1376953125
24.6471124,1.1669921875
24.6839809,1.2158203125
24.6899366,1.279296875
24.7265367,1.3232421875
24.7314675,1.3623046875
24.7468339,1.376953125
24.7674106,1.3916015625
24.8169451,1.3916015625
24.8171592,1.3916015625
24.8289761,1.3818359375
24.8811659,1.376953125
24.8816404,1.3623046875
24.8882683,1.3427734375
24.9059135,1.318359375
24.9414021,1.30859375
24.9605503,1.298828125
24.967111,1.2939453125
25.0043955,1.2890625
25.0085096,1.2841796875
25.0512656,1.279296875
25.0515246,1.2744140625
25.0974522,1.2646484375
25.0979911,1.25
25.1102873,1.23046875
25.1270964,1.2109375
25.1761038,1.1962890625
25.1764562,1.181640625
25.2072405,1.1669921875
25.2074536,1.15234375
25.2416531,1.1376953125
25.2621642,1.1328125
25.2699344,1.1181640625
25.3091105,1.1083984375
25.3093222,1.0888671875
25.3490905,1.083984375
25.3492906,1.07421875
25.3955685,1.0791015625
25.3958138,1.0986328125
25.4257255,1.162109375
25.4301289,1.2255859375
25.4724138,1.298828125
25.4733081,1.3427734375
25.488143,1.3818359375
25.5334486,1.396484375
25.533659,1.40625
25.5494409,1.396484375
25.5880271,1.3916015625
25.5883728,1.3818359375
25.6285763,1.3671875
25.6483177,1.3427734375
25.6486013,1.3232421875
25.6709175,1.3037109375
25.6892275,1.2939453125
25.7261959,1.2890625
25.7311189,1.2841796875
25.7510313,1.2841796875
25.8006382,1.279296875
25.8009113,1.2744140625
25.8073802,1.2646484375
25.8566987,1.2548828125
25.8569133,1.2109375
25.8876063,1.2060546875
25.8894286,1.1962890625
25.9244696,1.181640625
25.928416,1.171875
25.9636766,1.1572265625
25.9853507,1.1474609375
25.9919999,1.1328125
26.0417873,1.123046875
26.0420599,1.1083984375
26.0479121,1.103515625
26.0846269,1.09375
26.0897992,1.0888671875
26.1354241,1.0791015625
26.1357376,1.083984375
26.1517505,1.1083984375
26.1881104,1.1767578125
26.1883726,1.240234375
26.2287193,1.3134765625
26.2290727,1.3623046875
26.2492764,1.38671875
26.2847714,1.4013671875
26.3077423,1.4013671875
26.3099036,1.396484375
26.3454838,1.3818359375
26.3701171,1.3720703125
26.3703342,1.34765625
26.4058162,1.3330078125
26.4123277,1.30859375
26.4478674,1.2939453125
26.4481662,1.279296875
26.4825669,1.2841796875
26.5038601,1.279296875
26.5105318,1.279296875
26.5444164,1.279296875
26.5649396,1.2646484375
26.569208,1.259765625
26.6064431,1.2451171875
26.6107837,1.23046875
26.6314074,1.2109375
26.6831243,1.1865234375
26.683472,1.1669921875
26.6905663,1.1474609375
26.7272255,1.1279296875
26.7603258,1.11328125
26.7606242,1.09375
26.7694857,1.0888671875
26.8072032,1.0791015625
26.8127661,1.07421875
26.8314794,1.0595703125
26.8683327,1.0546875
26.87368,1.0498046875
26.9225475,1.0400390625
26.9228639,1.064453125
26.9289841,1.123046875
26.9746931,1.2109375
26.9749019,1.279296875
26.9918263,1.34765625
27.0381479,1.3818359375
27.0384612,1.4013671875
27.0688377,1.40625
27.0737542,1.4013671875
27.0888268,1.3916015625
27.1289346,1.376953125
27.1291335,1.357421875
27.1688724,1.3330078125
27.1997428,1.3134765625
27.2000567,1.2890625
27.2124718,1.2744140625
27.2531667,1.259765625
27.2533638,1.2646484375
27.2712729,1.259765625
27.2894632,1.259765625
27.3310994,1.2548828125
27.3313001,1.25
27.3511698,1.2353515625
27.3874157,1.220703125
27.4112223,1.1962890625
27.4115505,1.181640625
27.4561692,1.1572265625
27.4563721,1.142578125
27.4700762,1.1279296875
27.5190781,1.1279296875
27.5196439,1.1181640625
27.5402587,1.11328125
27.5533463,1.103515625
27.5963115,1.09375
27.5966868,1.083984375
27.6130825,1.0791015625
27.6492491,1.0791015625
27.6699248,1.0986328125
27.6701485,1.1669921875
27.7125658,1.2451171875
27.7127648,1.318359375
27.7342483,1.3671875
27.7519692,1.40625
27.786955,1.4208984375
27.8088039,1.4208984375
27.8159151,1.4208984375
27.8315303,1.4013671875
27.8517235,1.38671875
27.8703489,1.3623046875
27.9045129,1.337890625
27.924354,1.30859375
27.9328373,1.2841796875
27.9847756,1.2646484375
27.9850068,1.2646484375
27.9910894,1.259765625
28.0323157,1.26953125
28.0325754,1.26953125
28.0683711,1.26953125
28.072792,1.259765625
28.0923976,1.2451171875
28.1409267,1.2255859375
28.1411276,1.2158203125
28.1535821,1.201171875
28.1703846,1.181640625
28.2050902,1.1669921875
28.2266013,1.1572265625
28.2328932,1.142578125
28.2819048,1.1328125
28.2822645,1.123046875
28.2936034,1.1083984375
28.3294484,1.0986328125
28.334798,1.0888671875
28.3756224,1.07421875
28.3758924,1.1181640625
28.3968778,1.201171875
28.4117314,1.279296875
28.4541664,1.3525390625
28.4543725,1.40625
28.5007791,1.4306640625
28.5009798,1.4404296875
28.5144881,1.4404296875
28.5499189,1.4404296875
28.5504649,1.42578125
28.5729914,1.4208984375
28.5925548,1.40625
28.6299919,1.38671875
28.6330207,1.3623046875
28.6707621,1.34765625
28.6748985,1.328125
28.7178862,1.318359375
28.7183368,1.3134765625
28.7323597,1.3134765625
28.7534841,1.30859375
28.7740095,1.3134765625
28.8116023,1.3037109375
28.8134638,1.2890625
28.8490645,1.2744140625
28.8735766,1.2548828125
28.8738981,1.2353515625
28.907843,1.2109375
28.9102417,1.201171875
28.946221,1.1865234375
28.9662405,1.1767578125
28.973797,1.1572265625
29.0078178,1.1474609375
29.0284794,1.1328125
29.0347218,1.1279296875
29.0512802,1.1328125
29.0881147,1.171875
29.0937832,1.2353515625
29.1118972,1.2939453125
29.1504466,1.34765625
29.153033,1.38671875
29.1878115,1.4111328125
29.2093376,1.416015625
29.2145861,1.416015625
29.2354165,1.4111328125
29.2731856,1.4013671875
29.2733862,1.3916015625
29.293657,1.38671875
29.3299675,1.3671875
29.3324485,1.3525390625
29.3684151,1.328125
29.3888389,1.318359375
29.3940668,1.3037109375
29.4272301,1.3037109375
29.4489391,1.3037109375
29.4530984,1.2939453125
29.4921612,1.2890625
29.4924198,1.2841796875
29.5277861,1.26953125
29.5494943,1.259765625
29.556343,1.2548828125
29.5762135,1.2451171875
29.6227681,1.23046875
29.6231212,1.2158203125
29.6312969,1.2060546875
29.6695206,1.1962890625
29.6916219,1.1865234375
29.6919541,1.171875
29.7271946,1.1572265625
29.7491568,1.15234375
29.7553582,1.142578125
29.7915248,1.162109375
29.7918307,1.1962890625
29.8391829,1.2646484375
29.8393837,1.318359375
29.8698492,1.3623046875
29.8743568,1.3916015625
29.9084116,1.40625
29.9291668,1.40625
29.9379576,1.40625
29.9557133,1.396484375
29.9780344,1.3671875
29.9946129,1.3330078125
30.0439215,1.3330078125
30.0442401,1.3232421875
30.0543461,1.318359375
30.1030448,1.3134765625
30.1032599,1.3037109375
30.1167158,1.298828125
30.1588706,1.2939453125
30.1592246,1.2939453125
30.173234,1.2890625
30.2087681,1.2841796875
30.2128128,1.2744140625
30.2459022,1.259765625
30.266927,1.2451171875
30.2752957,1.2255859375
30.3199128,1.2060546875
30.3201123,1.19140625
30.3401623,1.1767578125
30.3535496,1.1669921875
30.3886517,1.1572265625
30.4108076,1.142578125
30.4160605,1.1328125
30.4500649,1.1181640625
30.4707502,1.1083984375
30.4749212,1.0986328125
30.510944,1.09375
30.5324885,1.1083984375
30.5327762,1.162109375
30.5748078,1.220703125
30.6057708,1.2939453125
30.6060549,1.337890625
30.6153918,1.376953125
30.6484576,1.38671875
30.6695067,1.3916015625
30.671635,1.38671875
30.7051476,1.38671875
30.7263024,1.3818359375
30.7336944,1.3623046875
30.7706437,1.34765625
30.7922975,1.3232421875
30.7972014,1.30859375
30.8335133,1.2890625
30.8394022,1.279296875
30.8575378,1.2744140625
30.8780902,1.2646484375
30.8952512,1.259765625
30.9347832,1.2548828125
30.9349802,1.2451171875
30.9699822,1.240234375
30.9911437,1.2255859375
30.9963981,1.2109375
31.0310073,1.1962890625
31.0530938,1.171875
31.0585334,1.15234375
31.074215,1.1376953125
31.117315,1.1328125
31.1176853,1.123046875
31.1360117,1.11328125
31.1729473,1.103515625
31.177108,1.0986328125
31.1976813,1.0888671875
31.2185771,1.083984375
31.2342556,1.07421875
31.278575,1.083984375
31.2790793,1.123046875
31.2959908,1.19140625
31.3388613,1.2548828125
31.3391682,1.318359375
31.3610521,1.3623046875
31.3770022,1.3818359375
31.4117457,1.3916015625
31.4333158,1.38671875
31.433572,1.38671875
31.4789369,1.376953125
31.4792814,1.3671875
31.5001656,1.34765625
31.5174189,1.328125
31.5525127,1.3037109375
31.5575929,1.2890625
31.5738591,1.2744140625
31.5988027,1.2841796875
31.614489,1.259765625
31.6504766,1.26953125
31.6556573,1.2744140625
31.6969501,1.26953125
31.6972133,1.259765625
31.7277808,1.2451171875
31.7381975,1.23046875
31.7757741,1.2109375
31.7776294,1.19140625
31.8114343,1.171875
31.8156203,1.162109375
31.8506301,1.142578125
31.871174,1.1376953125
31.877552,1.123046875
31.9132314,1.11328125
31.9433756,1.103515625
31.943747,1.09375
31.9565842,1.083984375
31.9764074,1.0791015625
32.0201769,1.083984375
32.0203875,1.083984375
32.0543253,1.123046875
32.058421,1.1865234375
32.0996344,1.259765625
32.0998394,1.318359375
32.1204242,1.3671875
32.1353983,1.3916015625
32.1569615,1.40625
32.197384,1.40625
32.1976914,1.4013671875
32.2170365,1.3916015625
32.2527205,1.3818359375
32.2756349,1.3623046875
32.2809786,1.3330078125
32.3002588,1.318359375
32.3173478,1.2939453125
32.3361877,1.2890625
32.3711384,1.2841796875
32.3920536,1.2841796875
32.3985305,1.279296875
32.4442003,1.2744140625
32.4444226,1.2646484375
32.4585594,1.2548828125
32.4967082,1.2353515625
32.5014863,1.220703125
32.51672,1.201171875
32.5535723,1.1865234375
32.5556384,1.171875
32.5914491,1.15234375
32.6121103,1.1328125
32.6175329,1.1279296875
32.6526277,1.1181640625
32.6794093,1.1083984375
32.6797344,1.0986328125
32.6975245,1.0888671875
32.7410253,1.0791015625
32.7413123,1.07421875
32.7581463,1.07421875
32.8041696,1.0693359375
32.8044312,1.083984375
32.8206249,1.1376953125
32.8399954,1.2109375
32.8557244,1.279296875
32.8772599,1.34765625
32.9159053,1.3916015625
32.9185522,1.416015625
32.9639367,1.42578125
32.9642144,1.4208984375
32.9799345,1.4111328125
33.0243861,1.396484375
33.0246886,1.3818359375
33.0388077,1.357421875
33.0578822,1.337890625
33.078431,1.318359375
33.1182057,1.3037109375
33.1184985,1.2939453125
33.1546214,1.2939453125
33.189898,1.2841796875
33.1900934,1.2841796875
33.1974155,1.2744140625
33.2179059,1.26953125
33.2376747,1.2548828125
33.2821474,1.2451171875
33.2824032,1.23046875
33.2990817,1.2060546875
33.3338881,1.1865234375
33.3636378,1.162109375
33.3639335,1.1474609375
33.3796656,1.1279296875
33.4135008,1.11328125
33.4347568,1.0986328125
33.4369092,1.0888671875
33.4875334,1.083984375
33.4878186,1.0791015625
33.4992998,1.064453125
33.5353138,1.064453125
33.5544911,1.0595703125
33.5588694,1.0693359375
33.5977978,1.1181640625
33.5979927,1.1865234375
33.6290534,1.2646484375
33.6384357,1.3330078125
33.6745819,1.38671875
33.7055696,1.416015625
33.7059083,1.4306640625
33.7200968,1.42578125
33.7559721,1.416015625
33.7562916,1.396484375
33.7793642,1.38671875
33.8236054,1.3623046875
33.8238455,1.3427734375
33.8400405,1.318359375
33.876278,1.298828125
33.8816116,1.279296875
33.9162895,1.2841796875
33.921375,1.279296875
33.9366876,1.2744140625
33.972433,1.2744140625
34.0074807,1.2646484375
34.0077436,1.2548828125
34.0194037,1.2353515625
34.06765,1.220703125
34.0678812,1.1962890625
34.0876578,1.1767578125
34.1010323,1.1572265625
34.1373235,1.11328125
34.1636963,1.103515625
34.163911,1.103515625
34.1793063,1.0986328125
34.2214622,1.09375
34.2216642,1.0888671875
34.2553432,1.0791015625
34.2753841,1.07421875
34.280567,1.07421875
34.3159345,1.103515625
34.3379952,1.1572265625
34.3382006,1.240234375
34.3811314,1.3134765625
34.3814218,1.3720703125
34.4256765,1.4111328125
34.4258885,1.435546875
34.4421617,1.435546875
34.488383,1.4306640625
34.4885818,1.416015625
34.4987405,1.40625
34.5345013,1.3818359375
34.5682439,1.3671875
34.5685031,1.3427734375
34.5818486,1.318359375
34.600462,1.3037109375
34.6340333,1.2939453125
34.654361,1.2890625
34.6568034,1.2841796875
34.6941214,1.2939453125
34.7285318,1.2939453125
34.7287304,1.2890625
34.7391885,1.2744140625
34.7730306,1.2548828125
34.7968147,1.2353515625
34.8018241,1.220703125
34.8176467,1.1962890625
34.8605076,1.181640625
34.8607661,1.171875
34.8948996,1.15234375
34.8988743,1.142578125
34.9366284,1.1279296875
34.9571373,1.11328125
34.9613706,1.103515625
34.9832424,1.0986328125
35.0189784,1.11328125
35.0236242,1.1669921875
35.0392024,1.23046875
35.0847491,1.30859375
35.0849493,1.3623046875
35.1056579,1.40625
35.1205859,1.42578125
35.1570102,1.435546875
35.1640702,1.4306640625
35.1820539,1.42578125
35.2252969,1.4208984375
35.2255057,1.4013671875
35.2565871,1.38671875
35.2612815,1.3720703125
35.281648,1.34765625
35.3226143,1.328125
35.3228106,1.3134765625
35.3573021,1.3037109375
35.3615081,1.298828125
35.407594,1.2890625
35.4077909,1.2841796875
35.4190388,1.279296875
35.4701527,1.26953125
35.4703549,1.2548828125
35.4815946,1.240234375
35.5309582,1.2255859375
35.5311771,1.2060546875
35.5430128,1.19140625
35.5586818,1.1669921875
35.5925918,1.1572265625
35.6146236,1.142578125
35.6209368,1.1328125
35.6560172,1.1181640625
35.676224,1.11328125
35.6822831,1.1083984375
35.7201809,1.15234375
35.7513098,1.201171875
35.7516738,1.25
35.7597984,1.2841796875
35.7976235,1.34765625
35.8292675,1.3818359375
35.829689,1.4111328125
35.8424563,1.42578125
35.877618,1.42578125
35.8973947,1.42578125
35.9017985,1.416015625
35.9379272,1.4013671875
35.9670343,1.3818359375
35.9672394,1.3671875
35.9795851,1.34765625
36.0147438,1.3330078125
36.0465861,1.3232421875
36.0468642,1.318359375
36.0638529,1.30859375
36.0998737,1.30859375
36.1001994,1.298828125
36.1396746,1.2939453125
36.1710644,1.2890625
36.1713727,1.2744140625
36.1820366,1.2548828125
36.2331437,1.240234375
36.2334467,1.23046875
36.2438734,1.2109375
36.2788195,1.1962890625
36.2811191,1.1767578125
36.3183168,1.1669921875
36.3185239,1.1572265625
36.3556162,1.142578125
36.3768911,1.1328125
36.3841993,1.1279296875
36.4341792,1.1376953125
36.4344131,1.1767578125
36.4408314,1.23046875
36.4613751,1.298828125
36.4821644,1.3525390625
36.5265333,1.38671875
36.5267398,1.40625
36.5414357,1.4111328125
36.5769295,1.4111328125
36.5973054,1.4013671875
36.6022139,1.4013671875
36.6390395,1.38671875
36.6598905,1.3720703125
36.6603762,1.34765625
36.6976239,1.328125
36.7032167,1.3134765625
36.7385529,1.3134765625
36.7588366,1.3037109375
36.7631575,1.3037109375
36.7843319,1.3037109375
36.831252,1.298828125
36.8315734,1.2890625
36.8421169,1.279296875
36.877495,1.26953125
36.8822882,1.2548828125
36.9152054,1.240234375
36.9474188,1.2255859375
36.9476474,1.2109375
36.9630462,1.1962890625
36.9961257,1.1865234375
37.0178681,1.1669921875
37.022106,1.1572265625
37.073648,1.1474609375
37.0738495,1.1376953125
37.0834336,1.123046875
37.1210454,1.123046875
37.1213012,1.1376953125
37.1685783,1.171875
37.1688309,1.23046875
37.1991706,1.279296875
37.2029592,1.3330078125
37.2451985,1.3671875
37.245405,1.3916015625
37.2806646,1.396484375
37.2859783,1.396484375
37.30452,1.3916015625
37.3538595,1.3818359375
37.3540773,1.3671875
37.3645218,1.357421875
37.397874,1.30859375
37.4022804,1.3037109375
37.4372667,1.298828125
37.4584862,1.2890625
37.4645384,1.2890625
37.4998515,1.2890625
37.5073929,1.2890625
37.5255326,1.2841796875
37.5454764,1.2744140625
37.5617361,1.259765625
37.6071323,1.25
37.6073318,1.2353515625
37.6276424,1.220703125
37.645874,1.2060546875
37.695488,1.19140625
37.6960834,1.1767578125
37.7053168,1.1669921875
37.7210139,1.15234375
37.7587985,1.15234375
37.7632473,1.15234375
37.7993792,1.1474609375
37.8038879,1.142578125
37.8404329,1.1328125
37.8446523,1.123046875
37.8806223,1.123046875
37.9006662,1.142578125
37.9009922,1.1865234375
37.938486,1.2548828125
37.9430359,1.3134765625
37.9903223,1.357421875
37.9905248,1.38671875
38.0109924,1.40625
38.0240726,1.40625
38.0602083,1.4013671875
38.0643739,1.396484375
38.0804467,1.3818359375
38.1155403,1.3720703125
38.1367506,1.357421875
38.1435215,1.3427734375
38.1782968,1.3232421875
38.199976,1.30859375
38.2051127,1.298828125
38.2564016,1.298828125
38.2566592,1.2890625
38.2672145,1.2890625
38.2845538,1.279296875
38.3354189,1.279296875
38.3356781,1.2646484375
38.344588,1.25
38.3811907,1.2353515625
38.3855412,1.220703125
38.4266913,1.2060546875
38.4268966,1.1865234375
38.4716589,1.171875
38.4719047,1.1572265625
38.4837864,1.1474609375
38.5318108,1.1376953125
38.5322774,1.1328125
38.5531612,1.1279296875
38.566666,1.11328125
38.6035789,1.103515625
38.6086594,1.0888671875
38.6226975,1.0791015625
38.6650641,1.0888671875
38.6652641,1.11328125
38.6960116,1.1767578125
38.7045434,1.25
38.742037,1.30859375
38.7462583,1.357421875
38.7882402,1.3818359375
38.7885217,1.4013671875
38.8040072,1.4013671875
38.8507598,1.4013671875
38.8509603,1.396484375
38.8643347,1.38671875
38.8854154,1.3671875
38.9274062,1.3525390625
38.9276898,1.3330078125
38.964348,1.318359375
38.9648274,1.3037109375
39.0008129,1.298828125
39.0054158,1.26953125
39.0545251,1.279296875
39.0548268,1.2841796875
39.0663916,1.279296875
39.1162701,1.2744140625
39.116613,1.259765625
39.1248269,1.25
39.1628845,1.23046875
39.1930163,1.2109375
39.1933246,1.19140625
39.2039145,1.181640625
39.2397486,1.162109375
39.2437062,1.15234375
39.2792245,1.1376953125
39.2989135,1.1328125
39.3051123,1.1181640625
39.3395603,1.11328125
39.3603625,1.103515625
39.3645399,1.0888671875
39.4002024,1.083984375
39.4202091,1.083984375
39.4274522,1.1083984375
39.4456836,1.162109375
39.4961379,1.2353515625
39.4963966,1.2939453125
39.5150492,1.34765625
39.5246865,1.376953125
39.5618337,1.4013671875
39.5671197,1.40625
39.604446,1.40625
39.6047129,1.3916015625
39.6428085,1.3818359375
39.6596074,1.3623046875
39.6659004,1.34765625
39.7025058,1.328125
39.7235097,1.3037109375
39.7237957,1.2890625
39.7604728,1.2841796875
39.7652976,1.279296875
39.8025639,1.279296875
39.8332037,1.2841796875
39.8334007,1.279296875
39.8486434,1.2744140625
39.8674968,1.259765625
39.9034409,1.220703125
39.9036842,1.2060546875
39.9414533,1.201171875
39.9620206,1.1865234375
39.9661929,1.171875
40.0047171,1.162109375
40.0066827,1.142578125
40.0452792,1.1328125
40.0499256,1.1181640625
40.0981169,1.1083984375
40.0983183,1.09375
40.1054259,1.083984375
40.1409898,1.07421875
40.1477024,1.07421875
40.1887215,1.0791015625
40.1889313,1.1279296875
40.2247745,1.19140625
40.2271618,1.2646484375
40.2623564,1.3232421875
40.2669011,1.3720703125
40.2868718,1.3916015625
40.3230595,1.4111328125
40.3282304,1.4111328125
40.3625904,1.4013671875
40.36678,1.3916015625
40.3996596,1.3720703125
40.4211189,1.3525390625
40.4249271,1.328125
40.4592427,1.30859375
40.4811844,1.2939453125
40.4880398,1.2841796875
40.5234688,1.2841796875
40.5276971,1.279296875
40.5714916,1.2744140625
40.5718169,1.26953125
40.5856003,1.2646484375
40.6316409,1.2548828125
40.6318411,1.2451171875
40.6529675,1.2255859375
40.6687085,1.2109375
40.7061591,1.19140625
40.7097183,1.1767578125
40.728035,1.1572265625
40.7487222,1.142578125
40.7855398,1.123046875
40.8151861,1.1083984375
40.8155511,1.0986328125
40.8270198,1.0986328125
40.8618388,1.083984375
40.8674556,1.0791015625
40.902458,1.07421875
40.9230173,1.103515625
40.9299387,1.15234375
40.9723212,1.23046875
40.972617,1.3037109375
40.9861525,1.34765625
41.0340195,1.3818359375
41.0342267,1.396484375
41.047167,1.4013671875
41.0685729,1.3916015625
41.1164585,1.3818359375
41.1166811,1.3671875
41.1289626,1.34765625
41.1438547,1.318359375
41.1786425,1.2939453125
41.1985534,1.279296875
41.2070512,1.2744140625
41.2417595,1.26953125
41.2613679,1.26953125
41.2672108,1.2744140625
41.3019737,1.2646484375
41.3334586,1.259765625
41.3337221,1.25
41.346789,1.2451171875
41.3975541,1.23046875
41.3977575,1.2158203125
41.4286929,1.1962890625
41.4288889,1.181640625
41.4492859,1.162109375
41.4912946,1.15234375
41.4916499,1.1328125
41.5107266,1.0986328125
41.5285082,1.0693359375
41.5467977,1.07421875
41.5843359,1.07421875
41.5897278,1.083984375
41.6247847,1.1083984375
41.6302967,1.162109375
41.6495228,1.2353515625
41.6908894,1.3037109375
41.6910966,1.3623046875
41.7074286,1.396484375
41.7259308,1.4208984375
41.7597134,1.42578125
41.7864991,1.4306640625
41.7869398,1.4208984375
41.8319548,1.4111328125
41.8321603,1.396484375
41.8485572,1.38671875
41.8820643,1.3720703125
41.8884088,1.357421875
41.9267794,1.3525390625
41.929074,1.3427734375
41.9625353,1.337890625
41.9843756,1.3330078125
41.9897011,1.3330078125
42.0251984,1.328125
42.0292564,1.318359375
42.0633462,1.3037109375
42.0681491,1.2939453125
42.1142989,1.2744140625
42.1145563,1.2646484375
42.1353064,1.2451171875
42.147948,1.2255859375
42.1839771,1.2109375
42.2082565,1.19140625
42.208599,1.171875
42.2436581,1.162109375
42.2488932,1.15234375
42.2851682,1.142578125
42.2871728,1.15234375
42.3281231,1.1767578125
42.3495507,1.2353515625
42.3497762,1.2939453125
42.369457,1.3525390625
42.4040419,1.3818359375
42.4251555,1.40625
42.4281714,1.416015625
42.4667822,1.4208984375
42.4670534,1.416015625
42.5091403,1.4111328125
42.5094527,1.4013671875
42.5299604,1.38671875
42.5633385,1.3720703125
42.5845882,1.34765625
42.5944066,1.328125
42.6087067,1.30859375
42.6480605,1.30859375
42.6483593,1.298828125
42.6826078,1.3037109375
42.7037868,1.2939453125
42.7105547,1.2890625
42.731693,1.279296875
42.7687642,1.2646484375
42.7689643,1.2451171875
42.7879385,1.2353515625
42.8231897,1.220703125
42.8435576,1.2060546875
42.851212,1.181640625
42.8713211,1.171875
42.89157,1.1572265625
42.9393668,1.142578125
42.939571,1.123046875
42.9486617,1.11328125
42.9843614,1.1083984375
42.9889122,1.123046875
43.0230818,1.171875
43.0434843,1.23046875
43.0502484,1.2890625
43.0842375,1.337890625
43.1048158,1.3671875
43.1070948,1.38671875
43.1482996,1.396484375
43.1786114,1.3671875
43.1789457,1.3720703125
43.1894559,1.376953125
43.2390939,1.3623046875
43.239463,1.3525390625
43.2603531,1.3330078125
43.2715493,1.318359375
43.2922641,1.298828125
43.3266099,1.2841796875
43.3465115,1.2744140625
43.348354,1.279296875
43.3946696,1.2744140625
43.3950198,1.279296875
43.4130149,1.2744140625
43.4468256,1.2646484375
43.4513411,1.25
43.4887183,1.2353515625
43.4892208,1.2109375
43.5195745,1.201171875
43.5420299,1.1865234375
43.5501198,1.171875
43.5935253,1.1572265625
43.5938718,1.142578125
43.6133014,1.1279296875
43.6313449,1.11328125
43.6672722,1.0986328125
43.7007932,1.0791015625
43.7011928,1.0791015625
43.7101769,1.083984375
43.7468092,1.1279296875
43.7668382,1.19140625
43.7720493,1.2646484375
43.8085248,1.3134765625
43.8125857,1.3525390625
43.8471536,1.3720703125
43.8475121,1.3818359375
43.8675136,1.3818359375
43.9038884,1.3818359375
43.931817,1.38671875
43.932284,1.3720703125
43.9646619,1.357421875
43.9923089,1.337890625
43.9926218,1.318359375
44.0401261,1.298828125
44.0404211,1.2890625
44.0594344,1.279296875
44.0704063,1.279296875
44.1068534,1.279296875
44.1118699,1.2744140625
44.1459607,1.2646484375
44.1661257,1.2548828125
44.1711868,1.2451171875
44.2050222,1.2255859375
44.2275083,1.2109375
44.2277829,1.19140625
44.2732717,1.1767578125
44.2735348,1.162109375
44.2906672,1.1572265625
44.3338598,1.142578125
44.3341024,1.1279296875
44.3538307,1.11328125
44.3884747,1.0986328125
44.413437,1.0888671875
44.4137844,1.0888671875
44.43083,1.0888671875
44.466049,1.11328125
44.4699628,1.171875
44.5201025,1.23046875
44.5204237,1.298828125
44.5403072,1.3427734375
44.5537147,1.376953125
44.5702274,1.3916015625
44.6047746,1.4013671875
44.627043,1.396484375
44.6323132,1.3916015625
44.6686278,1.376953125
44.6705507,1.3671875
44.7071858,1.3427734375
44.7294543,1.3232421875
44.7296514,1.298828125
44.7496262,1.2841796875
44.7870973,1.2744140625
44.792707,1.2841796875
44.8121366,1.2841796875
44.8497513,1.279296875
44.8548031,1.2744140625
44.8722028,1.259765625
44.9081383,1.2451171875
44.9142424,1.23046875
44.9558296,1.2158203125
44.9560772,1.1962890625
44.9707319,1.1767578125
45.0060746,1.162109375
45.0254701,1.1474609375
45.0324872,1.1328125
45.0688792,1.123046875
45.0750536,1.103515625
45.1097419,1.09375
45.1147816,1.0791015625
45.1310125,1.064453125
45.1739912,1.064453125
45.1743356,1.07421875
45.2055325,1.1279296875
45.2144765,1.19140625
45.2504739,1.2646484375
45.2548257,1.318359375
45.2892548,1.357421875
45.2922187,1.376953125
45.3268742,1.396484375
45.3317991,1.3916015625
45.3670279,1.38671875
45.3913175,1.3671875
45.3915872,1.3525390625
45.4250135,1.328125
45.4474561,1.30859375
45.4553841,1.2890625
45.4718126,1.2744140625
45.5165307,1.26953125
45.5167549,1.26953125
45.5323991,1.26953125
45.5797552,1.2646484375
45.5801282,1.2646484375
45.6086682,1.2548828125
45.615982,1.240234375
45.6352208,1.2255859375
45.6709385,1.181640625
45.671164,1.171875
45.7069074,1.162109375
45.7337148,1.15234375
45.7339233,1.142578125
45.7528631,1.1328125
45.7737617,1.1181640625
45.7951511,1.103515625
45.841262,1.0888671875
45.8414743,1.083984375
45.850364,1.07421875
45.889663,1.0888671875
45.9202459,1.1279296875
45.9205449,1.201171875
45.9341889,1.26953125
45.9823843,1.3427734375
45.9827043,1.3818359375
45.9959749,1.4208984375
46.0120821,1.42578125
46.0469201,1.4306640625
46.0770695,1.4208984375
46.0772942,1.4111328125
46.0945159,1.396484375
46.11501,1.3671875
46.1541415,1.34765625
46.1546408,1.3232421875
46.2024922,1.3037109375
46.2028308,1.2939453125
46.2114065,1.2939453125
46.2472506,1.2939453125
46.2686152,1.298828125
46.2727641,1.2939453125
46.310655,1.2841796875
46.3406424,1.2744140625
46.3409838,1.259765625
46.3527399,1.240234375
46.3906069,1.2255859375
46.3908232,1.2158203125
46.4366107,1.1962890625
46.4368192,1.181640625
46.4550625,1.1669921875
46.4915823,1.15234375
46.4957783,1.1376953125
46.5455714,1.123046875
46.5458649,1.1083984375
46.5577142,1.1083984375
46.5728771,1.1328125
46.6122942,1.19140625
46.6143717,1.259765625
46.649918,1.3232421875
46.6546215,1.3720703125
46.7030459,1.4013671875
46.7032555,1.4111328125
46.7155709,1.4208984375
46.7522873,1.416015625
46.7819904,1.40625
46.7825586,1.4013671875
46.7943535,1.3916015625
46.8137269,1.3720703125
46.8586497,1.34765625
46.8588517,1.328125
46.8807861,1.30859375
46.8967892,1.298828125
46.9117286,1.2890625
46.9517955,1.2890625
46.972456,1.2890625
46.9726555,1.2939453125
47.0104517,1.2841796875
47.0153408,1.2744140625
47.0521708,1.2646484375
47.0771964,1.25
47.0775946,1.23046875
47.0930128,1.2109375
47.1415124,1.201171875
47.141725,1.1865234375
47.155671,1.1767578125
47.1910666,1.162109375
47.1953862,1.1474609375
47.2302991,1.1376953125
47.2351195,1.142578125
47.2594456,1.1669921875
47.2778274,1.19140625
47.2932764,1.23046875
47.3159067,1.298828125
47.3342884,1.3427734375
47.3719253,1.3818359375
47.3931085,1.4013671875
47.3933108,1.4013671875
47.4338632,1.4013671875
47.4543414,1.3916015625
47.4566098,1.38671875
47.4732126,1.3720703125
47.5110287,1.3623046875
47.5154966,1.3427734375
47.5568194,1.328125
47.5570227,1.3134765625
47.5906575,1.3037109375
47.5958545,1.2939453125
47.631645,1.2939453125
47.6519133,1.2841796875
47.6521189,1.2841796875
47.6886885,1.279296875
47.714177,1.2646484375
47.7145333,1.25
47.7359252,1.2353515625
47.7724984,1.220703125
47.7918792,1.1962890625
47.7963279,1.181640625
47.8138386,1.1669921875
47.8603657,1.15234375
47.8606993,1.1376953125
47.8761842,1.1279296875
47.9220336,1.1181640625
47.9223791,1.123046875
47.9347382,1.142578125
47.9694734,1.1962890625
47.9907307,1.2451171875
47.99303,1.3134765625
48.0289794,1.357421875
48.0640449,1.3818359375
48.0644012,1.396484375
48.0762273,1.4013671875
48.0974076,1.396484375
48.1414973,1.3916015625
48.1417792,1.3818359375
48.1579072,1.3671875
48.2032786,1.3427734375
48.2037367,1.3232421875
48.223087,1.3037109375
48.2358012,1.2939453125
48.2717116,1.2890625
48.2761718,1.2841796875
48.3130512,1.279296875
48.3188556,1.279296875
48.3595076,1.26953125
48.3598134,1.2548828125
48.3732943,1.240234375
48.4065213,1.23046875
48.4275146,1.2158203125
48.4367205,1.2060546875
48.4839051,1.19140625
48.4841726,1.1767578125
48.4973566,1.1572265625
48.532625,1.15234375
48.5634804,1.1328125
48.5636972,1.1279296875
48.5763902,1.11328125
48.6129274,1.1083984375
48.6182998,1.103515625
48.6557925,1.1279296875
48.6560013,1.1767578125
48.6923505,1.23046875
48.7132422,1.2890625
48.713592,1.328125
48.7666704,1.3623046875
48.7669804,1.376953125
48.7760773,1.38671875
48.8128173,1.3818359375
48.8449064,1.3720703125
48.8451255,1.3623046875
48.8580037,1.34765625
48.8926115,1.3232421875
48.8990388,1.279296875
48.9150466,1.2451171875
48.9518772,1.25
48.9560179,1.2646484375
48.9904549,1.2646484375
49.0111302,1.26953125
49.0172384,1.26953125
49.0533052,1.2744140625
49.0754529,1.2646484375
49.0795983,1.2548828125
49.0958785,1.2353515625
49.1322833,1.2255859375
49.1364456,1.2109375
49.173164,1.201171875
49.1775452,1.181640625
49.2142913,1.171875
49.2196044,1.1572265625
49.2600953,1.142578125
49.2604047,1.1279296875
49.2770935,1.1181640625
49.3139432,1.1083984375
49.316432,1.09375
49.3527028,1.09375
49.3732577,1.09375
49.3794799,1.1328125
49.4160183,1.1865234375
49.4181838,1.259765625
49.4525539,1.30859375
49.4566628,1.3525390625
49.4941781,1.3720703125
49.4990099,1.38671875
49.5188484,1.38671875
49.5543446,1.38671875
49.5566201,1.3720703125
49.5940205,1.357421875
49.5984087,1.3427734375
49.6165219,1.3232421875
49.6364248,1.3037109375
49.6823415,1.2939453125
49.6825371,1.2890625
49.6983476,1.279296875
49.718011,1.2841796875
49.7569041,1.279296875
49.7781231,1.2744140625
49.7805054,1.2646484375
49.8163995,1.2548828125
49.8172664,1.2353515625
49.8673713,1.220703125
49.8675739,1.2060546875
49.8787826,1.19140625
49.9132831,1.171875
49.9182364,1.162109375
49.9619319,1.15234375
49.9621369,1.1328125
49.9932569,1.1181640625
49.9987416,1.103515625
50.0172783,1.0986328125
50.0546307,1.0888671875
50.0565204,1.0888671875
50.093344,1.0888671875
50.1162157,1.11328125
50.1192738,1.162109375
50.1530945,1.23046875
50.1741661,1.2890625
50.1762018,1.34765625
50.2118665,1.376953125
50.2421275,1.396484375
50.2423316,1.40625
50.2589682,1.396484375
50.2963081,1.3916015625
50.3171572,1.3720703125
50.3200863,1.3623046875
50.3549755,1.3330078125
50.3553215,1.3232421875
50.3914203,1.298828125
50.4118785,1.2890625
50.4190686,1.279296875
50.4692231,1.2841796875
50.4694324,1.2744140625
50.4800032,1.2744140625
50.4960506,1.2646484375
50.5344471,1.259765625
50.5388341,1.2158203125
50.5573963,1.220703125
50.5950576,1.2158203125
50.617131,1.201171875
50.617331,1.1865234375
50.658768,1.1767578125
50.663084,1.162109375
50.6803426,1.142578125
50.7213178,1.1328125
50.7215335,1.1181640625
50.7377106,1.1083984375
50.7736754,1.103515625
50.8006443,1.0986328125
50.8008439,1.0888671875
50.8353717,1.0888671875
50.8388449,1.1083984375
50.8747013,1.1669921875
50.895804,1.240234375
50.8961209,1.2939453125
50.9352556,1.3427734375
50.9653107,1.3720703125
50.9655876,1.3916015625
50.9790903,1.3916015625
51.0165573,1.38671875
51.0206175,1.3720703125
51.0582299,1.357421875
51.0584267,1.3330078125
51.0791563,1.318359375
51.1214422,1.298828125
51.1216414,1.2841796875
51.1402116,1.2744140625
51.1800782,1.2744140625
51.1802778,1.26953125
51.2170977,1.2744140625
51.221195,1.2744140625
51.2375124,1.2646484375
51.2877243,1.259765625
51.2879924,1.25
51.2985183,1.2353515625
51.3344372,1.2158203125
51.3396339,1.201171875
51.3757146,1.181640625
51.3802833,1.162109375
51.400946,1.1474609375
51.4360649,1.1083984375
51.4565823,1.0986328125
51.4568588,1.09375
51.5070303,1.0888671875
51.5073227,1.083984375
51.5366792,1.09375
51.5391343,1.1083984375
51.5763515,1.162109375
51.5808006,1.2255859375
51.6160578,1.298828125
51.6451373,1.34765625
51.6455866,1.3916015625
51.6592787,1.40625
51.6804915,1.416015625
51.7239128,1.4111328125
51.7241728,1.40625
51.7434549,1.3916015625
51.7601835,1.376953125
51.7938081,1.357421875
51.7989931,1.337890625
51.8359144,1.318359375
51.8404147,1.30859375
51.8767177,1.3037109375
51.881121,1.2939453125
51.9186867,1.298828125
51.9232048,1.2939453125
51.9422934,1.2939453125
51.9598863,1.2841796875
52.006831,1.279296875
52.0071868,1.2646484375
52.0187693,1.2548828125
52.0529254,1.2353515625
52.074658,1.2158203125
52.0823,1.1962890625
52.1315149,1.1865234375
52.1317359,1.171875
52.1382711,1.162109375
52.1777796,1.1572265625
52.1823965,1.142578125
52.2014634,1.1328125
52.2418334,1.1328125
52.2421731,1.1572265625
52.2788463,1.2060546875
52.2832028,1.26953125
52.3025977,1.3232421875
52.3448991,1.3671875
52.3451919,1.3916015625
52.359659,1.416015625
52.3947325,1.4208984375
52.4153667,1.4208984375
52.4201352,1.416015625
52.4550534,1.4111328125
52.4748014,1.3916015625
52.4826728,1.376953125
52.5284431,1.3623046875
52.5288321,1.337890625
52.5510885,1.3232421875
52.5615014,1.3134765625
52.5986572,1.30859375
52.6011464,1.3037109375
52.6360978,1.3037109375
52.6687491,1.2939453125
52.6690379,1.2890625
52.681328,1.2744140625
52.7302895,1.2646484375
52.7305318,1.2548828125
52.7408334,1.2451171875
52.7769264,1.23046875
52.7822409,1.2158203125
52.8176284,1.2060546875
52.8419276,1.1865234375
52.8425053,1.1669921875
52.8591848,1.1474609375
52.8943907,1.142578125
52.9156614,1.1328125
52.9222573,1.142578125
52.9411658,1.171875
52.9823762,1.23046875
52.9826124,1.2841796875
53.0184877,1.3330078125
53.0226667,1.3623046875
53.0607854,1.3623046875
53.0610008,1.3720703125
53.0820742,1.3818359375
53.1258079,1.3818359375
53.1260647,1.38671875
53.1446242,1.3818359375
53.1626621,1.3671875
53.1990085,1.3525390625
53.2324156,1.3330078125
53.2326893,1.3134765625
53.239029,1.2939453125
53.2743146,1.2939453125
53.3043595,1.2890625
53.3045667,1.2890625
53.3399276,1.2841796875
53.3439649,1.279296875
53.3807328,1.26953125
53.3853018,1.259765625
53.4012894,1.240234375
53.4208206,1.2255859375
53.4631001,1.2158203125
53.4634224,1.201171875
53.4823948,1.1865234375
53.5238172,1.171875
53.5241012,1.162109375
53.5606881,1.142578125
53.5637411,1.1279296875
53.5809923,1.11328125
53.6015077,1.1083984375
53.6475387,1.0986328125
53.6477942,1.1181640625
53.6678138,1.1474609375
53.68432,1.2109375
53.725921,1.26953125
53.7261958,1.3232421875
53.7412681,1.34765625
53.7903602,1.376953125
53.7907341,1.38671875
53.8036928,1.38671875
53.8238729,1.38671875
53.8421233,1.3720703125
53.8790928,1.357421875
53.8843425,1.337890625
53.9205292,1.318359375
53.9226569,1.2939453125
53.9583575,1.279296875
53.9798126,1.2646484375
53.980169,1.2646484375
54.0140631,1.2646484375
54.034652,1.26953125
54.0422492,1.2646484375
54.0781311,1.259765625
54.1057999,1.2548828125
54.1060033,1.2353515625
54.1415452,1.220703125
54.1418285,1.2060546875
54.1764392,1.2060546875
54.1977418,1.1962890625
54.2041608,1.19140625
54.2405158,1.1767578125
54.2424988,1.171875
54.2775369,1.15234375
54.2992847,1.142578125
54.2994845,1.1279296875
54.3510524,1.123046875
54.3513809,1.1083984375
54.3806227,1.1083984375
54.3837818,1.123046875
54.4184848,1.171875
54.4232108,1.240234375
54.4598216,1.2890625
54.4842217,1.3330078125
54.4845511,1.357421875
54.5000639,1.376953125
54.5339039,1.3818359375
54.5544539,1.3818359375
54.5616642,1.3720703125
54.5962918,1.3623046875
54.6189827,1.3427734375
54.6271576,1.3232421875
54.6448353,1.298828125
54.665449,1.2646484375
54.6832723,1.23046875
54.7195558,1.2451171875
54.7223845,1.259765625
54.764672,1.2646484375
54.7649797,1.2646484375
54.7948721,1.2646484375
54.8057586,1.259765625
54.8400118,1.25
54.8461661,1.2353515625
54.8627417,1.2158203125
54.8974388,1.2060546875
54.9174943,1.1865234375
54.9224334,1.1767578125
54.964164,1.162109375
54.964523,1.1474609375
54.9841287,1.1328125
55.02503,1.123046875
55.0253773,1.103515625
55.045119,1.0986328125
55.062692,1.0986328125
55.1046203,1.0888671875
55.1049885,1.0986328125
55.1357285,1.142578125
55.1464331,1.2060546875
55.1962893,1.26953125
55.1964887,1.328125
55.2013298,1.3623046875
55.2370731,1.38671875
55.2570117,1.396484375
55.2634732,1.396484375
55.2971178,1.38671875
55.3180066,1.376953125
55.3240134,1.3623046875
55.3567304,1.337890625
55.3835872,1.318359375
55.383819,1.298828125
55.4174373,1.2890625
55.4401397,1.279296875
55.4449286,1.279296875
55.4792729,1.2744140625
55.4843002,1.279296875
55.5237103,1.26953125
55.5456513,1.2646484375
55.5458601,1.25
55.5847903,1.2353515625
55.5851484,1.2158203125
55.6048173,1.201171875
55.6398194,1.1865234375
55.6448868,1.171875
55.6662255,1.15234375
55.6852592,1.142578125
55.7217884,1.1328125
55.7414599,1.11328125
55.7453865,1.0986328125
55.7784128,1.0791015625
55.7832678,1.07421875
55.8171469,1.064453125
55.8366961,1.0693359375
55.8446339,1.103515625
55.8791346,1.171875
55.8993244,1.240234375
55.907382,1.3037109375
55.9224504,1.34765625
55.9569969,1.376953125
55.9771979,1.3916015625
55.9851876,1.3916015625
56.0187462,1.38671875
56.0526105,1.3720703125
56.0529161,1.357421875
56.0663516,1.3330078125
56.1004129,1.30859375
56.1204999,1.2841796875
56.1224199,1.2744140625
56.1600224,1.2646484375
56.1819948,1.26953125
56.1874032,1.26953125
56.2233333,1.279296875
56.2275318,1.279296875
56.2699179,1.2744140625
56.2701804,1.2646484375
56.2880826,1.2548828125
56.3036212,1.2109375
56.3416361,1.2060546875
56.3465718,1.1962890625
56.3804638,1.1865234375
56.3846819,1.1767578125
56.4185519,1.1669921875
56.4402666,1.15234375
56.4489268,1.1328125
56.4867814,1.123046875
56.4869798,1.1083984375
56.5040556,1.0986328125
56.5435509,1.09375
56.5438272,1.103515625
56.5886334,1.142578125
56.5888692,1.2158203125
56.6088612,1.279296875
56.6432809,1.337890625
56.6667284,1.3818359375
56.6670048,1.396484375
56.7021459,1.40625
56.7063013,1.4013671875
56.7432232,1.4013671875
56.7474095,1.38671875
56.7931997,1.3671875
56.7935786,1.3427734375
56.8091549,1.318359375
56.8246643,1.2939453125
56.8614847,1.2890625
56.8659065,1.2841796875
56.8859517,1.2841796875
56.9051286,1.2841796875
56.9387049,1.2841796875
56.9596295,1.279296875
56.9664103,1.2744140625
57.0008638,1.2646484375
57.0220322,1.2451171875
57.0241345,1.2353515625
57.0590762,1.220703125
57.0839076,1.2060546875
57.0859225,1.19140625
57.1228143,1.1767578125
57.1278187,1.162109375
57.1641053,1.1474609375
57.166506,1.1328125
57.2018567,1.1181640625
57.2213791,1.0986328125
57.2262581,1.103515625
57.2606994,1.11328125
57.2825323,1.162109375
57.2884402,1.2353515625
57.3327282,1.298828125
57.3329383,1.3525390625
57.3493632,1.38671875
57.3947139,1.4111328125
57.3949269,1.4208984375
57.4054901,1.42578125
57.4409752,1.416015625
57.4631874,1.4111328125
57.467802,1.3916015625
57.5043713,1.376953125
57.5091177,1.3525390625
57.5513512,1.3330078125
57.5515554,1.3134765625
57.5649788,1.30859375
57.6118493,1.30859375
57.6121054,1.30859375
57.6329744,1.3134765625
57.6490784,1.3037109375
57.6684296,1.298828125
57.7050411,1.2841796875
57.7100727,1.2744140625
57.7246867,1.2548828125
57.75864,1.2451171875
57.7852323,1.23046875
57.7854308,1.220703125
57.8219709,1.201171875
57.8488681,1.19140625
57.8490673,1.171875
57.8939269,1.162109375
57.8945235,1.142578125
57.9053522,1.1376953125
57.9418881,1.142578125
57.9725034,1.1328125
57.9727772,1.1962890625
57.9868945,1.259765625
58.0344864,1.3232421875
58.0348184,1.3623046875
58.0553105,1.396484375
58.0702123,1.40625
58.1129762,1.4111328125
58.1133238,1.40625
58.1275773,1.4013671875
58.1627047,1.396484375
58.1826999,1.38671875
58.1867756,1.3720703125
58.2218958,1.3525390625
58.2503546,1.3330078125
58.2506575,1.3232421875
58.269613,1.318359375
58.2873025,1.30859375
58.3259201,1.3134765625
58.3263435,1.3134765625
58.3619665,1.30859375
58.3819546,1.298828125
58.3896861,1.2939453125
58.4402978,1.279296875
58.4406391,1.2646484375
58.4465845,1.2451171875
58.4674194,1.23046875
58.5063517,1.2158203125
58.5066844,1.2060546875
58.5538453,1.19140625
58.5540507,1.1767578125
58.5690273,1.162109375
58.6172281,1.1474609375
58.6175034,1.142578125
58.6269083,1.142578125
58.6475504,1.1865234375
58.6838291,1.240234375
58.6880863,1.298828125
58.7223374,1.337890625
58.7426941,1.3720703125
58.7497359,1.3916015625
58.7848416,1.4013671875
58.8050752,1.3916015625
58.8095276,1.3671875
58.8276781,1.3623046875
58.8492053,1.357421875
58.8849303,1.34765625
58.8882036,1.337890625
58.9236537,1.3232421875
58.9290431,1.3037109375
58.969683,1.2939453125
58.9698844,1.2890625
59.0030144,1.2841796875
59.0233145,1.279296875
59.0273244,1.279296875
59.0642593,1.2744140625
59.0842535,1.2646484375
59.0891153,1.25
59.1255659,1.2353515625
59.1302996,1.2158203125
59.1491363,1.201171875
59.1675533,1.1767578125
59.2044993,1.1669921875
59.2065223,1.1572265625
59.2412071,1.142578125
59.2623733,1.1279296875
59.2694524,1.11328125
59.3022365,1.1083984375
59.3237745,1.09375
59.3335669,1.0888671875
59.349143,1.0888671875
59.3672662,1.1279296875
59.4088844,1.1865234375
59.4090839,1.259765625
59.4543407,1.3134765625
59.4546843,1.3623046875
59.4752016,1.38671875
59.4902907,1.396484375
59.5070992,1.3916015625
59.5430967,1.38671875
59.5460528,1.3818359375
59.5934054,1.3720703125
59.5936979,1.357421875
59.6231448,1.3330078125
59.6294081,1.30859375
59.6639958,1.2890625
59.6859459,1.2744140625
59.6925824,1.26953125
59.711202,1.2646484375
59.7292364,1.259765625
59.7673225,1.259765625
59.7698536,1.2548828125
59.8063714,1.25
59.8109918,1.2353515625
59.8306286,1.220703125
59.8763071,1.2060546875
59.8766521,1.181640625
59.8935007,1.162109375
59.9094353,1.142578125
59.9545516,1.1328125
59.9550936,1.1181640625
59.9682062,1.1083984375
60.003185,1.09375
60.0334787,1.083984375
60.0337363,1.0693359375
60.0689121,1.0595703125
60.0691521,1.044921875
60.1035121,1.0546875
60.1077143,1.083984375
60.1431949,1.1572265625
60.1727691,1.23046875
60.1730857,1.298828125
60.2058612,1.34765625
60.2260908,1.3720703125
60.2303552,1.38671875
60.2640297,1.38671875
60.2684073,1.3818359375
60.3050542,1.376953125
60.3270022,1.3720703125
60.3289862,1.3525390625
60.3624686,1.337890625
60.3832194,1.3134765625
60.3915869,1.2939453125
60.4111353,1.279296875
60.4531559,1.2548828125
60.4533684,1.23046875
60.4723537,1.25
60.491457,1.259765625
60.5116469,1.259765625
60.5604667,1.2548828125
60.5606807,1.240234375
60.5721762,1.2255859375
60.6069786,1.2060546875
60.639603,1.181640625
60.6399206,1.162109375
60.650259,1.1474609375
60.6703026,1.1328125
60.7062074,1.123046875
60.7275925,1.1083984375
60.7323905,1.0986328125
60.7818848,1.083984375
60.7821939,1.07421875
60.7886445,1.0546875
60.8244913,1.0546875
60.8523738,1.0546875
60.8526745,1.0693359375
60.8717151,1.1328125
60.9089611,1.2109375
60.9405103,1.2890625
60.9407245,1.3427734375
60.9540498,1.38671875
60.9695689,1.40625
60.9882087,1.416015625
61.0233644,1.4111328125
61.0430512,1.4013671875
61.0504427,1.38671875
61.1020229,1.3671875
61.1022201,1.337890625
61.1120038,1.3134765625
61.1501887,1.2939453125
61.150391,1.2744140625
61.1857063,1.26953125
61.1905294,1.2646484375
61.2100036,1.26953125
61.2464393,1.2646484375
61.2721362,1.259765625
61.2723409,1.25
61.3089749,1.2353515625
61.3353021,1.2158203125
61.3356328,1.201171875
61.3503551,1.1767578125
61.3852196,1.162109375
61.3902594,1.142578125
61.4273862,1.1279296875
61.431585,1.11328125
61.4666176,1.103515625
61.4879312,1.0888671875
61.4923278,1.07421875
61.5271882,1.064453125
61.5517648,1.0498046875
61.5520141,1.044921875
61.5867469,1.044921875
61.5938101,1.0693359375
61.6116408,1.1279296875
61.6604292,1.2158203125
61.6606291,1.2841796875
61.6915478,1.34765625
61.6918154,1.38671875
61.738204,1.4111328125
61.7385543,1.4208984375
61.7517729,1.416015625
61.7966368,1.4111328125
61.7971401,1.3916015625
61.8144667,1.3671875
61.8339421,1.337890625
61.8721469,1.3134765625
61.8725091,1.2841796875
61.9198512,1.2744140625
61.9201574,1.2646484375
61.9317519,1.26953125
61.9686124,1.26953125
61.9727426,1.26953125
62.009014,1.2646484375
62.013596,1.2548828125
62.0308956,1.2353515625
62.0664572,1.2255859375
62.0709412,1.171875
62.1185616,1.162109375
62.1188747,1.1474609375
62.148704,1.1328125
62.1526906,1.1181640625
62.1874819,1.103515625
62.2125749,1.0888671875
62.2150174,1.07421875
62.2519688,1.064453125
62.2523343,1.0498046875
62.2912792,1.044921875
62.2916255,1.0498046875
62.3255612,1.09375
62.3462309,1.1669921875
62.3526478,1.2646484375
62.3863741,1.3427734375
62.4070065,1.4013671875
62.4151667,1.4404296875
62.4310257,1.455078125
62.4657735,1.4599609375
62.4874431,1.4501953125
62.4938946,1.4404296875
62.5133697,1.4208984375
62.5585621,1.396484375
62.55881,1.3671875
62.5748975,1.3330078125
62.592217,1.30859375
62.6131813,1.3037109375
62.6515158,1.2939453125
62.6518501,1.298828125
62.6883356,1.298828125
62.6929635,1.2939453125
62.7275581,1.2841796875
62.7486013,1.279296875
62.7558773,1.259765625
62.7722712,1.240234375
62.8214063,1.220703125
62.8219718,1.201171875
62.8325697,1.19140625
62.8711838,1.1669921875
62.8715622,1.1572265625
62.9085237,1.1376953125
62.9305352,1.1181640625
62.9352605,1.0986328125
62.9715534,1.0888671875
62.9718951,1.07421875
63.0092667,1.09375
63.0133363,1.1376953125
63.0477873,1.220703125
63.0546709,1.3037109375
63.0976742,1.3623046875
63.0980237,1.40625
63.1175083,1.42578125
63.1367384,1.4404296875
63.1517633,1.4404296875
63.194898,1.4404296875
63.1951441,1.4306640625
63.2150651,1.4208984375
63.2496785,1.4013671875
63.2543853,1.3818359375
63.2895332,1.3525390625
63.3088619,1.3330078125
63.3113213,1.3134765625
63.3486985,1.3037109375
63.3532379,1.298828125
63.3976537,1.3037109375
63.3979164,1.30859375
63.4139044,1.298828125
63.4508985,1.2890625
63.4743512,1.2744140625
63.474666,1.2548828125
63.50923,1.2353515625
63.5112064,1.220703125
63.5439288,1.2060546875
63.5662267,1.19140625
63.5744716,1.1669921875
63.5941058,1.15234375
63.6271843,1.1328125
63.6362356,1.123046875
63.6527196,1.1083984375
63.6888652,1.11328125
63.6954384,1.1474609375
63.7286848,1.1767578125
63.7333066,1.2548828125
63.7702582,1.318359375
63.7908953,1.3720703125
63.7951015,1.4013671875
63.8319502,1.416015625
63.8557574,1.416015625
63.8561039,1.4111328125
63.8736748,1.4013671875
63.9177513,1.396484375
63.9179804,1.3818359375
63.934002,1.3671875
63.9693207,1.3427734375
63.9914348,1.3232421875
63.9957692,1.298828125
64.0176431,1.2890625
64.0362515,1.2890625
64.052956,1.279296875
64.0870558,1.2744140625
64.1125519,1.26953125
64.1148096,1.2646484375
64.1601138,1.25
64.1604716,1.2353515625
64.1771957,1.2158203125
64.211548,1.1962890625
64.212034,1.171875
64.2477988,1.1572265625
64.2691173,1.1376953125
64.2732323,1.1279296875
64.3082063,1.1083984375
64.329355,1.0888671875
64.3366807,1.0791015625
64.3742971,1.0595703125
64.3745848,1.0546875
64.3939712,1.0693359375
64.4297166,1.1376953125
64.4336482,1.2158203125
64.4695699,1.2939453125
64.5009288,1.34765625
64.5012486,1.38671875
64.5165727,1.40625
64.5612522,1.416015625
64.5614506,1.4111328125
64.5819674,1.376953125
64.5953194,1.3427734375
64.630482,1.3427734375
64.6354459,1.3330078125
64.6790309,1.3232421875
64.6793479,1.3037109375
64.6966562,1.2890625
64.7384987,1.279296875
64.7387606,1.26953125
64.7851507,1.2646484375
64.7855816,1.259765625
64.7947398,1.259765625
64.8438266,1.2548828125
64.8441032,1.2451171875
64.8564696,1.23046875
64.9051523,1.2109375
64.9054598,1.1865234375
64.9179043,1.1669921875
64.9341732,1.1474609375
64.9695625,1.1328125
64.974975,1.123046875
65.013532,1.103515625
65.0139197,1.09375
65.0512807,1.0791015625
65.0562986,1.064453125
65.0912299,1.0498046875
65.1173407,1.044921875
65.1176549,1.0498046875
65.1338367,1.103515625
65.1803972,1.1767578125
65.1806308,1.2646484375
65.1971833,1.328125
65.2317029,1.376953125
65.2361337,1.4013671875
65.2712413,1.4111328125
65.291433,1.4013671875
65.2942472,1.4013671875
65.3292629,1.38671875
65.3502984,1.3671875
65.3553532,1.337890625
65.3907395,1.30859375
65.4234048,1.2841796875
65.4236847,1.259765625
65.4377756,1.2548828125
65.4753115,1.2548828125
65.4807184,1.2548828125
65.4945567,1.25
65.5399961,1.25
65.5403367,1.240234375
65.5569619,1.23046875
65.6015628,1.2109375
65.6018465,1.19140625
65.6199984,1.171875
65.6541644,1.142578125
65.6585795,1.123046875
65.6755265,1.103515625
65.7098784,1.09375
65.7304689,1.0791015625
65.7369191,1.0693359375
65.7708073,1.0546875
65.7926184,1.044921875
65.7992977,1.0302734375
65.8197052,1.025390625
65.8348414,1.0205078125
65.8713951,1.044921875
65.8921956,1.103515625
65.8951343,1.1962890625
65.9293237,1.2744140625
65.9509056,1.3525390625
65.9571137,1.4013671875
65.996125,1.4208984375
66.0162735,1.42578125
66.0165624,1.4208984375
66.0339796,1.40625
66.0698384,1.38671875
66.09101,1.3623046875
66.0957228,1.328125
66.1324173,1.2939453125
66.1524714,1.2646484375
66.1587067,1.25
66.1805332,1.2353515625
66.1999674,1.2158203125
66.2168648,1.1962890625
66.2614672,1.2109375
66.261669,1.220703125
66.2781538,1.2158203125
66.2980552,1.2060546875
66.3389487,1.19140625
66.3391974,1.171875
66.3593987,1.15234375
66.395629,1.1328125
66.3959091,1.1083984375
66.4316328,1.0986328125
66.4362965,1.083984375
66.4713393,1.083984375
66.4928019,1.07421875
66.4995245,1.064453125
66.5186457,1.0546875
66.5388755,1.044921875
66.5563925,1.03515625
66.6044822,1.0498046875
66.6046812,1.09375
66.6182998,1.1669921875
66.6538154,1.2548828125
66.6592935,1.3330078125
66.6793578,1.3916015625
66.7311968,1.42578125
66.7314652,1.4501953125
66.7353729,1.4453125
66.7797659,1.4404296875
66.7800234,1.42578125
66.7976484,1.396484375
66.8341318,1.3671875
66.8393991,1.328125
66.8755038,1.2890625
66.8806347,1.259765625
66.917326,1.2451171875
66.9175487,1.2353515625
66.9633505,1.240234375
66.9636353,1.240234375
66.9771664,1.2451171875
67.0127465,1.2353515625
67.033401,1.2255859375
67.0387274,1.2060546875
67.0758317,1.1865234375
67.0825941,1.162109375
67.1015542,1.142578125
67.1173836,1.1181640625
67.1628804,1.103515625
67.1630991,1.0888671875
67.178375,1.0791015625
67.2132954,1.0595703125
67.2342623,1.0546875
67.2410383,1.0498046875
67.2617347,1.03515625
67.2804633,1.0302734375
67.2978899,1.03515625
67.3338927,1.0791015625
67.3368247,1.15234375
67.3752673,1.25
67.3814719,1.328125
67.3992937,1.38671875
67.4346037,1.4208984375
67.458947,1.4404296875
67.4591555,1.4404296875
67.4786798,1.435546875
67.5163288,1.4208984375
67.5166842,1.396484375
67.5515476,1.3623046875
67.5732015,1.3232421875
67.5802444,1.2939453125
67.5995038,1.2646484375
67.6448531,1.2548828125
67.6452458,1.2451171875
67.6594867,1.25
67.6792159,1.2548828125
67.723635,1.2548828125
67.7238382,1.2451171875
67.739144,1.240234375
67.7867969,1.220703125
67.7870889,1.201171875
67.8061027,1.181640625
67.8222136,1.1669921875
67.8391241,1.1181640625
67.8731804,1.11328125
67.8771231,1.1083984375
67.9103272,1.09375
67.9307053,1.0888671875
67.9397433,1.07421875
67.9763017,1.0693359375
67.9805214,1.064453125
68.016703,1.0888671875
68.0170092,1.142578125
68.0525194,1.23046875
68.0727474,1.3134765625
68.0793427,1.38671875
68.0993449,1.42578125
68.1409679,1.4599609375
68.141339,1.4599609375
68.1610529,1.455078125
68.196168,1.4404296875
68.2187761,1.416015625
68.2191591,1.3916015625
68.2519764,1.3671875
68.2729482,1.337890625
68.2799315,1.30859375
68.3136265,1.2939453125
68.3332711,1.279296875
68.3434781,1.279296875
68.3582359,1.2744140625
68.3940514,1.279296875
68.399021,1.2744140625
68.4377908,1.26953125
68.4580596,1.2548828125
68.4599523,1.240234375
68.5023999,1.2158203125
68.502756,1.2109375
68.5333752,1.19140625
68.5388252,1.171875
68.5606036,1.162109375
68.5789618,1.1474609375
68.6261852,1.1328125
68.6266888,1.1181640625
68.6398201,1.11328125
68.6614711,1.11328125
68.6956973,1.1474609375
68.7179806,1.2109375
68.7221572,1.2890625
68.7393125,1.3525390625
68.7745902,1.4111328125
68.7796529,1.4453125
68.813301,1.46484375
68.8351372,1.4697265625
68.8422809,1.4599609375
68.887833,1.4501953125
68.8880553,1.435546875
68.9036344,1.416015625
68.9209882,1.38671875
68.9664798,1.3623046875
68.966701,1.337890625
68.9800212,1.3232421875
69.0144652,1.30859375
69.0368847,1.3134765625
69.0421738,1.3037109375
69.0895459,1.3037109375
69.0900388,1.2939453125
69.1000398,1.2890625
69.1355324,1.2744140625
69.1555469,1.2646484375
69.1594585,1.25
69.1927095,1.220703125
69.2125807,1.201171875
69.2228656,1.181640625
69.2608841,1.162109375
69.2612666,1.142578125
69.2804276,1.1279296875
69.3176579,1.1181640625
69.3231781,1.1181640625
69.3407648,1.1328125
69.3866928,1.181640625
69.3869875,1.2451171875
69.4023614,1.30859375
69.4193077,1.357421875
69.4410078,1.396484375
69.4791122,1.42578125
69.4793895,1.396484375
69.5130723,1.40625
69.5329268,1.40625
69.5437475,1.4111328125
69.5628249,1.396484375
69.5824746,1.3818359375
69.6188765,1.357421875
69.6239727,1.3330078125
69.6406022,1.30859375
69.6817832,1.3037109375
69.682083,1.2939453125
69.7293881,1.2939453125
69.7296706,1.2890625
69.7423437,1.2841796875
69.7921463,1.26953125
69.7925028,1.2646484375
69.8142525,1.25
69.821054,1.23046875
69.8558319,1.2158203125
69.8619807,1.1962890625
69.9022643,1.181640625
69.9025318,1.1669921875
69.9474543,1.15234375
69.9477767,1.1376953125
69.9619853,1.1279296875
69.9985062,1.11328125
69.9987052,1.103515625
70.0357629,1.103515625
70.0565927,1.1376953125
70.0610913,1.19140625
70.0827242,1.259765625
70.1273676,1.328125
70.1279325,1.3671875
70.1440085,1.396484375
70.1588409,1.40625
70.205089,1.416015625
70.2053677,1.416015625
70.2322248,1.40625
70.2410895,1.396484375
70.2754773,1.376953125
70.297631,1.3525390625
70.3049773,1.3330078125
70.3235426,1.3134765625
70.3700458,1.2744140625
70.3705143,1.2451171875
70.3812678,1.2548828125
70.4302631,1.259765625
70.4305671,1.2646484375
70.4409133,1.26953125
70.4740617,1.259765625
70.497239,1.25
70.5049121,1.23046875
70.5518432,1.2109375
70.5521164,1.19140625
70.5615465,1.181640625
70.6093012,1.171875
70.6095096,1.162109375
70.6226982,1.142578125
70.6573542,1.1279296875
70.6755513,1.11328125
70.6852884,1.1083984375
70.700202,1.09375
70.7346236,1.0888671875
70.7563507,1.09375
70.7612504,1.11328125
70.7952959,1.171875
70.8160313,1.240234375
70.8225106,1.3134765625
70.8554665,1.357421875
70.8780672,1.396484375
70.8826131,1.40625
70.9189804,1.416015625
70.9209179,1.4111328125
70.9577355,1.40625
70.9622281,1.3916015625
70.9970907,1.3720703125
71.0191592,1.34765625
71.025374,1.3232421875
71.039975,1.298828125
71.0753108,1.2939453125
71.0952598,1.2890625
71.1034008,1.2841796875
71.1220664,1.2841796875
71.158663,1.279296875
71.162672,1.26953125
71.1990661,1.2548828125
71.2181095,1.2451171875
71.2255298,1.220703125
71.2451221,1.201171875
71.2623979,1.1767578125
71.3066834,1.162109375
71.3070195,1.1474609375
71.3232183,1.1376953125
71.3697919,1.123046875
71.3701241,1.11328125
71.3898213,1.103515625
71.4038948,1.083984375
71.4375616,1.07421875
71.4617497,1.0595703125
71.4620138,1.064453125
71.4957073,1.083984375
71.5176697,1.1376953125
71.5248618,1.2060546875
71.5440479,1.279296875
71.5785078,1.3330078125
71.5988121,1.376953125
71.60094,1.396484375
71.6343308,1.4111328125
71.6631718,1.40625
71.6635769,1.4013671875
71.6970077,1.3818359375
71.718413,1.3720703125
71.726476,1.34765625
71.7462287,1.3232421875
71.7672441,1.2939453125
71.7815584,1.279296875
71.8169763,1.26953125
71.8502868,1.26953125
71.850572,1.26953125
71.8649387,1.26953125
71.9112904,1.2646484375
71.9115662,1.2548828125
71.9275448,1.240234375
71.9466797,1.220703125
71.9661888,1.181640625
71.9817374,1.142578125
72.020818,1.1376953125
72.0211198,1.1376953125
72.0657814,1.1279296875
72.0661151,1.1181640625
72.0853684,1.1083984375
72.1212875,1.103515625
72.1426699,1.0888671875
72.1456391,1.0791015625
72.1635792,1.064453125
72.1998087,1.064453125
72.2041499,1.064453125
72.225711,1.0986328125
72.2597078,1.162109375
72.2637541,1.240234375
72.2959158,1.3037109375
72.3171796,1.357421875
72.3209328,1.38671875
72.3551461,1.416015625
72.3768411,1.4208984375
72.3826626,1.416015625
72.4169786,1.40625
72.4387322,1.38671875
72.4471096,1.3671875
72.4664581,1.337890625
72.5140485,1.3134765625
72.5145229,1.2890625
72.5235667,1.2744140625
72.5586526,1.26953125
72.579169,1.2646484375
72.5855911,1.259765625
72.6204958,1.2646484375
72.6246147,1.2548828125
72.6582287,1.2451171875
72.6832963,1.2353515625
72.6835006,1.2109375
72.730265,1.1962890625
72.7304818,1.181640625
72.7445182,1.1669921875
72.7801476,1.1474609375
72.8082713,1.1328125
72.8084887,1.11328125
72.8428489,1.0986328125
72.8471459,1.083984375
72.8885042,1.07421875
72.8888436,1.064453125
72.9054119,1.0595703125
72.9269328,1.0498046875
72.9460092,1.0498046875
72.9802788,1.0693359375
72.9841356,1.1328125
73.0184231,1.220703125
73.0444031,1.2939453125
73.0495879,1.357421875
73.0656596,1.396484375
73.0847703,1.4208984375
73.1045041,1.4306640625
73.151457,1.4306640625
73.151658,1.4208984375
73.1665496,1.40625
73.1861506,1.3818359375
73.2198822,1.3525390625
73.2440149,1.318359375
73.2442207,1.298828125
73.2911132,1.279296875
73.291444,1.26953125
73.3120933,1.2646484375
73.3269415,1.2646484375
73.3703037,1.259765625
73.3705449,1.2548828125
73.3871266,1.2451171875
73.4048678,1.23046875
73.4534857,1.2158203125
73.4536934,1.1962890625
73.4635611,1.1767578125
73.4990997,1.1572265625
73.5204008,1.142578125
73.5253046,1.123046875
73.5613149,1.1083984375
73.5823535,1.0888671875
73.5869473,1.07421875
73.622612,1.03515625
73.6229499,1.0400390625
73.6672489,1.044921875
73.6674458,1.044921875
73.7147435,1.07421875
73.7150921,1.1328125
73.7285352,1.220703125
73.7755262,1.2939453125
73.7757421,1.3623046875
73.7850497,1.40625
73.8189382,1.435546875
73.8401065,1.4404296875
73.8451531,1.4404296875
73.8838639,1.42578125
73.8883377,1.4111328125
73.924807,1.38671875
73.929702,1.3525390625
73.9496469,1.318359375
73.9648108,1.2890625
73.9871383,1.26953125
74.0233656,1.259765625
74.0279677,1.2548828125
74.0482524,1.2548828125
74.0884237,1.25
74.0888303,1.240234375
74.1343219,1.23046875
74.1345317,1.2158203125
74.1464217,1.2060546875
74.1829586,1.1865234375
74.1902949,1.171875
74.207731,1.15234375
74.2506416,1.1328125
74.2511095,1.11328125
74.2981761,1.0986328125
74.298437,1.083984375
74.3044432,1.0693359375
74.3451126,1.064453125
74.3454628,1.0546875
74.3655537,1.064453125
74.4008068,1.103515625
74.4223212,1.1767578125
74.4266121,1.259765625
74.4614316,1.3330078125
74.482016,1.38671875
74.4912419,1.4208984375
74.5052929,1.435546875
74.5411051,1.4404296875
74.565582,1.4306640625
74.5658943,1.4111328125
74.6115218,1.3916015625
74.6118487,1.357421875
74.6601942,1.3232421875
74.6604679,1.2890625
74.669205,1.279296875
74.685525,1.2646484375
74.7250927,1.2646484375
74.7253831,1.2646484375
74.7727041,1.26953125
74.7729073,1.2646484375
74.7919105,1.259765625
74.8247502,1.2451171875
74.8369316,1.23046875
74.8455363,1.2109375
74.8831828,1.19140625
74.888354,1.171875
74.9076662,1.162109375
74.9275138,1.142578125
74.9784281,1.123046875
74.9787529,1.1083984375
74.9908706,1.09375
75.0272002,1.0791015625
75.0275219,1.0693359375
75.0458418,1.0888671875
75.0807928,1.1376953125
75.1026816,1.220703125
75.1092266,1.298828125
75.1472556,1.3671875
75.147454,1.416015625
75.1815676,1.4501953125
75.2029063,1.4697265625
75.2096546,1.474609375
75.2322033,1.4697265625
75.2468124,1.42578125
75.2833264,1.416015625
75.2889253,1.396484375
75.3080845,1.376953125
75.3416321,1.34765625
75.3618566,1.328125
75.3712647,1.30859375
75.4093994,1.3037109375
75.4096817,1.298828125
75.4284544,1.3037109375
75.4748894,1.2939453125
75.4751517,1.2939453125
75.4899153,1.279296875
75.5093076,1.259765625
75.5532327,1.240234375
75.5535459,1.2255859375
75.5823836,1.2060546875
75.5873277,1.181640625
75.6275428,1.1669921875
75.6278389,1.1474609375
75.6621498,1.1328125
75.6822603,1.1181640625
75.6889496,1.1083984375
75.7356306,1.103515625
75.7360483,1.123046875
75.7551672,1.171875
75.7666855,1.25
75.8060339,1.3232421875
75.8355166,1.3916015625
75.835779,1.4306640625
75.849354,1.455078125
75.8847815,1.46484375
75.9152521,1.455078125
75.9156259,1.4453125
75.9260563,1.435546875
75.9781633,1.4208984375
75.9783654,1.40625
75.9904884,1.3818359375
76.0391889,1.357421875
76.0395132,1.3330078125
76.0488335,1.318359375
76.101801,1.30859375
76.1020575,1.298828125
76.1113561,1.2744140625
76.1276151,1.2744140625
76.178466,1.2744140625
76.1788082,1.2646484375
76.2082349,1.259765625
76.208839,1.2451171875
76.2494009,1.2255859375
76.2497567,1.2109375
76.2870646,1.19140625
76.3177776,1.171875
76.3179768,1.1474609375
76.3292968,1.1328125
76.3481458,1.1181640625
76.3944998,1.103515625
76.3946979,1.09375
76.4161388,1.103515625
76.4318361,1.1474609375
76.4733994,1.2158203125
76.4736349,1.2841796875
76.4911307,1.34765625
76.5080961,1.4013671875
76.5506526,1.4208984375
76.5509104,1.435546875
76.5844972,1.435546875
76.6139628,1.42578125
76.6141691,1.4111328125
76.6308661,1.396484375
76.6483089,1.3720703125
76.6922056,1.3525390625
76.6925559,1.3330078125
76.7213714,1.318359375
76.7290985,1.3037109375
76.7517864,1.298828125
76.7698629,1.2939453125
76.805973,1.2890625
76.8078045,1.279296875
76.844034,1.2841796875
76.8660194,1.2744140625
76.8662253,1.259765625
76.9066903,1.2451171875
76.9279155,1.23046875
76.9281684,1.2109375
76.9688731,1.19140625
76.9902857,1.171875
76.9905813,1.1572265625
77.0269364,1.1376953125
77.0272804,1.1181640625
77.0494854,1.103515625
77.0853279,1.09375
77.108868,1.083984375
77.1092158,1.083984375
77.1545855,1.0986328125
77.1547839,1.162109375
77.174904,1.2255859375
77.1947091,1.3037109375
77.2096078,1.3525390625
77.2302324,1.4013671875
77.2506344,1.416015625
77.2711983,1.4306640625
77.3087826,1.42578125
77.3119873,1.4208984375
77.3315703,1.40625
77.3711198,1.3916015625
77.3713495,1.3671875
77.3902866,1.3525390625
77.434368,1.328125
77.4345757,1.30859375
77.4500887,1.2939453125
77.4968495,1.2890625
77.497051,1.2890625
77.5128774,1.279296875
77.5546007,1.2744140625
77.5548101,1.259765625
77.5697136,1.25
77.6161213,1.2353515625
77.6164361,1.2158203125
77.6299095,1.19140625
77.6649672,1.171875
77.6865197,1.1474609375
77.6928295,1.1279296875
77.7119462,1.1083984375
77.7331846,1.07421875
77.7506637,1.0400390625
77.7708766,1.0400390625
77.8196447,1.044921875
77.8199601,1.044921875
77.8321058,1.0498046875
77.881046,1.0693359375
77.8812789,1.1328125
77.8920774,1.2109375
77.9274943,1.2939453125
77.9594274,1.34765625
77.9596251,1.396484375
77.9728867,1.416015625
77.9910308,1.4306640625
78.0134871,1.42578125
78.0320323,1.416015625
78.0682385,1.396484375
78.0728904,1.376953125
78.0886774,1.34765625
78.136327,1.328125
78.1366429,1.3037109375
78.1696394,1.2841796875
78.1699223,1.2744140625
78.2074461,1.2646484375
78.2285052,1.259765625
78.2351441,1.259765625
78.2535207,1.259765625
78.26943,1.2451171875
78.3061532,1.2353515625
78.3125869,1.2158203125
78.3315885,1.201171875
78.3660269,1.1767578125
78.386708,1.1572265625
78.392222,1.1328125
78.4343654,1.11328125
78.4346437,1.0986328125
78.4652068,1.0791015625
78.4703398,1.0693359375
78.4911611,1.0595703125
78.5270503,1.0546875
78.5311354,1.044921875
78.5659276,1.03515625
78.5859412,1.0302734375
78.5921167,1.0498046875
78.6284286,1.103515625
78.6481214,1.19140625
78.6484017,1.26953125
78.6877719,1.3427734375
78.6928245,1.3916015625
78.7393917,1.4208984375
78.7396013,1.42578125
78.7520165,1.4404296875
78.7870996,1.435546875
78.8159429,1.416015625
78.8162597,1.396484375
78.8325638,1.3671875
78.8765849,1.337890625
78.8769367,1.3134765625
78.8919289,1.2939453125
78.91393,1.279296875
78.9588656,1.2744140625
78.9590635,1.26953125
78.973747,1.26953125
78.9902569,1.259765625
79.0247805,1.2548828125
79.0459119,1.240234375
79.0528451,1.2255859375
79.0887666,1.2060546875
79.093125,1.181640625
79.1334906,1.162109375
79.1337501,1.1376953125
79.1539107,1.1181640625
79.1716769,1.09375
79.1934329,1.083984375
79.2376888,1.0693359375
79.2384484,1.0595703125
79.2522889,1.0498046875
79.2873941,1.044921875
79.3081375,1.03515625
79.3134232,1.044921875
79.3343217,1.083984375
79.3545768,1.142578125
79.3888698,1.2109375
79.3905934,1.3134765625
79.4284053,1.38671875
79.4325064,1.42578125
79.4799878,1.4501953125
79.4804247,1.455078125
79.495654,1.4404296875
79.5427085,1.4208984375
79.5429408,1.4013671875
79.5513328,1.3720703125
79.5875238,1.3427734375
79.6211105,1.3134765625
79.6213671,1.2890625
79.6344487,1.2744140625
79.6836025,1.2646484375
79.6838055,1.259765625
79.6945015,1.2548828125
79.731055,1.2548828125
79.731285,1.240234375
79.7679067,1.2255859375
79.7880026,1.2109375
79.7930832,1.1962890625
79.8303653,1.1767578125
79.8325453,1.1572265625
79.868398,1.1328125
79.8899262,1.1181640625
79.8901687,1.09375
79.9114596,1.0888671875
79.9542472,1.0693359375
79.9545522,1.0595703125
79.9747091,1.0498046875
80.0137754,1.0400390625
80.013973,1.0302734375
80.0483922,1.0400390625
80.069046,1.064453125
80.0715663,1.123046875
80.1136049,1.2255859375
80.1138754,1.3134765625
80.1577667,1.3916015625
80.1579683,1.435546875
80.1741756,1.4697265625
80.2166596,1.4697265625
80.2168563,1.4599609375
80.251404,1.4404296875
80.2808652,1.416015625
80.2811477,1.3818359375
80.2926546,1.3525390625
80.3299534,1.318359375
80.3319477,1.2890625
80.3658555,1.2744140625
80.3866837,1.259765625
80.3935993,1.259765625
80.4286861,1.25
80.4581795,1.25
80.4583782,1.240234375
80.4735017,1.2353515625
80.5083644,1.220703125
80.5131631,1.2060546875
80.5482835,1.181640625
80.5826977,1.1669921875
80.5833183,1.142578125
80.5972338,1.1279296875
80.6128165,1.1083984375
80.6330041,1.0986328125
80.6780392,1.083984375
80.6782385,1.07421875
80.7130167,1.064453125
80.7133366,1.0498046875
80.7508724,1.0498046875
80.7817545,1.0546875
80.7820908,1.1083984375
80.7941396,1.19140625
80.812777,1.2939453125
80.8532803,1.376953125
80.8535407,1.435546875
80.887305,1.4697265625
80.9086498,1.484375
80.9174742,1.4794921875
80.9359586,1.46484375
80.9532201,1.4404296875
80.972659,1.416015625
81.020714,1.38671875
81.0209117,1.318359375
81.0432131,1.2890625
81.0544122,1.2744140625
81.0911448,1.26953125
81.1120998,1.2646484375
81.1161812,1.26953125
81.1513507,1.26953125
81.184818,1.26953125
81.1850151,1.259765625
81.19538,1.2548828125
81.2311942,1.2353515625
81.235943,1.220703125
81.2778679,1.201171875
81.278365,1.181640625
81.2966391,1.1572265625
81.3307577,1.1474609375
81.3513069,1.1279296875
81.3542841,1.1083984375
81.3915255,1.0986328125
81.3956937,1.0888671875
81.4331501,1.083984375
81.4333994,1.09375
81.480671,1.1572265625
81.4808646,1.240234375
81.5112224,1.328125
81.5114999,1.3916015625
81.5567925,1.4453125
81.557247,1.474609375
81.6051666,1.4892578125
81.6054283,1.4892578125
81.6157018,1.4794921875
81.6530978,1.4697265625
81.6837685,1.4453125
81.6842568,1.4208984375
81.6940852,1.38671875
81.7139285,1.3623046875
81.750972,1.337890625
81.7540329,1.3232421875
81.7930223,1.3134765625
81.822942,1.3134765625
81.8231447,1.30859375
81.8372311,1.30859375
81.8744778,1.298828125
81.8764791,1.2890625
81.8932341,1.2744140625
81.9269638,1.259765625
81.9471079,1.2353515625
81.9557436,1.2255859375
81.9932329,1.2060546875
81.9953054,1.1865234375
82.0304673,1.1669921875
82.0530257,1.1474609375
82.0581639,1.1328125
82.0768338,1.123046875
82.1121393,1.1376953125
82.1144464,1.1865234375
82.1500713,1.259765625
82.1709739,1.328125
82.1783306,1.38671875
82.2241901,1.42578125
82.2244622,1.455078125
82.23453,1.4599609375
82.2722058,1.4599609375
82.2772392,1.4599609375
82.2951575,1.4501953125
82.331572,1.4404296875
82.3355498,1.416015625
82.3690777,1.4013671875
82.3909439,1.3720703125
82.3977809,1.3525390625
82.4168456,1.3330078125
82.4668298,1.328125
82.4671594,1.3232421875
82.4757249,1.3232421875
82.4971786,1.3134765625
82.5338314,1.30859375
82.5381789,1.2939453125
82.5800533,1.279296875
82.580352,1.259765625
82.5960131,1.25
82.6312893,1.2353515625
82.6353013,1.2158203125
82.6704992,1.1962890625
82.7047641,1.1767578125
82.7050359,1.1572265625
82.7157677,1.1376953125
82.7524634,1.1279296875
82.7734182,1.123046875
82.7791365,1.1474609375
82.7945217,1.201171875
82.8318969,1.2744140625
82.8618843,1.3330078125
82.8621592,1.3916015625
82.8771776,1.4208984375
82.9120745,1.4404296875
82.9333062,1.4453125
82.9389708,1.4453125
82.9883893,1.435546875
82.9886704,1.42578125
82.9975602,1.4111328125
83.0341154,1.3916015625
83.0369725,1.3671875
83.0730169,1.34765625
83.1045641,1.328125
83.1048842,1.318359375
83.119536,1.3134765625
83.134912,1.30859375
83.1832448,1.30859375
83.1835172,1.3037109375
83.197135,1.2939453125
83.2468391,1.279296875
83.2471145,1.2646484375
83.2732767,1.25
83.2799791,1.2255859375
83.2991199,1.2109375
83.3146921,1.19140625
83.3501,1.1767578125
83.3837278,1.162109375
83.3839282,1.15234375
83.3984736,1.1328125
83.4455069,1.123046875
83.4457322,1.11328125
83.4568979,1.1181640625
83.479256,1.1474609375
83.4992266,1.1865234375
83.5166067,1.23046875
83.5558861,1.3037109375
83.5561549,1.3671875
83.5934414,1.396484375
83.5976039,1.416015625
83.6339784,1.416015625
83.6380712,1.416015625
83.6732802,1.40625
83.6974936,1.3916015625
83.6978682,1.3720703125
83.7170454,1.3525390625
83.767125,1.3330078125
83.7673248,1.318359375
83.7796795,1.3037109375
83.8178713,1.298828125
83.8180769,1.2939453125
83.8618702,1.2890625
83.8620809,1.279296875
83.8834292,1.2841796875
83.8965927,1.2841796875
83.9400935,1.26953125
83.9402983,1.2548828125
83.9591098,1.23046875
83.9928621,1.2158203125
84.013519,1.19140625
84.0209198,1.1767578125
84.0372371,1.1572265625
84.0785561,1.1474609375
84.0788985,1.1328125
84.0981903,1.123046875
84.1363614,1.103515625
84.1365636,1.0986328125
84.186062,1.083984375
84.1862684,1.09375
84.2072852,1.123046875
84.2165602,1.181640625
84.2613684,1.259765625
84.2615832,1.3232421875
84.2792796,1.376953125
84.3236857,1.40625
84.3242687,1.4208984375
84.3416051,1.42578125
84.3853043,1.4208984375
84.3855491,1.40625
84.4010089,1.396484375
84.4174153,1.3720703125
84.4616332,1.3525390625
84.4618382,1.328125
84.4826694,1.3134765625
84.4978826,1.2939453125
84.5347206,1.2939453125
84.5571149,1.2890625
84.5615781,1.279296875
84.607073,1.2744140625
84.6073181,1.259765625
84.6175825,1.2548828125
84.6499038,1.2353515625
84.6728893,1.220703125
84.6800759,1.201171875
84.7332443,1.1767578125
84.733459,1.1572265625
84.7448033,1.142578125
84.7576313,1.123046875
84.7784057,1.11328125
84.7995446,1.0986328125
84.8195451,1.083984375
84.8660026,1.0791015625
84.8663374,1.064453125
84.881131,1.064453125
84.928672,1.0595703125
84.9288686,1.083984375
84.9380783,1.1328125
84.9729206,1.2158203125
84.9768484,1.2890625
85.0123399,1.3525390625
85.0319668,1.38671875
85.0404594,1.4111328125
85.0842323,1.416015625
85.084578,1.4111328125
85.106668,1.4013671875
85.1224836,1.357421875
85.1379615,1.318359375
85.1787881,1.318359375
85.1791332,1.30859375
85.1986935,1.2939453125
85.2341295,1.2841796875
85.2561389,1.279296875
85.2616173,1.2744140625
85.3008254,1.2744140625
85.3011674,1.2744140625
85.3212244,1.26953125
85.3390702,1.26953125
85.3595669,1.2646484375
85.4104139,1.2548828125
85.4106268,1.240234375
85.4212595,1.23046875
85.4569463,1.2109375
85.4771261,1.1865234375
85.4815253,1.171875
85.4975265,1.1474609375
85.5360126,1.1279296875
85.566488,1.11328125
85.5667758,1.103515625
85.5817572,1.083984375
85.6265413,1.0791015625
85.6267621,1.0791015625
85.6427076,1.1083984375
85.657591,1.1669921875
85.704695,1.25
85.705044,1.30859375
85.7250158,1.3623046875
85.7393963,1.396484375
85.7839591,1.4111328125
85.7843345,1.4111328125
85.7998715,1.40625
85.836525,1.3916015625
85.8626951,1.3671875
85.8629165,1.3427734375
85.8793506,1.3134765625
85.9161718,1.2841796875
85.9213788,1.2646484375
85.9711557,1.259765625
85.9715854,1.2548828125
85.9825659,1.259765625
86.0192451,1.259765625
86.0211392,1.259765625
86.0380291,1.25
86.0716139,1.2451171875
86.0932843,1.2353515625
86.1008823,1.220703125
86.1418545,1.2060546875
86.1422498,1.1865234375
86.1719762,1.1669921875
86.1822677,1.15234375
86.2192612,1.1328125
86.2196047,1.1181640625
86.262386,1.103515625
86.2627302,1.09375
86.2828852,1.083984375
86.3191512,1.083984375
86.3194567,1.09375
86.3580008,1.142578125
86.3877023,1.2158203125
86.3880439,1.2890625
86.4006338,1.3525390625
86.4498129,1.3916015625
86.4501247,1.42578125
86.4632989,1.435546875
86.481556,1.4306640625
86.5276371,1.4208984375
86.5278365,1.40625
86.5421803,1.3916015625
86.558834,1.3720703125
86.60373,1.3525390625
86.6041198,1.328125
86.6245922,1.3134765625
86.6414095,1.298828125
86.6752804,1.2939453125
86.6976099,1.2890625
86.7021335,1.2890625
86.71882,1.2841796875
86.7540438,1.279296875
86.7757956,1.2744140625
86.7803046,1.2353515625
86.8239165,1.23046875
86.8241479,1.220703125
86.8412774,1.2109375
86.886238,1.1865234375
86.8865618,1.1767578125
86.9161572,1.15234375
86.9234054,1.1376953125
86.9564329,1.123046875
86.9604798,1.123046875
86.9962411,1.1181640625
87.0262153,1.1474609375
87.0264132,1.1962890625
87.0438843,1.2646484375
87.0893386,1.318359375
87.0895689,1.3720703125
87.102365,1.40625
87.1200226,1.4208984375
87.1555764,1.4306640625
87.1607439,1.42578125
87.1974317,1.4208984375
87.2025009,1.4111328125
87.2228179,1.40625
87.2581632,1.38671875
87.2917061,1.3623046875
87.2919062,1.337890625
87.2997292,1.318359375
87.3366625,1.3037109375
87.3692229,1.298828125
87.3698034,1.2939453125
87.3826254,1.2890625
87.4178972,1.2890625
87.4222325,1.2744140625
87.4572722,1.2646484375
87.4783419,1.25
87.4786138,1.240234375
87.5193222,1.2255859375
87.5417681,1.2109375
87.5419872,1.1865234375
87.5829687,1.1767578125
87.5831742,1.15234375
87.6055269,1.1328125
87.6460255,1.1083984375
87.6462279,1.07421875
87.6607653,1.0693359375
87.7051481,1.09375
87.7054406,1.1474609375
87.7244565,1.2255859375
87.7668784,1.2939453125
87.7672608,1.337890625
87.8006582,1.376953125
87.8030193,1.3916015625
87.8411007,1.396484375
87.8413809,1.3916015625
87.8611447,1.38671875
87.8965371,1.376953125
87.9256951,1.3623046875
87.9258952,1.3427734375
87.9434554,1.318359375
87.9813178,1.2939453125
87.9858256,1.279296875
88.0009915,1.26953125
88.0379576,1.2646484375
88.0420633,1.2744140625
88.083083,1.26953125
88.0833972,1.2646484375
88.1045766,1.2548828125
88.1250637,1.2451171875
88.1613234,1.2255859375
88.1656417,1.2109375
88.1831232,1.19140625
88.2188669,1.1767578125
88.2233011,1.162109375
88.258735,1.1474609375
88.2632974,1.1279296875
88.3013676,1.11328125
88.3015707,1.09375
88.3484323,1.0791015625
88.3488181,1.064453125
88.3698579,1.07421875
88.3816888,1.1181640625
88.4276423,1.181640625
88.4279901,1.2548828125
88.450551,1.3134765625
88.4640495,1.357421875
88.4851486,1.3818359375
88.5202334,1.396484375
88.5249674,1.3916015625
88.5595014,1.38671875
88.5898852,1.3720703125
88.5901273,1.357421875
88.6022391,1.3330078125
88.6358782,1.3134765625
88.6569419,1.2890625
88.6641108,1.26953125
88.7022632,1.2548828125
88.7063711,1.25
88.7429679,1.2451171875
88.7432307,1.2451171875
88.7885094,1.2451171875
88.7887647,1.2451171875
88.8044147,1.2353515625
88.8420202,1.220703125
88.8439501,1.201171875
88.8779718,1.181640625
88.8991634,1.1669921875
88.9035998,1.142578125
88.9397384,1.1279296875
88.9421821,1.11328125
88.9784739,1.103515625
89.0119339,1.083984375
89.0121399,1.083984375
89.0269214,1.07421875
89.0746792,1.064453125
89.0748749,1.0693359375
89.0837415,1.1083984375
89.1025443,1.181640625
89.1478274,1.259765625
89.1481533,1.3232421875
89.1633263,1.3671875
89.1972877,1.396484375
89.2192463,1.40625
89.227195,1.40625
89.247661,1.396484375
89.2666323,1.357421875
89.2827238,1.3232421875
89.3185014,1.3134765625
89.3503542,1.3037109375
89.3505563,1.2841796875
89.3660174,1.2744140625
89.4101942,1.259765625
89.4109029,1.259765625
89.4262426,1.259765625
89.463325,1.2548828125
89.4635798,1.25
89.5034422,1.2548828125
89.5038072,1.240234375
89.5366414,1.23046875
89.5582897,1.2109375
89.5651158,1.19140625
89.6132448,1.171875
89.6134648,1.1474609375
89.6438813,1.1279296875
89.6441587,1.11328125
89.6803077,1.0986328125
89.684532,1.0791015625
89.7047663,1.064453125
89.7406499,1.0498046875
89.7658269,1.0400390625
89.7660376,1.0498046875
89.7878326,1.103515625
89.8029788,1.1767578125
89.8239819,1.2646484375
89.8648945,1.3330078125
89.8651975,1.376953125
89.8997085,1.40625
89.9040011,1.416015625
89.9393349,1.416015625
89.9590999,1.4013671875
89.9694787,1.3916015625
89.984455,1.3623046875
90.0195396,1.337890625
90.0246926,1.30859375
90.0445874,1.2890625
90.0854469,1.26953125
90.0857059,1.259765625
90.1156155,1.2548828125
90.1260621,1.2548828125
90.1616491,1.25
90.1934199,1.25
90.1936541,1.2353515625
90.2036234,1.23046875
90.2377943,1.2109375
90.2587266,1.1962890625
90.265458,1.1767578125
90.28601,1.162109375
90.3380614,1.1376953125
90.3382628,1.1181640625
90.349463,1.103515625
90.3640266,1.083984375
90.4006081,1.0693359375
90.4209955,1.0546875
90.4263828,1.0498046875
90.4634386,1.0498046875
90.4678383,1.0791015625
90.5096208,1.15234375
90.5098777,1.23046875
90.5235547,1.298828125
90.5593963,1.3623046875
90.5653887,1.396484375
90.584603,1.416015625
90.6189515,1.42578125
90.6395318,1.4111328125
90.6461149,1.396484375
90.6814151,1.3720703125
90.7011665,1.34765625
90.7040343,1.3134765625
90.7411034,1.2841796875
90.7454883,1.2646484375
90.7789971,1.2548828125
90.8002506,1.25
90.8070625,1.2548828125
90.827427,1.2548828125
90.865833,1.25
90.8660613,1.2451171875
90.8880188,1.2109375
90.9034545,1.1767578125
90.9396665,1.181640625
90.9613794,1.1767578125
90.9658174,1.162109375
91.0002236,1.15234375
91.0222584,1.1328125
91.0293534,1.123046875
91.048568,1.103515625
91.0832088,1.09375
91.1043933,1.083984375
91.1046368,1.0791015625
91.1399618,1.0986328125
91.1600561,1.1572265625
91.1669641,1.23046875
91.2006274,1.3134765625
91.2216862,1.3671875
91.2282636,1.416015625
91.2666912,1.4453125
91.2668887,1.4453125
91.2877186,1.4453125
91.3330419,1.435546875
91.3333309,1.42578125
91.3458438,1.40625
91.3830083,1.376953125
91.4106151,1.3427734375
91.4108295,1.318359375
91.4245456,1.2939453125
91.4622974,1.2890625
91.4666868,1.2841796875
91.5018228,1.2841796875
91.506396,1.2841796875
91.5435744,1.2841796875
91.5478224,1.26953125
91.583555,1.2646484375
91.6045425,1.25
91.6047557,1.23046875
91.6404509,1.2158203125
91.6623441,1.201171875
91.6669231,1.181640625
91.7001338,1.162109375
91.7224118,1.142578125
91.7290076,1.1181640625
91.7707691,1.103515625
91.7709654,1.09375
91.7905704,1.1083984375
91.8064605,1.1572265625
91.8503944,1.2353515625
91.8507364,1.30859375
91.8664147,1.3671875
91.9010108,1.4111328125
91.9227285,1.4306640625
91.9274407,1.4453125
91.9648608,1.4404296875
91.9825204,1.435546875
91.9845384,1.4208984375
92.027632,1.4111328125
92.0279134,1.3916015625
92.049468,1.3720703125
92.0688001,1.34765625
92.1031463,1.3330078125
92.1081639,1.3134765625
92.1440031,1.30859375
92.1700368,1.3037109375
92.1703138,1.298828125
92.1884268,1.2939453125
92.2244847,1.2939453125
92.2289628,1.2841796875
92.2639661,1.26953125
92.2684737,1.25
92.3099156,1.2353515625
92.3101226,1.2109375
92.3406864,1.1865234375
92.3454145,1.171875
92.3812371,1.15234375
92.403804,1.1376953125
92.4089178,1.123046875
92.4488512,1.1181640625
92.4494079,1.1376953125
92.468045,1.19140625
92.4868259,1.25
92.5059337,1.318359375
92.5521074,1.3720703125
92.5524206,1.3720703125
92.5698171,1.396484375
92.6061444,1.4013671875
92.6094338,1.4111328125
92.6523304,1.4013671875
92.6526995,1.396484375
92.6694946,1.376953125
92.7051241,1.357421875
92.7054932,1.328125
92.7282455,1.30859375
92.7681708,1.2890625
92.7684135,1.2841796875
92.8019266,1.279296875
92.8221362,1.279296875
92.8297736,1.26953125
92.8653833,1.26953125
92.8859466,1.259765625
92.8863368,1.25
92.9214343,1.2353515625
92.9412455,1.220703125
92.9488645,1.2060546875
92.9839436,1.1865234375
93.0062622,1.1669921875
93.0110518,1.1474609375
93.0301729,1.1328125
93.0469402,1.11328125
93.0945275,1.0986328125
93.0948677,1.09375
93.1148456,1.1181640625
93.1300455,1.1669921875
93.1719158,1.23046875
93.1722571,1.298828125
93.2068709,1.34765625
93.2109946,1.3818359375
93.2276889,1.396484375
93.2634509,1.40625
93.2836615,1.40625
93.2879555,1.4013671875
93.3249518,1.3916015625
93.3287904,1.3818359375
93.3742297,1.357421875
93.3745737,1.3330078125
93.393987,1.30859375
93.4109855,1.2939453125
93.4268076,1.279296875
93.460837,1.2744140625
93.483042,1.2744140625
93.4908433,1.2744140625
93.5256868,1.26953125
93.5306495,1.259765625
93.566706,1.25
93.594522,1.23046875
93.5947205,1.2158203125
93.6086433,1.1962890625
93.6568643,1.1865234375
93.657213,1.171875
93.6765183,1.162109375
93.6899849,1.142578125
93.7258749,1.1279296875
93.7299023,1.1083984375
93.7642809,1.09375
93.7851783,1.083984375
93.7881812,1.0888671875
93.824588,1.1279296875
93.844068,1.1865234375
93.8480949,1.2548828125
93.8841165,1.3134765625
93.9064282,1.3623046875
93.9118527,1.38671875
93.9509048,1.4013671875
93.9511197,1.4013671875
93.9678982,1.396484375
94.0039172,1.38671875
94.0288352,1.3720703125
94.0290432,1.3525390625
94.065671,1.328125
94.093658,1.3037109375
94.0939525,1.2841796875
94.1077144,1.26953125
94.143863,1.2744140625
94.1488705,1.279296875
94.1845743,1.279296875
94.1907705,1.279296875
94.2097882,1.26953125
94.2481983,1.259765625
94.2484578,1.2451171875
94.286581,1.2255859375
94.3086765,1.2060546875
94.311709,1.19140625
94.3454122,1.171875
94.3474098,1.1572265625
94.3850353,1.142578125
94.392285,1.1328125
94.4273763,1.11328125
94.4304128,1.0986328125
94.4645576,1.0888671875
94.484619,1.07421875
94.4922525,1.0791015625
94.5072008,1.11328125
94.542644,1.181640625
94.5643212,1.25
94.572537,1.318359375
94.5910213,1.357421875
94.6346837,1.38671875
94.6348882,1.396484375
94.681175,1.4013671875
94.681384,1.38671875
94.6895439,1.38671875
94.7286542,1.3671875
94.7289265,1.3525390625
94.7663182,1.3232421875
94.7703668,1.3037109375
94.8206286,1.2841796875
94.8209793,1.26953125
94.8413463,1.2646484375
94.8486266,1.259765625
94.8840321,1.2646484375
94.9055634,1.259765625
94.9107262,1.259765625
94.9463133,1.25
94.9505552,1.240234375
94.9911738,1.220703125
94.9915127,1.2060546875
95.0110841,1.1865234375
95.0326795,1.142578125
95.0494884,1.1083984375
95.0856795,1.1083984375
95.1074406,1.1083984375
95.1127917,1.0986328125
95.1632651,1.0888671875
95.1635253,1.083984375
95.1723369,1.0888671875
95.210116,1.0888671875
95.2295991,1.11328125
95.2300005,1.1669921875
95.2666065,1.25
95.271618,1.3134765625
95.3170116,1.376953125
95.3173691,1.40625
95.3366621,1.4306640625
95.3535601,1.4306640625
95.3885914,1.42578125
95.3888656,1.40625
95.4245501,1.4013671875
95.4554429,1.38671875
95.4557839,1.357421875
95.4713226,1.3330078125
95.5080115,1.30859375
95.5129775,1.2939453125
95.5486187,1.2841796875
95.5796098,1.2841796875
95.5799892,1.2841796875
95.589603,1.2841796875
95.6255231,1.279296875
95.6561385,1.2646484375
95.6563956,1.2548828125
95.6740239,1.240234375
95.7188578,1.2255859375
95.7191096,1.201171875
95.7346769,1.19140625
95.7498078,1.1669921875
95.7845144,1.15234375
95.8040522,1.1328125
95.8113038,1.123046875
95.8602372,1.103515625
95.8605853,1.09375
95.8798543,1.0791015625
95.8939229,1.07421875
95.9279654,1.07421875
95.950459,1.1181640625
95.9508016,1.181640625
95.9980181,1.2646484375
95.9983595,1.328125
96.0176529,1.3720703125
96.0317232,1.396484375
96.065557,1.4111328125
96.0854213,1.4111328125
96.0948559,1.396484375
96.1297137,1.3818359375
96.1494958,1.357421875
96.149806,1.3330078125
96.1838439,1.30859375
96.203473,1.2939453125
96.2140122,1.279296875
96.2351185,1.2744140625
96.2765869,1.26953125
96.2768705,1.26953125
96.2917955,1.2646484375
96.3258335,1.2744140625
96.3307689,1.2646484375
96.3689752,1.259765625
96.3732226,1.25
96.4081867,1.23046875
96.4382345,1.2109375
96.4384319,1.19140625
96.4719357,1.1767578125
96.4725239,1.1572265625
96.4919218,1.142578125
96.513198,1.1279296875
96.5508382,1.11328125
96.5555538,1.0986328125
96.5986325,1.0986328125
96.5988608,1.0986328125
96.6139647,1.1328125
96.6341068,1.1962890625
96.6574438,1.25
96.6726461,1.2890625
96.6936973,1.3671875
96.7119359,1.4111328125
96.7492361,1.42578125
96.7534776,1.4306640625
96.8008502,1.42578125
96.8011933,1.416015625
96.8158237,1.40625
96.8527823,1.4013671875
96.8530075,1.3720703125
96.8877404,1.3525390625
96.9084029,1.328125
96.9132132,1.3134765625
96.9485142,1.3037109375
96.9534013,1.3037109375
96.9880514,1.3037109375
97.0185227,1.2939453125
97.0187358,1.2890625
97.0314089,1.2744140625
97.0675147,1.2646484375
97.0718238,1.25
97.1087998,1.2353515625
97.1275276,1.220703125
97.1340806,1.201171875
97.1740582,1.181640625
97.1742901,1.162109375
97.192512,1.142578125
97.2117554,1.1376953125
97.2498442,1.123046875
97.2516434,1.1181640625
97.2901774,1.123046875
97.2945612,1.1572265625
97.3319262,1.2158203125
97.3337682,1.2939453125
97.3682912,1.3525390625
97.3884479,1.38671875
97.39342,1.416015625
97.4275947,1.42578125
97.4472185,1.4306640625
97.4533137,1.42578125
97.4909259,1.4208984375
97.4949171,1.40625
97.5295118,1.38671875
97.5522229,1.3623046875
97.5578154,1.337890625
97.5731456,1.318359375
97.6216636,1.3037109375
97.6220142,1.298828125
97.6412348,1.2939453125
97.6555084,1.298828125
97.6913307,1.2890625
97.6964092,1.279296875
97.7295809,1.26953125
97.7512511,1.259765625
97.7514807,1.240234375
97.7915573,1.2353515625
97.8110155,1.2158203125
97.8130238,1.201171875
97.8546796,1.181640625
97.8550418,1.1669921875
97.8849218,1.1474609375
97.8961933,1.1328125
97.9123739,1.11328125
97.9467227,1.1083984375
97.967851,1.11328125
97.9742976,1.1669921875
97.99465,1.23046875
98.0400326,1.2890625
98.0403746,1.3427734375
98.0602592,1.3818359375
98.0758266,1.4013671875
98.0931099,1.40625
98.1277749,1.4111328125
98.1472286,1.40625
98.1544096,1.396484375
98.1884791,1.3818359375
98.2084763,1.3623046875
98.2166664,1.337890625
98.2594551,1.3232421875
98.2598314,1.3037109375
98.2764968,1.2939453125
98.2979372,1.2646484375
98.3137511,1.240234375
98.3506481,1.2548828125
98.3706107,1.259765625
98.3766552,1.2646484375
98.4129779,1.259765625
98.4170784,1.25
98.4557972,1.2353515625
98.4561944,1.2255859375
98.4753031,1.2060546875
98.5094695,1.1962890625
98.5163199,1.181640625
98.5351367,1.171875
98.5848173,1.15234375
98.585176,1.1376953125
98.5978243,1.11328125
98.6179493,1.1083984375
98.6623029,1.0986328125
98.6626455,1.1083984375
98.6758048,1.1572265625
98.7228299,1.2255859375
98.7230384,1.2939453125
98.7366896,1.34765625
98.7570658,1.38671875
98.799351,1.4013671875
98.7996278,1.40625
98.8134166,1.4013671875
98.8613622,1.396484375
98.8615709,1.38671875
98.884143,1.376953125
98.8960066,1.3525390625
98.9340619,1.328125
98.9342613,1.30859375
98.979886,1.2890625
98.980191,1.279296875
98.999413,1.2744140625
99.0135109,1.2744140625
99.0482745,1.2744140625
99.0686979,1.26953125
99.0742081,1.259765625
99.1091336,1.25
99.1346908,1.23046875
99.1377557,1.2158203125
99.1738235,1.1962890625
99.2041356,1.1767578125
99.2043939,1.1572265625
99.2155174,1.142578125
99.2651882,1.1279296875
99.2654996,1.123046875
99.2950003,1.11328125
99.2952918,1.0986328125
99.3401781,1.0888671875
99.340381,1.083984375
99.3617872,1.0986328125
99.3757704,1.1474609375
99.4165615,1.2255859375
99.4168616,1.2939453125
99.4534075,1.3525390625
99.4551639,1.38671875
99.4890583,1.40625
99.5087796,1.4013671875
99.51679,1.4013671875
99.5355722,1.3916015625
99.571351,1.376953125
99.5765856,1.3623046875
99.6172952,1.337890625
99.6174988,1.3134765625
99.6500856,1.2890625
99.6697178,1.279296875
99.677797,1.26953125
99.7112481,1.2646484375
99.7307791,1.259765625
99.7347252,1.259765625
99.7665615,1.259765625
99.7885983,1.2548828125
99.79512,1.240234375
99.826892,1.2255859375
99.8512723,1.2109375
99.8573508,1.19140625
99.8905504,1.171875
99.8945445,1.1669921875
99.9272695,1.15234375
99.9473677,1.1376953125
99.9548351,1.123046875
99.9926549,1.1083984375
99.9977724,1.09375
100.0329514,1.0791015625
100.0369427,1.0791015625
100.0709924,1.103515625
100.1001532,1.1669921875
100.1004351,1.2353515625
100.1161275,1.3037109375
100.148857,1.3525390625
100.1707041,1.38671875
100.1788301,1.4013671875
100.1995547,1.4013671875
100.240438,1.396484375
100.2406439,1.3818359375
100.2740461,1.3623046875
100.2936762,1.337890625
100.2956292,1.318359375
100.3295689,1.2939453125
100.3486597,1.2744140625
100.3567713,1.2646484375
100.3911133,1.259765625
100.4113094,1.2548828125
100.4196976,1.259765625
100.4367226,1.2548828125
100.4721189,1.2548828125
100.4762179,1.2451171875
100.5214866,1.23046875
100.5221415,1.2109375
100.5416526,1.201171875
100.5751786,1.181640625
100.5797619,1.1572265625
100.6301675,1.142578125
100.6304704,1.123046875
100.6378211,1.103515625
100.6567691,1.0888671875
100.6940135,1.083984375
100.6959877,1.0693359375
100.7324048,1.0595703125
100.7512315,1.0595703125
100.7591203,1.09375
100.7933503,1.1572265625
100.7996448,1.2158203125
100.8166845,1.2646484375
100.8623008,1.3330078125
100.8626371,1.3818359375
100.8845739,1.396484375
100.8977556,1.40625
100.9318835,1.396484375
100.9538263,1.38671875
100.9612266,1.3671875
100.9804954,1.3427734375
100.9978003,1.3134765625
101.0362365,1.2939453125
101.0366405,1.2744140625
101.0575415,1.26953125
101.0936663,1.2646484375
101.0976562,1.26953125
101.1306252,1.2646484375
101.1526892,1.2646484375
101.1572425,1.25
101.1768473,1.25
101.2129198,1.240234375
101.235633,1.220703125
101.2404459,1.201171875
101.2596405,1.181640625
101.2819628,1.162109375
101.3003039,1.1474609375
101.3377041,1.1376953125
101.3379775,1.123046875
101.3574736,1.11328125
101.3943774,1.0986328125
101.39636,1.0888671875
101.4299812,1.083984375
101.4497107,1.1083984375
101.4602331,1.162109375
101.501273,1.240234375
101.5015555,1.3134765625
101.5215721,1.3671875
101.5381617,1.40625
