fs,t,y
52.54314605951935,0.23720430000000015,0.5224609375
,0.2575598000000001,0.625
,0.2581101000000001,0.8447265625
,0.2770638000000001,1.103515625
,0.2983093000000001,1.4111328125
,0.31662029999999985,1.6943359375
,0.3369453,1.982421875
,0.37929820000000003,2.2314453125
,0.3798018999999999,2.4609375
,0.3987978000000001,2.65625
,0.43598019999999993,2.841796875
,0.43893609999999983,2.9833984375
,0.4572775,3.0615234375
,0.49295,3.076171875
,0.4959410000000002,3.0224609375
,0.5327643000000002,2.9345703125
,0.5543868999999999,2.8369140625
,0.5576273,2.724609375
,0.6011603999999999,2.6123046875
,0.6015250000000001,2.4853515625
,0.6148614000000001,2.3583984375
,0.6638353000000001,2.216796875
,0.6643127999999998,2.0849609375
,0.6757124000000001,1.9580078125
,0.7116107999999999,1.8310546875
,0.7314783999999999,1.7041015625
,0.7377774000000001,1.5869140625
,0.7745511,1.4697265625
,0.8021690000000001,1.3671875
,0.8026135000000001,1.2646484375
,0.8196815000000002,1.15234375
,0.8367629000000001,1.0498046875
,0.8745539,0.986328125
,0.8751012999999999,0.9228515625
,0.9269620000000001,0.8642578125
,0.927352,0.8056640625
,0.9469623,0.7568359375
,0.9612921999999999,0.703125
,0.9965139999999999,0.654296875
,0.9969725999999999,0.6103515625
,1.0312310999999998,0.5712890625
,1.0411791,0.5322265625
,1.0584915000000001,0.5078125
,1.0788269000000001,0.498046875
,1.1163918000000002,0.5419921875
,1.1193317999999999,0.703125
,1.1529642999999998,0.9326171875
,1.1732896,1.220703125
,1.1764883,1.513671875
,1.2138067000000001,1.81640625
,1.2178234,2.0703125
,1.2403551,2.3193359375
,1.2595421999999998,2.529296875
,1.2800566999999998,2.724609375
,1.3140494,2.8662109375
,1.3198433999999999,2.978515625
,1.3371862,3.0078125
,1.3565094000000002,2.9833984375
,1.3964004,2.91015625
,1.3982507000000002,2.822265625
,1.418854,2.724609375
,1.4555874000000002,2.626953125
,1.4587672999999999,2.51953125
,1.5056018,2.40234375
,1.5060229,2.275390625
,1.517242,2.1435546875
,1.5670343999999998,2.0263671875
,1.5673933999999998,1.884765625
,1.5769189,1.7822265625
,1.6136541000000002,1.6748046875
,1.6199142000000002,1.572265625
,1.6398839,1.474609375
,1.6771943,1.3818359375
,1.6817973,1.298828125
,1.7019389,1.23046875
,1.7211268999999998,1.1669921875
,1.7383418000000002,1.103515625
,1.7853341999999999,1.0498046875
,1.7857660000000002,1.0009765625
,1.7998938,0.9423828125
,1.8370654000000002,0.8935546875
,1.8417748999999999,0.83984375
,1.8600268999999998,0.791015625
,1.8974989,0.7421875
,1.8980820999999999,0.703125
,1.9162583,0.6884765625
,1.9518616999999998,0.7275390625
,1.9729304,0.8837890625
,1.9813359,1.103515625
,2.0006338,1.3818359375
,2.0354267999999998,1.6748046875
,2.0549704,1.93359375
,2.0613118000000004,2.1826171875
,2.0788222999999997,2.3876953125
,2.0987191000000003,2.5927734375
,2.1458598,2.75390625
,2.1465578,2.890625
,2.1594930999999997,2.958984375
,2.1941740999999997,2.958984375
,2.2234415,2.8955078125
,2.2240475,2.8076171875
,2.2412883,2.705078125
,2.2645052000000003,2.578125
,2.2795083,2.4609375
,2.3161300000000002,2.36328125
,2.3207810999999996,2.255859375
,2.3405018999999996,2.1435546875
,2.3604798999999996,2.03125
,2.3959161,1.9189453125
,2.401897,1.8017578125
,2.4220300999999997,1.6943359375
,2.4431808999999998,1.58203125
,2.4585054,1.4794921875
,2.4959423000000003,1.3916015625
,2.4989001999999996,1.30859375
,2.5367936,1.2255859375
,2.5412872,1.1474609375
,2.5609275,1.0693359375
,2.5966218000000003,1.005859375
,2.6021469,0.9423828125
,2.6186071,0.8935546875
,2.6389585999999996,0.8447265625
,2.6598413,0.80078125
,2.7063441,0.7568359375
,2.7069345,0.712890625
,2.7197506999999996,0.673828125
,2.7552002,0.6396484375
,2.7756396,0.6103515625
,2.7826481000000003,0.595703125
,2.7991444000000003,0.654296875
,2.8474104000000002,0.830078125
,2.8477656,1.083984375
,2.8609951999999996,1.38671875
,2.8800869000000002,1.6796875
,2.9248334,1.982421875
,2.9254404999999997,2.24609375
,2.9594015000000002,2.4951171875
,2.9600106999999998,2.705078125
,2.9843082,2.9150390625
,3.0034674,3.056640625
,3.0208549,3.1396484375
,3.0565613999999997,3.18359375
,3.0799500999999996,3.14453125
,3.0803133000000003,3.056640625
,3.1135751999999997,2.9541015625
,3.1348066,2.841796875
,3.1440621,2.7294921875
,3.1816609,2.6025390625
,3.1822454999999996,2.4755859375
,3.1995563000000002,2.34375
,3.2504413000000003,2.2119140625
,3.2508106000000003,2.0849609375
,3.2834817999999997,1.9580078125
,3.2840819999999997,1.8359375
,3.3024611999999998,1.71875
,3.3400193,1.6064453125
,3.3445924,1.494140625
,3.3608599000000003,1.396484375
,3.3965332999999998,1.30859375
,3.4000509,1.23046875
,3.4362769999999996,1.15234375
,3.4405703,1.0791015625
,3.4754864000000003,1.0107421875
,3.4962728,0.9521484375
,3.5042986999999997,0.8984375
,3.5203346,0.849609375
,3.5538933000000004,0.810546875
,3.5744949999999998,0.7666015625
,3.5822786000000004,0.7275390625
,3.6030023,0.68359375
,3.6529757,0.6494140625
,3.6533663,0.6201171875
,3.6618397,0.60546875
,3.6977914,0.654296875
,3.7172720000000004,0.80078125
,3.7236583000000003,1.03515625
,3.7400656000000003,1.30859375
,3.774863,1.6455078125
,3.7965374,1.943359375
,3.8021329,2.2265625
,3.8224123,2.470703125
,3.8688288999999996,2.7001953125
,3.8691977,2.8955078125
,3.8837729999999997,3.0615234375
,3.899482,3.1689453125
,3.9373636000000003,3.212890625
,3.9424674,3.1689453125
,3.977874,3.0712890625
,3.9839937,2.9541015625
,4.0041111,2.8271484375
,4.0227413,2.7099609375
,4.0581068,2.578125
,4.0786423,2.451171875
,4.0829264,2.314453125
,4.1011488,2.16796875
,4.1354421,2.041015625
,4.1415657,1.904296875
,4.1825746,1.77734375
,4.1831214,1.650390625
,4.2187107,1.533203125
,4.2236027,1.42578125
,4.2396142,1.3232421875
,4.2928691,1.240234375
,4.2933228,1.1572265625
,4.3008729,1.0791015625
,4.3224803,1.0009765625
,4.3425228,0.9326171875
,4.3785867,0.8740234375
,4.3977778,0.810546875
,4.4032959,0.7568359375
,4.4228052,0.712890625
,4.4459281,0.64453125
,4.4630882,0.5908203125
,4.4814398,0.56640625
,4.524699,0.537109375
,4.525179,0.517578125
,4.5438143,0.498046875
,4.5649663,0.5224609375
,4.5847464,0.64453125
,4.6191788,0.8544921875
,4.6405697,1.1474609375
,4.6409908,1.4453125
,4.6791269,1.7626953125
,4.6818861,2.0361328125
,4.7288928,2.2998046875
,4.7292641,2.5146484375
,4.7444644,2.7197265625
,4.789222,2.8759765625
,4.7898247,3.0126953125
,4.8032479,3.0615234375
,4.838684,3.046875
,4.8426222,2.978515625
,4.8630749,2.880859375
,4.8841925,2.7783203125
,4.9044782,2.6708984375
,4.9419004,2.5537109375
,4.9442672,2.4365234375
,4.9643304,2.3046875
,4.9816954,2.1728515625
,5.018616,2.05078125
,5.0244608,1.93359375
,5.0440472,1.8115234375
,5.0647017,1.7041015625
,5.0848373,1.5966796875
,5.1311664,1.4990234375
,5.1317638,1.4013671875
,5.1456349,1.3134765625
,5.1668622,1.2158203125
,5.1830089,1.1279296875
,5.2185165,1.0791015625
,5.2235212,1.0302734375
,5.2443181,0.9765625
,5.2805178,0.927734375
,5.2850742,0.8837890625
,5.3070591,0.83984375
,5.3255449,0.7958984375
,5.3465324,0.76171875
,5.3635798,0.72265625
,5.3826675,0.6982421875
,5.4036042,0.6787109375
,5.4406236,0.693359375
,5.4433762,0.7763671875
,5.4811419,0.9765625
,5.4867929,1.2353515625
,5.5066595,1.5380859375
,5.5216715,1.81640625
,5.5616677,2.099609375
,5.5620288,2.3486328125
,5.5826327,2.5537109375
,5.6046144,2.744140625
,5.6397484,2.8955078125
,5.6603708,3.0078125
,5.6654428,3.046875
,5.6862217,3.017578125
,5.7046955,2.9296875
,5.7233414,2.83203125
,5.7640497,2.734375
,5.7644087,2.6171875
,5.7851868,2.509765625
,5.8061978,2.40234375
,5.8414188,2.2802734375
,5.8460145,2.1484375
,5.8662996,2.0263671875
,5.8880265,1.9091796875
,5.9075768,1.7724609375
,5.9235121,1.6455078125
,5.9582193,1.5576171875
,5.977576,1.46484375
,5.9850645,1.3818359375
,6.0196404999999995,1.298828125
,6.039809399999999,1.2255859375
,6.045272499999999,1.1474609375
,6.066908400000001,1.083984375
,6.0829071,1.0205078125
,6.1183456,0.966796875
,6.1397523,0.9130859375
,6.145401,0.8642578125
,6.1654813,0.8154296875
,6.200351100000001,0.7763671875
,6.2200702,0.7275390625
,6.2274805,0.68359375
,6.248047700000001,0.64453125
,6.263243599999999,0.6103515625
,6.3014557,0.5908203125
,6.3046229,0.60546875
,6.326054900000001,0.7177734375
,6.346357299999999,0.9228515625
,6.3663121,1.220703125
,6.387483400000001,1.5283203125
,6.4067142,1.85546875
,6.4245424,2.1337890625
,6.4437467,2.412109375
,6.480476899999999,2.6416015625
,6.484037000000001,2.861328125
,6.5061067,3.0419921875
,6.5412082,3.1689453125
,6.5461575,3.2373046875
,6.5846193,3.2177734375
,6.589347500000001,3.1396484375
,6.6082871999999995,3.017578125
,6.628737299999999,2.8662109375
,6.6451619,2.7392578125
,6.6819591,2.6171875
,6.684856399999999,2.4853515625
,6.722344400000001,2.3486328125
,6.725418100000001,2.20703125
,6.7757656,2.0751953125
,6.7763268,1.943359375
,6.797298100000001,1.8212890625
,6.8048736000000005,1.69921875
,6.8237103,1.591796875
,6.862502599999999,1.494140625
,6.865320199999999,1.3916015625
,6.916104600000001,1.3037109375
,6.916471700000001,1.2158203125
,6.9266179,1.1328125
,6.9480585999999995,1.0595703125
,6.985216299999999,0.9912109375
,6.985716399999999,0.927734375
,7.00611,0.8740234375
,7.0267304,0.8251953125
,7.046483,0.7763671875
,7.083872400000001,0.7275390625
,7.090029299999999,0.68359375
,7.1083002,0.6396484375
,7.127486899999999,0.595703125
,7.163939900000001,0.5615234375
,7.1644317,0.537109375
,7.201927700000001,0.5224609375
,7.2043547,0.556640625
,7.243589500000001,0.6884765625
,7.246767800000001,0.91796875
,7.2909728000000005,1.220703125
,7.291366200000001,1.5283203125
,7.306689,1.845703125
,7.3275495,2.119140625
,7.3491847,2.3681640625
,7.3669797,2.5732421875
,7.4139669,2.79296875
,7.414374199999999,2.9638671875
,7.4286367,3.0908203125
,7.4477121,3.14453125
,7.468605200000001,3.1201171875
,7.5084102,3.0224609375
,7.5090331,2.900390625
,7.5454551,2.7685546875
,7.545811199999999,2.646484375
,7.5860895,2.51953125
,7.5865469,2.3876953125
,7.607503400000001,2.255859375
,7.6276151,2.119140625
,7.6625999,1.9921875
,7.6831567,1.8701171875
,7.6883427,1.73828125
,7.7056097999999995,1.6259765625
,7.741537900000001,1.5234375
,7.7458238999999995,1.42578125
,7.7669028,1.3232421875
,7.7887377,1.2353515625
,7.808544599999999,1.1474609375
,7.828750899999999,1.064453125
,7.865249800000001,0.99609375
,7.869847,0.9326171875
,7.886351400000001,0.869140625
,7.907857999999999,0.8154296875
,7.926920300000001,0.7666015625
,7.947713800000001,0.7177734375
,7.982227,0.6787109375
,8.0016595,0.6396484375
,8.0080262,0.595703125
,8.0438805,0.5615234375
,8.0486312,0.5224609375
,8.0665041,0.4736328125
,8.0862245,0.4638671875
,8.1061234,0.4736328125
,8.1442933,0.56640625
,8.1471486,0.7666015625
,8.1672037,1.0595703125
,8.2028432,1.3623046875
,8.2236145,1.6845703125
,8.2293665,1.962890625
,8.2670476,2.2314453125
,8.2676333,2.4462890625
,8.3018872,2.6611328125
,8.306821,2.83203125
,8.3428617,2.96875
,8.3496904,3.0322265625
,8.3698542,3.0322265625
,8.4049068,2.9638671875
,8.4092128,2.861328125
,8.4504822,2.7490234375
,8.4511231,2.63671875
,8.4663229,2.529296875
,8.5032537,2.412109375
,8.5099812,2.28515625
,8.5295001,2.1533203125
,8.5492604,2.0263671875
,8.5869915,1.904296875
,8.5913111,1.7822265625
,8.6074294,1.6650390625
,8.6273216,1.5625
,8.6630831,1.46484375
,8.6677832,1.376953125
,8.7026179,1.2939453125
,8.7254876,1.2109375
,8.7306572,1.1279296875
,8.7506532,1.0595703125
,8.7709167,0.9912109375
,8.790994,0.927734375
,8.8369397,0.8544921875
,8.8373009,0.810546875
,8.8577517,0.7763671875
,8.870278,0.7421875
,8.8885152,0.7080078125
,8.9274554,0.673828125
,8.9280336,0.6494140625
,8.9627187,0.625
,8.9837543,0.615234375
,8.9890347,0.6298828125
,9.0397999,0.7568359375
,9.0403162,0.9716796875
,9.0492296,1.259765625
,9.0839413,1.572265625
,9.1051157,1.8408203125
,9.109915,2.1044921875
,9.145215,2.32421875
,9.1654696,2.51953125
,9.1658302,2.67578125
,9.2013965,2.822265625
,9.2219728,2.900390625
,9.2289327,2.91015625
,9.2644579,2.8515625
,9.2855558,2.7685546875
,9.2905305,2.666015625
,9.3273023,2.5634765625
,9.3277944,2.4609375
,9.3612091,2.3583984375
,9.3834774,2.2509765625
,9.3905781,2.12890625
,9.4099584,2.0166015625
,9.4438717,1.8994140625
,9.4634754,1.7822265625
,9.4722209,1.6748046875
,9.4916299,1.5625
,9.5130573,1.46484375
,9.5314106,1.3525390625
,9.5497478,1.2744140625
,9.5704861,1.201171875
,9.6169994,1.1328125
,9.6174711,1.064453125
,9.6316746,1.005859375
,9.6516155,0.9521484375
,9.6711438,0.8984375
,9.7055192,0.849609375
,9.7257602,0.810546875
,9.728704,0.76171875
,9.7505015,0.72265625
,9.7858222,0.68359375
,9.7914324,0.64453125
,9.8095613,0.6103515625
,9.848692,0.5859375
,9.8513879,0.576171875
,9.8887308,0.6591796875
,9.8891158,0.8447265625
,9.9242461,1.1376953125
,9.9295144,1.4453125
,9.9495183,1.767578125
,9.9888546,2.0458984375
,10.011557,2.3095703125
,10.0120439,2.5244140625
,10.0323031,2.734375
,10.0670051,2.9052734375
,10.0674028,3.02734375
,10.1054523,3.1103515625
,10.1254165,3.10546875
,10.1300771,3.037109375
,10.1508836,2.9296875
,10.1704613,2.8125
,10.1927167,2.7001953125
,10.2134401,2.578125
,10.2319724,2.4658203125
,10.2652137,2.314453125
,10.2862518,2.1923828125
,10.2914032,2.0751953125
,10.3123388,1.9580078125
,10.3324437,1.8359375
,10.3507129,1.71875
,10.3933005,1.6064453125
,10.3938413,1.5087890625
,10.4241123,1.4111328125
,10.4329482,1.328125
,10.4496175,1.25
,10.4709615,1.171875
,10.4907491,1.0986328125
,10.5280196,1.03515625
,10.5310136,0.966796875
,10.5682919,0.908203125
,10.572972,0.849609375
,10.6093229,0.8056640625
,10.6099256,0.751953125
,10.6310762,0.712890625
,10.6503337,0.6689453125
,10.6715227,0.6396484375
,10.690787,0.6005859375
,10.7271659,0.5712890625
,10.7324785,0.556640625
,10.7534961,0.576171875
,10.7895497,0.6982421875
,10.7899091,0.9130859375
,10.8112592,1.2158203125
,10.8475902,1.5185546875
,10.8523823,1.8359375
,10.8730042,2.109375
,10.892584,2.3681640625
,10.9141663,2.5830078125
,10.9332802,2.7978515625
,10.9540452,2.958984375
,10.9738158,3.076171875
,10.9949607,3.1494140625
,11.011052,3.134765625
,11.0310902,3.0615234375
,11.0768315,2.958984375
,11.0773379,2.8466796875
,11.0945733,2.7294921875
,11.1138286,2.6025390625
,11.1344004,2.4755859375
,11.1718105,2.333984375
,11.1723665,2.197265625
,11.1923791,2.0703125
,11.2266166,1.9482421875
,11.2315147,1.8212890625
,11.268359,1.69921875
,11.2719183,1.58203125
,11.3113173,1.474609375
,11.3141709,1.376953125
,11.3512775,1.2841796875
,11.3518086,1.1962890625
,11.3895099,1.123046875
,11.389934,1.0498046875
,11.4272131,0.9814453125
,11.4335283,0.9228515625
,11.4545048,0.8642578125
,11.4732893,0.8056640625
,11.5134271,0.7568359375
,11.5137918,0.7080078125
,11.530944,0.6689453125
,11.5650557,0.6201171875
,11.5855444,0.5859375
,11.5935041,0.546875
,11.6124892,0.5126953125
,11.6486256,0.4931640625
,11.6533215,0.5078125
,11.6917281,0.6201171875
,11.6950181,0.830078125
,11.7163507,1.123046875
,11.7319862,1.4208984375
,11.7526339,1.7333984375
,11.7933912,2.001953125
,11.7937562,2.2607421875
,11.8321054,2.470703125
,11.8324614,2.666015625
,11.872723,2.822265625
,11.8730902,2.94921875
,11.89206,3.0029296875
,11.9262449,2.9931640625
,11.9313833,2.9248046875
,11.9690742,2.83203125
,11.9734692,2.7294921875
,12.0092133,2.626953125
,12.015026,2.51953125
,12.0488803,2.40234375
,12.0691132,2.2802734375
,12.0721821,2.158203125
,12.1070125,2.0361328125
,12.1116294,1.923828125
,12.1503124,1.8017578125
,12.1551958,1.6845703125
,12.1909474,1.5771484375
,12.1939855,1.4794921875
,12.2307201,1.38671875
,12.2310848,1.3037109375
,12.2745398,1.2255859375
,12.2748978,1.1572265625
,12.294524,1.083984375
,12.3355065,1.0205078125
,12.3358868,0.9619140625
,12.3724302,0.908203125
,12.3728535,0.8544921875
,12.4126512,0.8056640625
,12.4336097,0.751953125
,12.4364113,0.7080078125
,12.451468,0.6640625
,12.4719179,0.6396484375
,12.5095508,0.60546875
,12.5139584,0.5859375
,12.5356142,0.6005859375
,12.5867959,0.6982421875
,12.5874298,0.8935546875
,12.5957122,1.1669921875
,12.6162886,1.4697265625
,12.6313915,1.73828125
,12.6654306,2.0166015625
,12.6865301,2.24609375
,12.6940847,2.4560546875
,12.7320189,2.6318359375
,12.7349171,2.79296875
,12.7551127,2.8955078125
,12.7933899,2.939453125
,12.7937487,2.91015625
,12.8122609,2.841796875
,12.8531523,2.7587890625
,12.8536325,2.666015625
,12.874909,2.5732421875
,12.9116994,2.470703125
,12.914539,2.36328125
,12.9536644,2.24609375
,12.9543191,2.1240234375
,12.9721751,2.0166015625
,12.9928124,1.9091796875
,13.029595,1.8017578125
,13.0345934,1.69921875
,13.0544175,1.5966796875
,13.0765925,1.50390625
,13.0973838,1.416015625
,13.1314656,1.3330078125
,13.1362255,1.2548828125
,13.1797347,1.1669921875
,13.1804545,1.1083984375
,13.1939337,1.0595703125
,13.2301316,1.005859375
,13.2346044,0.9619140625
,13.2561735,0.9130859375
,13.278079,0.859375
,13.2970683,0.8154296875
,13.3335685,0.7666015625
,13.338091,0.7275390625
,13.3545899,0.6884765625
,13.3915681,0.673828125
,13.3959504,0.6982421875
,13.4147547,0.830078125
,13.4352742,1.0498046875
,13.4720112,1.328125
,13.4772919,1.6162109375
,13.4966279,1.9140625
,13.51294,2.1630859375
,13.5510724,2.412109375
,13.5550853,2.6318359375
,13.574966,2.8125
,13.5938326,2.978515625
,13.6320928,3.0810546875
,13.6349367,3.1201171875
,13.6719923,3.076171875
,13.6774273,2.9833984375
,13.6933086,2.8759765625
,13.7380568,2.763671875
,13.7384979,2.646484375
,13.7553305,2.529296875
,13.775228,2.4072265625
,13.7942046,2.275390625
,13.8321923,2.1435546875
,13.8357769,2.021484375
,13.8572866,1.89453125
,13.9096331,1.77734375
,13.9101692,1.66015625
,13.9132279,1.5576171875
,13.9526886,1.46484375
,13.9552889,1.376953125
,13.9937271,1.298828125
,13.996479,1.2255859375
,14.034564799999998,1.162109375
,14.038556,1.09375
,14.057759099999998,1.0302734375
,14.0735657,0.9716796875
,14.127095,0.9228515625
,14.1278148,0.8740234375
,14.136769099999999,0.830078125
,14.174291,0.7861328125
,14.1749765,0.7421875
,14.210537500000001,0.703125
,14.2316945,0.6640625
,14.238294,0.625
,14.255280500000001,0.6005859375
,14.275028200000001,0.6103515625
,14.2954045,0.6787109375
,14.3332342,0.869140625
,14.3376035,1.1279296875
,14.3777982,1.4453125
,14.378400200000002,1.73828125
,14.4151578,2.0361328125
,14.415784299999999,2.28515625
,14.435073899999999,2.5341796875
,14.484550200000001,2.7392578125
,14.485141800000001,2.9345703125
,14.496174700000001,3.076171875
,14.5328832,3.173828125
,14.537545600000001,3.1787109375
,14.5729604,3.1201171875
,14.577921700000001,3.017578125
,14.597621799999999,2.9052734375
,14.618949700000002,2.783203125
,14.635918400000001,2.6611328125
,14.6740089,2.5390625
,14.6743697,2.412109375
,14.719524100000001,2.2705078125
,14.719880199999999,2.138671875
,14.7493387,2.01171875
,14.757074800000002,1.8798828125
,14.778340199999999,1.7626953125
,14.7960912,1.650390625
,14.8316841,1.54296875
,14.837251299999998,1.4453125
,14.8551796,1.357421875
,14.903514900000001,1.26953125
,14.903880000000001,1.1865234375
,14.924696399999998,1.123046875
,14.9401862,1.044921875
,14.9593864,0.9814453125
,14.975364200000001,0.91796875
,14.9963898,0.869140625
,15.030672,0.8251953125
,15.037448099999999,0.78125
,15.058486299999998,0.7373046875
,15.107240099999999,0.693359375
,15.107621300000002,0.6591796875
,15.1185507,0.6201171875
,15.1402562,0.576171875
,15.156469399999999,0.5615234375
,15.1917522,0.56640625
,15.1952204,0.6396484375
,15.2327962,0.8349609375
,15.238367799999999,1.09375
,15.259393200000002,1.396484375
,15.2798886,1.6845703125
,15.299343499999999,1.97265625
,15.3373953,2.216796875
,15.339261400000002,2.44140625
,15.355712700000002,2.626953125
,15.4013913,2.79296875
,15.401747799999999,2.919921875
,15.417537,2.98828125
,15.4621697,2.978515625
,15.462673200000001,2.8955078125
,15.4805238,2.79296875
,15.4991375,2.67578125
,15.5377999,2.5634765625
,15.5382575,2.4462890625
,15.5576838,2.333984375
,15.592334099999999,2.216796875
,15.5970893,2.0947265625
,15.635511000000001,1.97265625
,15.637908500000002,1.8505859375
,15.672497499999999,1.728515625
,15.693319200000001,1.6162109375
,15.695905,1.5087890625
,15.717553200000001,1.416015625
,15.754478500000001,1.3330078125
,15.7586959,1.25
,15.777824299999999,1.1669921875
,15.799437900000001,1.0986328125
,15.8194984,1.025390625
,15.8397298,0.9521484375
,15.8759859,0.8837890625
,15.876338400000002,0.830078125
,15.897497399999999,0.78125
,15.918406999999998,0.7373046875
,15.937953199999999,0.693359375
,15.960053299999998,0.654296875
,15.978162600000001,0.6103515625
,16.0007772,0.5712890625
,16.0219171,0.537109375
,16.0415601,0.5126953125
,16.0605086,0.5029296875
,16.0766456,0.5322265625
,16.0986908,0.6787109375
,16.1190659,0.9228515625
,16.1399599,1.2060546875
,16.1608831,1.5283203125
,16.1960983,1.8212890625
,16.200372,2.0947265625
,16.2363249,2.314453125
,16.2709733,2.5146484375
,16.2713864,2.6806640625
,16.2788916,2.83203125
,16.3195529,2.9150390625
,16.3199635,2.939453125
,16.3511787,2.8955078125
,16.3597602,2.822265625
,16.3977995,2.7294921875
,16.4019481,2.626953125
,16.4184413,2.529296875
,16.437544,2.4365234375
,16.4728933,2.32421875
,16.493366,2.20703125
,16.4982085,2.08984375
,16.520828,1.9677734375
,16.5409547,1.85546875
,16.56164,1.73828125
,16.5818127,1.6357421875
,16.5973896,1.5380859375
,16.6328388,1.4501953125
,16.6530855,1.3671875
,16.6590835,1.2841796875
,16.6938741,1.2109375
,16.7147694,1.142578125
,16.7199556,1.07421875
,16.7425239,1.015625
,16.761745,0.9619140625
,16.7969404,0.908203125
,16.8019349,0.859375
,16.8196295,0.8056640625
,16.8409388,0.7666015625
,16.8592202,0.7275390625
,16.8986912,0.6884765625
,16.8992721,0.654296875
,16.933903,0.634765625
,16.9544167,0.6494140625
,16.9615537,0.7666015625
,16.978085,0.9716796875
,17.0150053,1.26953125
,17.0183487,1.5625
,17.0399237,1.865234375
,17.0607482,2.119140625
,17.0996974,2.3681640625
,17.1000739,2.5830078125
,17.1200817,2.7587890625
,17.1570457,2.91015625
,17.1574094,3.0126953125
,17.2096941,3.0517578125
,17.2101389,3.017578125
,17.2195758,2.9345703125
,17.2405971,2.8271484375
,17.2611831,2.71484375
,17.2985687,2.607421875
,17.3028419,2.490234375
,17.3196859,2.373046875
,17.3646878,2.255859375
,17.3650491,2.12890625
,17.3808228,2.01171875
,17.3996775,1.89453125
,17.4412532,1.77734375
,17.4416144,1.6650390625
,17.4614643,1.5576171875
,17.5031963,1.4599609375
,17.5037703,1.3671875
,17.5228579,1.279296875
,17.5392415,1.1962890625
,17.5599013,1.123046875
,17.5949277,1.0546875
,17.5999283,0.99609375
,17.6445021,0.9375
,17.6449141,0.8837890625
,17.664691,0.8349609375
,17.6831353,0.7861328125
,17.6991183,0.7373046875
,17.7190636,0.703125
,17.7565917,0.6689453125
,17.7621702,0.6298828125
,17.7814438,0.6005859375
,17.8305761,0.5712890625
,17.8311097,0.56640625
,17.8410645,0.6201171875
,17.8752857,0.7958984375
,17.8964353,1.044921875
,17.8993804,1.3720703125
,17.937303,1.6796875
,17.9393267,1.9873046875
,17.9761884,2.2412109375
,17.9811992,2.490234375
,18.0155389,2.6904296875
,18.0363691,2.880859375
,18.0435471,3.0224609375
,18.059628,3.10546875
,18.0797883,3.1298828125
,18.1247578,3.0859375
,18.1253445,3.0029296875
,18.1431632,2.900390625
,18.1625833,2.7880859375
,18.1821619,2.67578125
,18.2180293,2.548828125
,18.2388271,2.421875
,18.2441976,2.2900390625
,18.2584679,2.1533203125
,18.2981811,2.03125
,18.3182325,1.9091796875
,18.3209597,1.787109375
,18.3592276,1.669921875
,18.3626902,1.572265625
,18.3826582,1.46484375
,18.4198728,1.376953125
,18.4244077,1.2890625
,18.4403382,1.2060546875
,18.4861604,1.1376953125
,18.4867248,1.0693359375
,18.5023349,1.0009765625
,18.540281,0.9423828125
,18.5408666,0.8837890625
,18.5759554,0.830078125
,18.5974427,0.7763671875
,18.5980308,0.7275390625
,18.6364139,0.6884765625
,18.6593659,0.64453125
,18.6625208,0.6005859375
,18.6820667,0.56640625
,18.7164111,0.5322265625
,18.7369632,0.5126953125
,18.7430397,0.52734375
,18.7795697,0.6591796875
,18.7800535,0.87890625
,18.8144578,1.1865234375
,18.8355145,1.494140625
,18.8412116,1.806640625
,18.8930527,2.0703125
,18.8936394,2.32421875
,18.9013248,2.5244140625
,18.9358845,2.7197265625
,18.9566272,2.8662109375
,18.9641538,2.978515625
,18.9819638,3.0126953125
,19.0175249,2.98828125
,19.0200683,2.900390625
,19.0553365,2.7978515625
,19.0770397,2.685546875
,19.0821431,2.578125
,19.1178816,2.4609375
,19.1385039,2.3486328125
,19.1457675,2.2265625
,19.1629066,2.1044921875
,19.2038409,1.9921875
,19.204305,1.875
,19.2233789,1.7626953125
,19.2580347,1.650390625
,19.2625706,1.54296875
,19.2959995,1.4453125
,19.3165159,1.3525390625
,19.3240791,1.26953125
,19.3418738,1.1865234375
,19.3755989,1.1181640625
,19.396168,1.0498046875
,19.4045597,0.986328125
,19.4238644,0.927734375
,19.4593767,0.8740234375
,19.4651251,0.8251953125
,19.5029534,0.7763671875
,19.5034001,0.7275390625
,19.5224188,0.693359375
,19.5565744,0.654296875
,19.5773406,0.615234375
,19.5850725,0.5810546875
,19.6214157,0.556640625
,19.6220151,0.537109375
,19.657223,0.5859375
,19.6775948,0.751953125
,19.68555,0.9912109375
,19.7230946,1.298828125
,19.7236654,1.591796875
,19.7577299,1.884765625
,19.7628513,2.12890625
,19.7990366,2.3583984375
,19.8040161,2.5390625
,19.8410123,2.705078125
,19.8451225,2.8271484375
,19.8902931,2.900390625
,19.8908738,2.900390625
,19.9206769,2.8564453125
,19.9211611,2.7880859375
,19.9586985,2.6953125
,19.9636195,2.6123046875
,20.0008799,2.51953125
,20.0038151,2.4169921875
,20.0444386,2.3095703125
,20.044823,2.1923828125
,20.0779235,2.080078125
,20.0823678,1.9677734375
,20.1232355,1.8603515625
,20.1237019,1.7529296875
,20.1591173,1.650390625
,20.1651323,1.5625
,20.2015899,1.4794921875
,20.2044041,1.396484375
,20.2228681,1.3232421875
,20.2645161,1.2548828125
,20.265256,1.1865234375
,20.283098,1.1279296875
,20.3184918,1.0693359375
,20.3390876,1.015625
,20.3439049,0.9619140625
,20.3792747,0.9130859375
,20.4009447,0.8642578125
,20.406174,0.8154296875
,20.4424715,0.7666015625
,20.4430849,0.72265625
,20.4818993,0.6884765625
,20.4823245,0.6640625
,20.5172863,0.6640625
,20.5378726,0.7373046875
,20.5459664,0.9375
,20.566822,1.201171875
,20.6032688,1.5087890625
,20.6061762,1.8212890625
,20.6230058,2.0849609375
,20.6688093,2.3388671875
,20.6693912,2.5439453125
,20.6990075,2.744140625
,20.7043449,2.8955078125
,20.7411224,3.0126953125
,20.7457695,3.0712890625
,20.7817335,3.0615234375
,20.7846118,2.9931640625
,20.8218191,2.900390625
,20.8243797,2.7978515625
,20.8597535,2.6904296875
,20.8650535,2.5830078125
,20.9016778,2.4658203125
,20.9060829,2.3388671875
,20.9476698,2.2119140625
,20.9481016,2.080078125
,20.9651262,1.9580078125
,21.0012133,1.8408203125
,21.005536,1.728515625
,21.0393757,1.62109375
,21.0596048,1.5185546875
,21.0647413,1.42578125
,21.1014245,1.337890625
,21.1070172,1.2548828125
,21.1440019,1.181640625
,21.1470136,1.1083984375
,21.1641237,1.03515625
,21.2001451,0.9814453125
,21.2042877,0.927734375
,21.2440457,0.8740234375
,21.2656971,0.830078125
,21.2667893,0.78125
,21.3025751,0.7421875
,21.3085256,0.6982421875
,21.34364,0.6591796875
,21.3439728,0.6201171875
,21.3861686,0.5908203125
,21.3867643,0.5615234375
,21.4335043,0.556640625
,21.4340331,0.6103515625
,21.4471269,0.791015625
,21.4839048,1.044921875
,21.4895517,1.3623046875
,21.504361,1.6650390625
,21.5430103,1.9677734375
,21.5434079,2.2216796875
,21.587512,2.4609375
,21.5878643,2.666015625
,21.6091924,2.83203125
,21.6262338,2.96875
,21.661697,3.0419921875
,21.6837551,3.056640625
,21.6843402,3.0029296875
,21.728202,2.919921875
,21.7286634,2.8173828125
,21.7461955,2.705078125
,21.7809475,2.5927734375
,21.7855464,2.4755859375
,21.8220178,2.353515625
,21.8275337,2.2216796875
,21.8488314,2.08984375
,21.883851,1.962890625
,21.9040241,1.8408203125
,21.9043904,1.7138671875
,21.9383494,1.5966796875
,21.959519,1.4892578125
,21.9670911,1.3916015625
,21.9886476,1.2939453125
,22.0243737,1.201171875
,22.0279168,1.1181640625
,22.0640094,1.0400390625
,22.0643879,0.9619140625
,22.1009934,0.9033203125
,22.1217948,0.8447265625
,22.1265108,0.78125
,22.1629964,0.732421875
,22.1690113,0.68359375
,22.1879364,0.6396484375
,22.2227894,0.6103515625
,22.2447917,0.576171875
,22.2453794,0.537109375
,22.2836055,0.5126953125
,22.2888706,0.478515625
,22.3071042,0.4541015625
,22.343635,0.4345703125
,22.3480172,0.478515625
,22.3850426,0.6201171875
,22.3877973,0.8837890625
,22.406415,1.1865234375
,22.440808,1.5234375
,22.4455626,1.81640625
,22.4669062,2.08984375
,22.5024175,2.3095703125
,22.507986,2.5146484375
,22.5524392,2.6904296875
,22.552814,2.8173828125
,22.5683531,2.9052734375
,22.6039025,2.9296875
,22.6088065,2.890625
,22.6277391,2.8173828125
,22.646661,2.734375
,22.6928106,2.646484375
,22.6933693,2.548828125
,22.7141815,2.451171875
,22.7278802,2.3388671875
,22.7675002,2.2265625
,22.7678589,2.1044921875
,22.7852401,1.9921875
,22.8184091,1.8798828125
,22.8407347,1.767578125
,22.8482804,1.66015625
,22.8684052,1.5576171875
,22.9041452,1.46484375
,22.9090357,1.376953125
,22.9467491,1.2890625
,22.9515014,1.2158203125
,22.9665928,1.142578125
,23.0024525,1.0888671875
,23.0231448,1.0302734375
,23.0283186,0.9765625
,23.0646484,0.9228515625
,23.0676854,0.8740234375
,23.1018501,0.8251953125
,23.1225052,0.791015625
,23.1273792,0.7470703125
,23.1641656,0.712890625
,23.1647592,0.68359375
,23.2023694,0.6494140625
,23.2233713,0.634765625
,23.2287303,0.6689453125
,23.2641602,0.8203125
,23.2693029,1.0498046875
,23.3065184,1.34765625
,23.3113557,1.630859375
,23.3484236,1.9189453125
,23.3488327,2.1435546875
,23.3840863,2.36328125
,23.3868045,2.529296875
,23.4219901,2.6806640625
,23.443451,2.79296875
,23.448506,2.8515625
,23.4849944,2.8466796875
,23.5145499,2.79296875
,23.5151125,2.705078125
,23.5290123,2.6171875
,23.5786097,2.529296875
,23.5791317,2.44140625
,23.5880408,2.34375
,23.6231189,2.2412109375
,23.643973,2.1337890625
,23.6521418,2.03125
,23.6870685,1.9140625
,23.6874796,1.8017578125
,23.7079447,1.69921875
,23.7425186,1.6015625
,23.7474963,1.50390625
,23.7820777,1.4208984375
,23.8037058,1.3330078125
,23.8119146,1.259765625
,23.8484668,1.181640625
,23.8490007,1.1083984375
,23.869623,1.044921875
,23.8880879,0.9912109375
,23.93576,0.9375
,23.9361779,0.8837890625
,23.9516596,0.830078125
,23.9702697,0.7861328125
,24.0089589,0.7373046875
,24.0094864,0.6982421875
,24.0462328,0.654296875
,24.0514672,0.615234375
,24.0686611,0.5712890625
,24.1071762,0.5419921875
,24.1380885,0.5224609375
,24.1386283,0.5419921875
,24.1497922,0.6640625
,24.1858308,0.888671875
,24.191125,1.2060546875
,24.2284321,1.5234375
,24.2334102,1.845703125
,24.2481132,2.119140625
,24.2826956,2.3828125
,24.304256,2.6025390625
,24.3095117,2.802734375
,24.3454921,2.94921875
,24.3513874,3.06640625
,24.38711,3.125
,24.3917745,3.115234375
,24.4079758,3.0517578125
,24.4285398,2.9638671875
,24.4659693,2.8662109375
,24.4701158,2.7685546875
,24.5066368,2.65625
,24.509062,2.548828125
,24.5437974,2.431640625
,24.5649086,2.3046875
,24.5729322,2.1728515625
,24.58901,2.05078125
,24.6378289,1.93359375
,24.6382679,1.8212890625
,24.649729,1.7138671875
,24.671494,1.6064453125
,24.7162338,1.513671875
,24.7166319,1.416015625
,24.7323299,1.3330078125
,24.7683171,1.25
,24.7724005,1.1767578125
,24.8106168,1.1083984375
,24.8112089,1.0400390625
,24.829207,0.9814453125
,24.8723613,0.927734375
,24.8729136,0.869140625
,24.8922832,0.8203125
,24.9120456,0.7763671875
,24.9473534,0.7373046875
,24.9522563,0.693359375
,24.9695631,0.6494140625
,25.0113563,0.6103515625
,25.0118985,0.5810546875
,25.0486594,0.5517578125
,25.049106,0.556640625
,25.0884384,0.654296875
,25.1096338,0.87890625
,25.110106,1.1572265625
,25.1468916,1.4892578125
,25.1671107,1.7822265625
,25.1697173,2.0751953125
,25.2054361,2.3046875
,25.2101182,2.51953125
,25.2302697,2.6904296875
,25.2643288,2.8466796875
,25.2857616,2.9443359375
,25.2929503,3.0029296875
,25.3084909,2.9833984375
,25.354387,2.9248046875
,25.3549686,2.83203125
,25.3757352,2.734375
,25.392572,2.63671875
,25.4112119,2.5341796875
,25.4460014,2.421875
,25.4679642,2.3046875
,25.4727888,2.177734375
,25.509058,2.060546875
,25.5124819,1.93359375
,25.5318228,1.81640625
,25.5659578,1.7041015625
,25.5711299,1.5966796875
,25.6183485,1.4892578125
,25.6189379,1.3916015625
,25.6320606,1.298828125
,25.6669129,1.2109375
,25.6897481,1.1328125
,25.6902261,1.0595703125
,25.7253981,0.9912109375
,25.731201,0.927734375
,25.7671374,0.869140625
,25.7723356,0.8154296875
,25.7924059,0.771484375
,25.8125111,0.72265625
,25.833058,0.6787109375
,25.8853683,0.6396484375
,25.8857546,0.595703125
,25.9141076,0.5615234375
,25.9144802,0.5322265625
,25.9313672,0.5078125
,25.95243,0.4931640625
,25.9881547,0.56640625
,26.0093788,0.7470703125
,26.0138557,1.03515625
,26.0295033,1.337890625
,26.0659635,1.66015625
,26.0704995,1.943359375
,26.1070257,2.16796875
,26.1344474,2.3779296875
,26.1349198,2.5439453125
,26.1527159,2.6904296875
,26.1879116,2.7880859375
,26.1927156,2.8466796875
,26.2280495,2.8369140625
,26.2486029,2.7783203125
,26.2513428,2.7099609375
,26.2856259,2.6318359375
,26.3058964,2.5537109375
,26.3113628,2.4853515625
,26.3454532,2.40234375
,26.3659428,2.3095703125
,26.3725494,2.20703125
,26.4073895,2.1044921875
,26.428477,1.9970703125
,26.4289108,1.89453125
,26.4743995,1.8017578125
,26.4747886,1.7041015625
,26.4924496,1.611328125
,26.5123854,1.5234375
,26.5474784,1.4453125
,26.5679178,1.3720703125
,26.5735777,1.298828125
,26.5917229,1.2353515625
,26.6346078,1.1767578125
,26.6350595,1.123046875
,26.650228,1.0693359375
,26.6878601,1.0107421875
,26.6942751,0.9619140625
,26.713905,0.908203125
,26.7483923,0.8544921875
,26.7689448,0.8056640625
,26.7719628,0.76171875
,26.8088407,0.732421875
,26.8095114,0.732421875
,26.8444655,0.830078125
,26.8662336,1.03515625
,26.8732842,1.318359375
,26.913416,1.6064453125
,26.9137799,1.89453125
,26.9480129,2.1337890625
,26.9679325,2.3681640625
,26.9707947,2.5439453125
,27.0085955,2.71484375
,27.0286577,2.8515625
,27.0330102,2.939453125
,27.0708316,2.96875
,27.0757401,2.939453125
,27.1119437,2.87109375
,27.1167477,2.7783203125
,27.1358724,2.685546875
,27.1519199,2.5927734375
,27.1875891,2.5
,27.1926611,2.4072265625
,27.2317538,2.2998046875
,27.2322053,2.1875
,27.2542661,2.0751953125
,27.2883929,1.9677734375
,27.309386,1.85546875
,27.3112064,1.748046875
,27.3319298,1.6552734375
,27.3661558,1.5625
,27.3879412,1.474609375
,27.3950721,1.3916015625
,27.4289797,1.30859375
,27.4337711,1.23046875
,27.4733633,1.1572265625
,27.4756032,1.0888671875
,27.490058,1.025390625
,27.5242339,0.9716796875
,27.5444573,0.9228515625
,27.551743,0.8642578125
,27.5848627,0.8154296875
,27.6051252,0.7666015625
,27.6140447,0.72265625
,27.6610101,0.6787109375
,27.6613739,0.64453125
,27.6764224,0.6201171875
,27.7141857,0.6494140625
,27.7147694,0.7861328125
,27.7504,1.044921875
,27.7550481,1.3427734375
,27.8020568,1.6650390625
,27.8026468,1.953125
,27.8221598,2.2216796875
,27.8347773,2.44140625
,27.8695157,2.6513671875
,27.8901256,2.8173828125
,27.8905951,2.96875
,27.9284535,3.0615234375
,27.9557052,3.1005859375
,27.9561771,3.06640625
,27.9917769,2.9931640625
,27.9949472,2.900390625
,28.0344076,2.7978515625
,28.0654971,2.6953125
,28.0659629,2.5927734375
,28.074663,2.4853515625
,28.0941613,2.36328125
,28.1312768,2.236328125
,28.1358386,2.1142578125
,28.1748139,1.9970703125
,28.1753858,1.8798828125
,28.2106383,1.767578125
,28.2309712,1.66015625
,28.234115,1.5673828125
,28.27052,1.4794921875
,28.2727149,1.38671875
,28.3076298,1.3134765625
,28.3281966,1.2353515625
,28.3356039,1.1572265625
,28.3715345,1.0986328125
,28.3744878,1.0498046875
,28.4080124,0.99609375
,28.428944,0.947265625
,28.4346481,0.8935546875
,28.4688409,0.849609375
,28.4895345,0.80078125
,28.494698,0.751953125
,28.5306291,0.703125
,28.5516089,0.6689453125
,28.5585771,0.654296875
,28.5947805,0.7275390625
,28.5953931,0.9033203125
,28.630349,1.181640625
,28.6354287,1.4892578125
,28.674093,1.767578125
,28.674459,2.0361328125
,28.7106,2.255859375
,28.7169147,2.4560546875
,28.7517821,2.6220703125
,28.7727524,2.7685546875
,28.7733447,2.87109375
,28.8069052,2.9296875
,28.8280374,2.91015625
,28.8360718,2.8466796875
,28.8711429,2.7587890625
,28.8770768,2.6611328125
,28.9141527,2.568359375
,28.919118,2.4658203125
,28.9544664,2.3583984375
,28.9548228,2.236328125
,28.9909729,2.1240234375
,28.9953689,1.9921875
,29.0301989,1.8896484375
,29.0501827,1.7919921875
,29.0550879,1.6845703125
,29.0932781,1.5869140625
,29.112007,1.494140625
,29.1173115,1.396484375
,29.1400557,1.30859375
,29.1554404,1.2255859375
,29.1905489,1.15234375
,29.211583,1.0888671875
,29.2166068,1.0205078125
,29.2659696,0.9619140625
,29.2664076,0.908203125
,29.2769684,0.8544921875
,29.3146782,0.80078125
,29.3352023,0.7470703125
,29.3358524,0.6982421875
,29.3738552,0.6591796875
,29.3788848,0.6298828125
,29.4144458,0.6201171875
,29.4151102,0.6689453125
,29.4498788,0.830078125
,29.4713236,1.0693359375
,29.4779526,1.3623046875
,29.4966117,1.6357421875
,29.5156109,1.9091796875
,29.5581918,2.1337890625
,29.5585537,2.3291015625
,29.5787514,2.4951171875
,29.6132196,2.6220703125
,29.6183049,2.724609375
,29.6378532,2.7685546875
,29.6837572,2.75390625
,29.6843377,2.6953125
,29.7049924,2.626953125
,29.7169047,2.529296875
,29.7630068,2.4609375
,29.7636128,2.3876953125
,29.7776176,2.3046875
,29.8132222,2.2119140625
,29.8175693,2.1142578125
,29.8557695,2.0166015625
,29.8773127,1.9091796875
,29.8779001,1.806640625
,29.9122863,1.71875
,29.9160603,1.6259765625
,29.9651385,1.5380859375
,29.9655055,1.455078125
,29.9936194,1.376953125
,29.9985083,1.3037109375
,30.036897099999997,1.240234375
,30.037453999999997,1.1767578125
,30.055380999999997,1.1181640625
,30.104690599999998,1.064453125
,30.105275399999996,1.0107421875
,30.135193899999997,0.95703125
,30.1356971,0.908203125
,30.172891999999997,0.859375
,30.1936496,0.8203125
,30.198812099999998,0.78125
,30.235707400000003,0.7861328125
,30.2360696,0.869140625
,30.2706686,1.07421875
,30.292579600000003,1.3330078125
,30.2973889,1.630859375
,30.3349149,1.89453125
,30.337724700000003,2.1484375
,30.3580076,2.353515625
,30.3994382,2.5439453125
,30.4002481,2.6904296875
,30.4216659,2.841796875
,30.4378953,2.91015625
,30.474316199999997,2.94921875
,30.477606299999998,2.9248046875
,30.5141967,2.8515625
,30.519084399999997,2.7587890625
,30.555635000000002,2.6708984375
,30.558246699999998,2.5732421875
,30.5943513,2.470703125
,30.6156686,2.3583984375
,30.6162535,2.24609375
,30.6672703,2.12890625
,30.667741999999997,2.021484375
,30.698369800000002,1.9091796875
,30.6988389,1.796875
,30.735959,1.689453125
,30.739258300000003,1.591796875
,30.775455700000002,1.494140625
,30.7759372,1.4111328125
,30.8119534,1.3330078125
,30.8330408,1.2646484375
,30.8391375,1.19140625
,30.874691900000002,1.1328125
,30.879835,1.07421875
,30.9145416,1.015625
,30.919138500000003,0.966796875
,30.954938400000003,0.9228515625
,30.975489699999997,0.869140625
,30.9758488,0.830078125
,31.0122402,0.791015625
,31.039150399999997,0.751953125
,31.039572200000002,0.7177734375
,31.073590799999998,0.7177734375
,31.094331099999998,0.791015625
,31.1001137,0.986328125
,31.117386600000003,1.2451171875
,31.1530469,1.5625
,31.1580369,1.8212890625
,31.192961099999998,2.1142578125
,31.1992884,2.36328125
,31.237776699999998,2.568359375
,31.238139599999997,2.763671875
,31.2866675,2.919921875
,31.2870361,3.037109375
,31.3166444,3.095703125
,31.320956700000004,3.095703125
,31.338059199999996,3.02734375
,31.3748054,2.9296875
,31.377445,2.8271484375
,31.4141805,2.7197265625
,31.419013800000002,2.6123046875
,31.4574018,2.5
,31.462283499999998,2.3779296875
,31.4822998,2.24609375
,31.5172753,2.1142578125
,31.517633600000003,1.9921875
,31.5524099,1.875
,31.573009499999998,1.767578125
,31.580223099999998,1.66015625
,31.600804599999996,1.5576171875
,31.6379277,1.4599609375
,31.6405878,1.3671875
,31.676600800000003,1.279296875
,31.676951799999998,1.201171875
,31.712473699999997,1.1328125
,31.7324725,1.0693359375
,31.7376839,1.0107421875
,31.782580799999998,0.9619140625
,31.7830989,0.908203125
,31.8134389,0.859375
,31.820276999999997,0.8056640625
,31.857835700000003,0.76171875
,31.862059799999997,0.712890625
,31.883776400000002,0.654296875
,31.899158999999997,0.6103515625
,31.9331683,0.654296875
,31.9530186,0.7861328125
,31.961159000000002,1.0302734375
,31.997265900000002,1.3037109375
,32.0004757,1.6064453125
,32.0354447,1.8701171875
,32.0553975,2.119140625
,32.056252,2.3291015625
,32.1070748,2.51953125
,32.1075334,2.67578125
,32.1281276,2.8125
,32.140333,2.8955078125
,32.1744694,2.9052734375
,32.1957393,2.8515625
,32.2042467,2.7587890625
,32.2237155,2.6513671875
,32.240572,2.548828125
,32.2748244,2.4462890625
,32.2796557,2.34375
,32.3154233,2.2265625
,32.3223128,2.1044921875
,32.3584838,1.9873046875
,32.3615385,1.8701171875
,32.3995971,1.748046875
,32.4001872,1.640625
,32.4374077,1.5380859375
,32.4382053,1.435546875
,32.4734827,1.3525390625
,32.4945527,1.26953125
,32.5015863,1.181640625
,32.5225265,1.1083984375
,32.5583697,1.0400390625
,32.5617002,0.9716796875
,32.5811251,0.9130859375
,32.6169735,0.8642578125
,32.6202525,0.791015625
,32.6583096,0.751953125
,32.6587129,0.703125
,32.6952251,0.654296875
,32.7174901,0.60546875
,32.7222869,0.576171875
,32.7577573,0.5419921875
,32.7638582,0.5419921875
,32.8096862,0.6298828125
,32.8103294,0.8203125
,32.8193854,1.0986328125
,32.8566472,1.38671875
,32.8604783,1.6845703125
,32.8977425,1.93359375
,32.9034639,2.16796875
,32.9406883,2.353515625
,32.9453421,2.51953125
,32.9594381,2.6513671875
,33.0091872,2.7587890625
,33.0095595,2.7978515625
,33.0222748,2.7734375
,33.058199,2.705078125
,33.0607937,2.6318359375
,33.09617,2.5537109375
,33.1174245,2.4658203125
,33.1250746,2.3779296875
,33.1411686,2.2802734375
,33.1757247,2.177734375
,33.181559,2.080078125
,33.2281254,1.9775390625
,33.2285633,1.8701171875
,33.2433345,1.7578125
,33.2778893,1.650390625
,33.2826833,1.54296875
,33.3034315,1.4501953125
,33.3264146,1.3427734375
,33.3421238,1.25
,33.3770187,1.19140625
,33.3819156,1.1279296875
,33.4166948,1.07421875
,33.43701,1.025390625
,33.4428094,0.9716796875
,33.494332,0.9228515625
,33.4947036,0.8740234375
,33.5056774,0.830078125
,33.5215695,0.7763671875
,33.5565589,0.7421875
,33.5770463,0.7080078125
,33.582316,0.6884765625
,33.6342273,0.72265625
,33.6345892,0.8740234375
,33.6449877,1.103515625
,33.6793185,1.3916015625
,33.6796966,1.669921875
,33.717181,1.953125
,33.7215893,2.1826171875
,33.7580989,2.40234375
,33.7606811,2.5830078125
,33.7957852,2.724609375
,33.8233529,2.8515625
,33.823945,2.9150390625
,33.8608146,2.9150390625
,33.8614721,2.8515625
,33.8993617,2.7587890625
,33.8999341,2.6513671875
,33.9357665,2.548828125
,33.9559556,2.451171875
,33.9639524,2.3486328125
,34.0005869,2.2314453125
,34.0028951,2.119140625
,34.0214122,2.01171875
,34.0547213,1.89453125
,34.0751541,1.7626953125
,34.0822964,1.640625
,34.1242424,1.5478515625
,34.1245989,1.455078125
,34.1541683,1.3720703125
,34.1643543,1.2841796875
,34.1848362,1.2109375
,34.2297329,1.1328125
,34.230089,1.0693359375
,34.2426712,1.0009765625
,34.2898064,0.947265625
,34.290304,0.8935546875
,34.3023062,0.8447265625
,34.3393739,0.7958984375
,34.3429304,0.7470703125
,34.3809392,0.6982421875
,34.385199,0.6591796875
,34.4310933,0.6201171875
,34.4315476,0.5810546875
,34.4422517,0.5615234375
,34.4921451,0.5615234375
,34.4927402,0.6396484375
,34.5140721,0.8349609375
,34.5261153,1.1279296875
,34.5627208,1.4404296875
,34.5653037,1.7578125
,34.5820084,2.03125
,34.6168647,2.294921875
,34.6381412,2.5146484375
,34.6430797,2.71484375
,34.6642535,2.8759765625
,34.6996772,3.0078125
,34.7056117,3.0859375
,34.7260218,3.0908203125
,34.7462212,3.0322265625
,34.7672187,2.939453125
,34.7858076,2.8173828125
,34.804228,2.685546875
,34.838726,2.587890625
,34.8445882,2.48046875
,34.8648446,2.36328125
,34.913822,2.2412109375
,34.914414,2.119140625
,34.9269339,1.9970703125
,34.9469229,1.875
,34.9630925,1.7578125
,34.9983711,1.650390625
,35.0185803,1.5380859375
,35.0242366,1.4453125
,35.0625043,1.34765625
,35.0631851,1.259765625
,35.0999556,1.1767578125
,35.1201103,1.1083984375
,35.1254243,1.0302734375
,35.1431895,0.966796875
,35.177501,0.908203125
,35.1979693,0.8544921875
,35.2055241,0.8056640625
,35.2562085,0.7568359375
,35.2565732,0.712890625
,35.2651535,0.6640625
,35.3011731,0.6201171875
,35.3016419,0.5810546875
,35.322223,0.5517578125
,35.3585447,0.5322265625
,35.3796537,0.5224609375
,35.3847563,0.6005859375
,35.4279306,0.78125
,35.4285136,1.0791015625
,35.4631442,1.376953125
,35.466526,1.69921875
,35.4870438,1.97265625
,35.5087846,2.2216796875
,35.5236204,2.4169921875
,35.5602765,2.6318359375
,35.5637146,2.79296875
,35.6003889,2.9248046875
,35.6219846,2.9931640625
,35.6267513,2.9931640625
,35.6625063,2.9296875
,35.6828754,2.8369140625
,35.6879492,2.724609375
,35.7036844,2.6123046875
,35.7409801,2.509765625
,35.744029,2.3974609375
,35.785664,2.2705078125
,35.7862404,2.1435546875
,35.8172076,2.021484375
,35.8269722,1.8994140625
,35.8626326,1.77734375
,35.8630232,1.66015625
,35.8830404,1.5478515625
,35.92014,1.4453125
,35.9260836,1.3427734375
,35.9634925,1.25
,35.9639386,1.162109375
,36.006979,1.083984375
,36.007562,1.005859375
,36.0379666,0.9375
,36.0449087,0.869140625
,36.0842898,0.8154296875
,36.0849408,0.76171875
,36.1295806,0.7177734375
,36.129945,0.6640625
,36.1460882,0.6201171875
,36.1843934,0.5810546875
,36.1888479,0.537109375
,36.2078446,0.498046875
,36.2246187,0.44921875
,36.259443,0.439453125
,36.2837452,0.46875
,36.2841052,0.595703125
,36.331784,0.849609375
,36.332145,1.162109375
,36.3532166,1.4697265625
,36.3682701,1.77734375
,36.4045855,2.0361328125
,36.4075356,2.2705078125
,36.4232605,2.4560546875
,36.456594,2.63671875
,36.4768988,2.7685546875
,36.48672,2.8662109375
,36.5217283,2.8857421875
,36.5267465,2.8466796875
,36.5639752,2.763671875
,36.5961091,2.6806640625
,36.5964718,2.59765625
,36.6058929,2.5146484375
,36.6408952,2.4267578125
,36.6451038,2.32421875
,36.6790684,2.2119140625
,36.6998304,2.099609375
,36.707186,1.9921875
,36.7448817,1.8798828125
,36.7479606,1.7724609375
,36.7651545,1.6650390625
,36.8001139,1.572265625
,36.8054266,1.484375
,36.8395878,1.4013671875
,36.8627023,1.3232421875
,36.8671447,1.25
,36.9019508,1.1865234375
,36.9228345,1.1279296875
,36.9291403,1.0693359375
,36.949752,1.005859375
,36.9837562,0.947265625
,37.0056841,0.908203125
,37.0060651,0.87890625
,37.0495846,0.8447265625
,37.0500223,0.8056640625
,37.0803659,0.7763671875
,37.0890291,0.7470703125
,37.12526,0.7275390625
,37.1311749,0.7666015625
,37.1454088,0.9033203125
,37.1818626,1.15234375
,37.1871794,1.435546875
,37.2061274,1.73828125
,37.2514289,2.001953125
,37.2520148,2.24609375
,37.2725114,2.4609375
,37.2895818,2.6318359375
,37.3298043,2.783203125
,37.3302817,2.8955078125
,37.3475792,2.9638671875
,37.384795,2.958984375
,37.3853935,2.9052734375
,37.423487,2.822265625
,37.4285053,2.7294921875
,37.4692985,2.63671875
,37.4697976,2.5439453125
,37.4848479,2.4462890625
,37.5188406,2.3388671875
,37.540099,2.2314453125
,37.5476518,2.1142578125
,37.5822601,2.0068359375
,37.5871798,1.904296875
,37.6255998,1.796875
,37.6548435,1.689453125
,37.6552374,1.591796875
,37.6684534,1.50390625
,37.7060285,1.396484375
,37.7333284,1.3232421875
,37.7336905,1.2646484375
,37.7482758,1.201171875
,37.7835842,1.1376953125
,37.8035437,1.0791015625
,37.8097691,1.025390625
,37.8468663,0.9765625
,37.8514667,0.927734375
,37.868135,0.87890625
,37.9071948,0.8349609375
,37.9076457,0.7958984375
,37.9545094,0.7568359375
,37.954863,0.7177734375
,37.968729,0.693359375
,38.017365,0.7080078125
,38.0178392,0.810546875
,38.038427,1.044921875
,38.0484542,1.328125
,38.0684999,1.650390625
,38.0888349,1.943359375
,38.1272978,2.2265625
,38.1300149,2.4658203125
,38.1648968,2.6904296875
,38.1697263,2.87109375
,38.2072009,3.0322265625
,38.2075602,3.134765625
,38.2445358,3.1982421875
,38.2493383,3.18359375
,38.2660443,3.1103515625
,38.3009552,3.0078125
,38.3208658,2.8955078125
,38.3280724,2.7783203125
,38.3636541,2.65625
,38.3858465,2.5341796875
,38.3907294,2.4072265625
,38.4243252,2.2509765625
,38.4460483,2.119140625
,38.4466383,2.001953125
,38.4804959,1.884765625
,38.500558,1.7724609375
,38.5085325,1.66015625
,38.5486444,1.552734375
,38.551654,1.4599609375
,38.5948339,1.376953125
,38.5954366,1.2890625
,38.6092973,1.2158203125
,38.6558133,1.15234375
,38.6563826,1.0888671875
,38.6713794,1.0302734375
,38.7083786,0.9765625
,38.7089687,0.9228515625
,38.7459182,0.87890625
,38.7506761,0.830078125
,38.7677435,0.7861328125
,38.8017981,0.7470703125
,38.8229674,0.7080078125
,38.8285743,0.6689453125
,38.8623698,0.6396484375
,38.8825168,0.64453125
,38.8897928,0.732421875
,38.9239295,0.9228515625
,38.9535724,1.2109375
,38.954166,1.5087890625
,38.9674748,1.826171875
,39.0039985,2.099609375
,39.0094472,2.353515625
,39.0468246,2.5634765625
,39.052468,2.7587890625
,39.0698593,2.9150390625
,39.1060824,3.0322265625
,39.1111634,3.0908203125
,39.1542638,3.0615234375
,39.154751,2.998046875
,39.170239,2.900390625
,39.2041021,2.79296875
,39.2104262,2.67578125
,39.2454681,2.55859375
,39.2669209,2.4365234375
,39.2713438,2.3046875
,39.3095526,2.16796875
,39.3128624,2.0361328125
,39.3282815,1.904296875
,39.3720816,1.7822265625
,39.3724426,1.6650390625
,39.4174008,1.552734375
,39.4179984,1.4453125
,39.4332095,1.3525390625
,39.4525388,1.2548828125
,39.49843,1.171875
,39.4990045,1.09375
,39.5103868,1.025390625
,39.5294396,0.9619140625
,39.5652788,0.9033203125
,39.5699693,0.849609375
,39.607714,0.80078125
,39.6107281,0.7568359375
,39.6481653,0.7177734375
,39.6513148,0.6787109375
,39.6674744,0.634765625
,39.7163512,0.6005859375
,39.7167108,0.5712890625
,39.745659,0.5419921875
,39.7501664,0.52734375
,39.785235,0.5615234375
,39.8059315,0.6884765625
,39.8135622,0.9375
,39.8493902,1.25
,39.851852,1.552734375
,39.8863932,1.8505859375
,39.9072886,2.109375
,39.9079139,2.353515625
,39.9474169,2.548828125
,39.96706,2.734375
,39.9701678,2.87109375
,40.0054875,2.9638671875
,40.0259835,2.978515625
,40.0335571,2.9345703125
,40.0509758,2.841796875
,40.0871843,2.744140625
,40.0917196,2.646484375
,40.132394,2.5390625
,40.1329206,2.4267578125
,40.1695728,2.314453125
,40.1724304,2.1923828125
,40.2110488,2.0751953125
,40.232643,1.9580078125
,40.2331349,1.845703125
,40.2510437,1.7333984375
,40.2899603,1.6357421875
,40.2903212,1.533203125
,40.3268532,1.4404296875
,40.3338876,1.3525390625
,40.3695259,1.2744140625
,40.3738392,1.1962890625
,40.3898788,1.1279296875
,40.4293873,1.07421875
,40.4297538,1.015625
,40.4654063,0.966796875
,40.4923285,0.91796875
,40.4927012,0.869140625
,40.5264783,0.8251953125
,40.5467572,0.7763671875
,40.5552334,0.7470703125
,40.5924697,0.7080078125
,40.5930992,0.673828125
,40.6111295,0.6640625
,40.6455778,0.72265625
,40.6666023,0.8740234375
,40.6726278,1.1376953125
,40.7108754,1.4111328125
,40.711275,1.7138671875
,40.7565966,1.97265625
,40.7571805,2.216796875
,40.7777597,2.4072265625
,40.7927524,2.5927734375
,40.8356322,2.7392578125
,40.8359918,2.841796875
,40.8524789,2.8955078125
,40.8865256,2.8759765625
,40.9081767,2.802734375
,40.9145591,2.705078125
,40.9512625,2.607421875
,40.9518461,2.509765625
,40.9855155,2.412109375
,41.0080618,2.314453125
,41.0141229,2.2021484375
,41.0485495,2.0947265625
,41.0539763,1.982421875
,41.0890225,1.875
,41.0947873,1.7626953125
,41.1135042,1.6552734375
,41.1470708,1.552734375
,41.1535993,1.4599609375
,41.1887398,1.376953125
,41.1905815,1.3037109375
,41.2261254,1.2255859375
,41.2469917,1.1572265625
,41.2541937,1.0888671875
,41.3040894,1.0302734375
,41.304452,0.9716796875
,41.3145209,0.927734375
,41.331838,0.87890625
,41.3820921,0.8349609375
,41.3826945,0.7958984375
,41.3919187,0.7470703125
,41.4275327,0.703125
,41.4471415,0.6689453125
,41.4548588,0.634765625
,41.4902443,0.615234375
,41.4955233,0.64453125
,41.5100487,0.7763671875
,41.5475425,1.0302734375
,41.5704937,1.328125
,41.5708521,1.6552734375
,41.6087339,1.9482421875
,41.613579,2.2265625
,41.648798,2.451171875
,41.6695659,2.6611328125
,41.6728106,2.83203125
,41.7081747,2.9931640625
,41.7128021,3.095703125
,41.7482442,3.1396484375
,41.7530968,3.10546875
,41.7866373,3.0126953125
,41.8076896,2.900390625
,41.8157485,2.783203125
,41.8653164,2.666015625
,41.865913,2.5439453125
,41.8737412,2.4267578125
,41.9076752,2.2998046875
,41.9126765,2.1630859375
,41.9504107,2.041015625
,41.953562,1.9189453125
,41.9893065,1.8017578125
,42.0189762,1.6796875
,42.0193572,1.572265625
,42.0352065,1.4697265625
,42.053047,1.3720703125
,42.098408,1.2890625
,42.0987902,1.2158203125
,42.1286775,1.142578125
,42.1327261,1.07421875
,42.1665874,1.005859375
,42.1870437,0.947265625
,42.1941407,0.888671875
,42.2276412,0.8447265625
,42.2481413,0.7958984375
,42.2529193,0.7568359375
,42.289468,0.7177734375
,42.2929899,0.673828125
,42.3305268,0.6298828125
,42.3349587,0.595703125
,42.375699,0.56640625
,42.3762111,0.5419921875
,42.4117186,0.5615234375
,42.4120963,0.6640625
,42.4332311,0.8984375
,42.4857631,1.181640625
,42.4863049,1.513671875
,42.4942649,1.8115234375
,42.5282899,2.099609375
,42.5508718,2.3388671875
,42.5576113,2.5634765625
,42.5729048,2.7490234375
,42.6071743,2.9248046875
,42.629504,3.0419921875
,42.6342053,3.10546875
,42.6700016,3.0859375
,42.675296,3.0126953125
,42.7108432,2.9052734375
,42.7167764,2.7978515625
,42.7645772,2.685546875
,42.7649299,2.578125
,42.7765393,2.4560546875
,42.7941537,2.3291015625
,42.8294847,2.197265625
,42.8585383,2.0703125
,42.858939,1.9482421875
,42.8766106,1.826171875
,42.9215665,1.708984375
,42.922053,1.5966796875
,42.9381691,1.484375
,42.9549673,1.3818359375
,42.9751961,1.2939453125
,43.0163228,1.2060546875
,43.0168016,1.123046875
,43.0509981,1.044921875
,43.0559942,0.9716796875
,43.0904096,0.9033203125
,43.1114897,0.8349609375
,43.1194833,0.7861328125
,43.1345958,0.732421875
,43.1687159,0.6884765625
,43.1752547,0.6494140625
,43.2186793,0.6103515625
,43.2193263,0.576171875
,43.236556,0.5419921875
,43.2738878,0.5126953125
,43.2760728,0.4931640625
,43.3097321,0.4736328125
,43.3128737,0.48828125
,43.3341237,0.576171875
,43.3689392,0.7861328125
,43.3885227,1.0791015625
,43.3966308,1.3818359375
,43.4320934,1.69921875
,43.4377231,1.9677734375
,43.4753436,2.2216796875
,43.4760011,2.4267578125
,43.5136982,2.6171875
,43.5142683,2.7783203125
,43.5497232,2.9052734375
,43.5697995,2.96875
,43.5748745,2.9638671875
,43.6106248,2.900390625
,43.6151691,2.8076171875
,43.6498281,2.705078125
,43.6714602,2.59765625
,43.679768,2.490234375
,43.6940798,2.373046875
,43.7305542,2.255859375
,43.7616934,2.138671875
,43.7620607,2.0263671875
,43.7776606,1.9140625
,43.8243368,1.796875
,43.8247984,1.689453125
,43.838444,1.5771484375
,43.8551373,1.484375
,43.890372,1.4013671875
,43.8949898,1.3232421875
,43.9318289,1.25
,43.9371293,1.181640625
,43.9741958,1.1181640625
,43.976729,1.0595703125
,44.0114368,1.005859375
,44.0424371,0.9521484375
,44.0428603,0.9033203125
,44.0555751,0.859375
,44.0916245,0.8154296875
,44.0956918,0.7666015625
,44.1312994,0.72265625
,44.1373754,0.68359375
,44.1580976,0.6494140625
,44.1940211,0.6201171875
,44.1972283,0.60546875
,44.2330467,0.6494140625
,44.2633306,0.7958984375
,44.2638016,1.0498046875
,44.2779728,1.337890625
,44.325124,1.640625
,44.3257225,1.9189453125
,44.3392136,2.1484375
,44.3743507,2.3583984375
,44.3786798,2.5244140625
,44.4133423,2.6806640625
,44.434101,2.783203125
,44.4366933,2.8515625
,44.4728831,2.8466796875
,44.4767968,2.783203125
,44.5119273,2.6953125
,44.5321714,2.6025390625
,44.5370993,2.5
,44.5746415,2.40234375
,44.6039547,2.2998046875
,44.6044191,2.197265625
,44.6181349,2.0947265625
,44.6546086,1.9873046875
,44.6602212,1.875
,44.6773287,1.767578125
,44.7277866,1.66015625
,44.7281543,1.5625
,44.7581634,1.46484375
,44.7585394,1.376953125
,44.7752458,1.30859375
,44.8131125,1.2353515625
,44.8159993,1.1669921875
,44.8526621,1.0986328125
,44.8745069,1.0302734375
,44.879505,0.9765625
,44.9151722,0.91796875
,44.9178187,0.8740234375
,44.9531644,0.8251953125
,44.9732186,0.78125
,44.978366,0.7373046875
,45.0135058,0.6982421875
,45.0184241,0.654296875
,45.0550054,0.615234375
,45.0581715,0.576171875
,45.0961208,0.556640625
,45.1013907,0.546875
,45.1199681,0.615234375
,45.1369323,0.791015625
,45.172326,1.083984375
,45.1923655,1.396484375
,45.1982843,1.7236328125
,45.2344044,2.01171875
,45.2373768,2.28515625
,45.271233,2.509765625
,45.2919162,2.7294921875
,45.3014356,2.91015625
,45.3180861,3.046875
,45.3522462,3.1494140625
,45.3578426,3.173828125
,45.395719,3.125
,45.4003533,3.0419921875
,45.4203072,2.939453125
,45.4599423,2.8369140625
,45.4603088,2.724609375
,45.4767826,2.6123046875
,45.5125168,2.5
,45.5187411,2.3828125
,45.5386563,2.2509765625
,45.5739542,2.12890625
,45.5802614,2.01171875
,45.5989025,1.8896484375
,45.6353195,1.77734375
,45.6402453,1.6650390625
,45.6777261,1.5673828125
,45.682854,1.474609375
,45.6978156,1.3818359375
,45.7323791,1.298828125
,45.7376988,1.220703125
,45.786937,1.15234375
,45.7873135,1.0791015625
,45.799993,1.0205078125
,45.8342263,0.95703125
,45.8543938,0.9033203125
,45.8579171,0.8544921875
,45.896352,0.810546875
,45.8980998,0.76171875
,45.9336722,0.72265625
,45.9397053,0.68359375
,45.9747482,0.6396484375
,45.9808998,0.6005859375
,46.0255213,0.576171875
,46.0260738,0.576171875
,46.037063,0.654296875
,46.073056,0.869140625
,46.078763,1.1474609375
,46.1193229,1.4697265625
,46.1199137,1.7626953125
,46.1505702,2.0458984375
,46.1620588,2.2802734375
,46.1814768,2.5
,46.1991926,2.6806640625
,46.2188687,2.8466796875
,46.2610839,2.9736328125
,46.26159,3.0322265625
,46.2783381,3.02734375
,46.3154309,2.9638671875
,46.3387453,2.87109375
,46.3391223,2.7685546875
,46.3746466,2.6611328125
,46.4013181,2.55859375
,46.4017793,2.4462890625
,46.4185912,2.3291015625
,46.453778,2.20703125
,46.4587659,2.08984375
,46.4934882,1.97265625
,46.5139638,1.85546875
,46.5209749,1.7431640625
,46.5576488,1.630859375
,46.5609203,1.533203125
,46.5967882,1.435546875
,46.599766,1.34765625
,46.6195702,1.2646484375
,46.6550848,1.19140625
,46.6594791,1.1181640625
,46.6960996,1.0498046875
,46.7144074,0.986328125
,46.7215762,0.927734375
,46.7604201,0.869140625
,46.7607427,0.8251953125
,46.7954594,0.78125
,46.7986554,0.7421875
,46.8348684,0.712890625
,46.8412156,0.673828125
,46.8857816,0.6396484375
,46.8861504,0.60546875
,46.9016138,0.5712890625
,46.9370295,0.546875
,46.9398094,0.5615234375
,46.9757331,0.693359375
,46.9809396,0.91796875
,47.025022,1.2109375
,47.0253332,1.5087890625
,47.0401785,1.806640625
,47.0887201,2.0556640625
,47.0891615,2.2900390625
,47.1027363,2.4755859375
,47.1494181,2.646484375
,47.15002,2.7783203125
,47.1598695,2.8857421875
,47.1962357,2.919921875
,47.2015783,2.8955078125
,47.2364307,2.822265625
,47.2422161,2.7294921875
,47.2639146,2.6416015625
,47.299291,2.5537109375
,47.3038229,2.4560546875
,47.319836,2.3583984375
,47.3401943,2.255859375
,47.3859696,2.1484375
,47.386558,2.0458984375
,47.416195,1.9384765625
,47.4239698,1.826171875
,47.4603751,1.71875
,47.4608955,1.6259765625
,47.4805659,1.533203125
,47.5158743,1.4453125
,47.5207527,1.3671875
,47.5407995,1.2939453125
,47.5766744,1.220703125
,47.5816815,1.15234375
,47.6186408,1.0986328125
,47.6230436,1.044921875
,47.6592715,0.99609375
,47.6598699,0.9423828125
,47.6972521,0.8935546875
,47.7022463,0.849609375
,47.721722,0.8056640625
,47.7397473,0.76171875
,47.7802316,0.7275390625
,47.8000619,0.6982421875
,47.804904,0.7080078125
,47.8242322,0.7958984375
,47.8738622,1.0205078125
,47.8744775,1.3134765625
,47.879315,1.591796875
,47.9200114,1.884765625
,47.9403407,2.12890625
,47.9408294,2.3583984375
,47.9748026,2.5390625
,47.9957169,2.7099609375
,48.0052709,2.841796875
,48.0436965,2.9345703125
,48.044347,2.96875
,48.0606512,2.9345703125
,48.0962516,2.8564453125
,48.1161436,2.763671875
,48.1207123,2.6708984375
,48.1669632,2.5732421875
,48.1673769,2.470703125
,48.1878359,2.3583984375
,48.2040829,2.2412109375
,48.2216338,2.1240234375
,48.2405884,2.01171875
,48.2741567,1.904296875
,48.2950598,1.787109375
,48.3032474,1.6796875
,48.3398544,1.5771484375
,48.344478,1.4794921875
,48.3882169,1.38671875
,48.3886965,1.3037109375
,48.4011747,1.23046875
,48.4375754,1.162109375
,48.4405079,1.09375
,48.4780303,1.0302734375
,48.4828819,0.9765625
,48.5267296,0.9228515625
,48.5272807,0.869140625
,48.5601257,0.8203125
,48.5648984,0.771484375
,48.5989693,0.7275390625
,48.6204471,0.68359375
,48.6208101,0.6494140625
,48.6578946,0.615234375
,48.66316,0.5810546875
,48.684178,0.556640625
,48.7181777,0.546875
,48.7391666,0.5859375
,48.7446861,0.7421875
,48.763169,0.9912109375
,48.7974888,1.3134765625
,48.8013272,1.6552734375
,48.8349056,1.953125
,48.8570292,2.236328125
,48.8637271,2.470703125
,48.899746,2.6953125
,48.9052391,2.8759765625
,48.9425568,3.0322265625
,48.9429385,3.125
,48.9786265,3.1787109375
,48.9818497,3.1494140625
,49.0171756,3.0810546875
,49.0378197,2.978515625
,49.0436794,2.87109375
,49.081804,2.75390625
,49.0865913,2.63671875
,49.100486,2.5146484375
,49.1357474,2.3974609375
,49.1557693,2.2705078125
,49.1641981,2.138671875
,49.201376,2.0166015625
,49.2038171,1.904296875
,49.238182,1.787109375
,49.2641997,1.6796875
,49.264781,1.5771484375
,49.301553,1.4794921875
,49.3062857,1.38671875
,49.322828,1.3037109375
,49.3596089,1.23046875
,49.3625396,1.162109375
,49.3995907,1.0986328125
,49.4226116,1.03515625
,49.4229762,0.9716796875
,49.469136,0.91796875
,49.4696909,0.8642578125
,49.4870374,0.8154296875
,49.5033636,0.7666015625
,49.5235947,0.72265625
,49.5607824,0.68359375
,49.5647705,0.64453125
,49.5990342,0.60546875
,49.619896,0.5810546875
,49.6250204,0.556640625
,49.6709149,0.5615234375
,49.6715124,0.654296875
,49.682161,0.869140625
,49.7153333,1.1474609375
,49.7360857,1.474609375
,49.7432917,1.7626953125
,49.7787017,2.05078125
,49.8004727,2.2900390625
,49.8074438,2.4853515625
,49.8423545,2.666015625
,49.8427139,2.8076171875
,49.8859561,2.9248046875
,49.8863233,2.9833984375
,49.9064701,2.9736328125
,49.9255368,2.900390625
,49.9459357,2.7978515625
,49.9964801,2.6904296875
,49.9969098,2.5830078125
,50.0075421,2.48046875
,50.0418621,2.3681640625
,50.0422718,2.2509765625
,50.0636497,2.1337890625
,50.0982461,2.0166015625
,50.120083,1.8994140625
,50.1246263,1.7822265625
,50.1598511,1.669921875
,50.1665374,1.5625
,50.1871695,1.4599609375
,50.2216262,1.3671875
,50.2219908,1.2744140625
,50.2432669,1.1962890625
,50.2909168,1.1181640625
,50.2913698,1.044921875
,50.3118609,0.9765625
,50.3254765,0.9130859375
,50.3604491,0.849609375
,50.380929,0.7958984375
,50.3840369,0.7421875
,50.4291737,0.7080078125
,50.4295453,0.6640625
,50.4449191,0.625
,50.4823103,0.5810546875
,50.485234,0.546875
,50.5227476,0.5078125
,50.5233639,0.4736328125
,50.5599973,0.4833984375
,50.5809529,0.537109375
,50.5838504,0.68359375
,50.6213807,0.9228515625
,50.6258156,1.2353515625
,50.6614693,1.5283203125
,50.6650665,1.826171875
,50.7012033,2.0654296875
,50.7067685,2.28515625
,50.7414675,2.470703125
,50.7627561,2.607421875
,50.767559,2.734375
,50.7857553,2.802734375
,50.8208872,2.8173828125
,50.8260971,2.7734375
,50.8673754,2.7001953125
,50.8679891,2.6220703125
,50.9134686,2.5390625
,50.9138504,2.4560546875
,50.9288688,2.3779296875
,50.9440724,2.28515625
,50.9790254,2.1875
,50.9993199,2.0947265625
,51.0048034,1.9970703125
,51.0403779,1.8994140625
,51.0610143,1.806640625
,51.0672807,1.7138671875
,51.1143834,1.62109375
,51.1148878,1.5283203125
,51.1248092,1.4404296875
,51.1450329,1.3623046875
,51.1808549,1.2939453125
,51.185897,1.23046875
,51.2245124,1.171875
,51.2250609,1.1181640625
,51.2613763,1.064453125
,51.2815266,1.005859375
,51.2859475,0.9521484375
,51.3049512,0.9033203125
,51.3393785,0.859375
,51.3600077,0.8154296875
,51.3652404,0.7763671875
,51.3858889,0.7373046875
,51.4215964,0.72265625
,51.4269155,0.7763671875
,51.4721949,0.9521484375
,51.4725927,1.201171875
,51.487646,1.50390625
,51.5212543,1.7822265625
,51.5262869,2.0556640625
,51.562365,2.275390625
,51.5666571,2.4755859375
,51.6014804,2.6416015625
,51.6223809,2.783203125
,51.6280076,2.880859375
,51.6643412,2.9248046875
,51.6648834,2.900390625
,51.6849285,2.8466796875
,51.7215582,2.763671875
,51.7278379,2.6708984375
,51.7634111,2.5732421875
,51.7693931,2.48046875
,51.7882044,2.3779296875
,51.8321795,2.2705078125
,51.8325458,2.1484375
,51.8448646,2.041015625
,51.8802743,1.93359375
,51.8862134,1.826171875
,51.9205373,1.71875
,51.9433348,1.62109375
,51.9477149,1.533203125
,51.9886667,1.4453125
,51.9892625,1.3623046875
,52.0264789,1.2890625
,52.0270728,1.2158203125
,52.0640179,1.15234375
,52.0646058,1.0888671875
,52.1030786,1.03515625
,52.1063249,0.9765625
,52.1582851,0.9228515625
,52.1588381,0.869140625
,52.1887485,0.8251953125
,52.1891127,0.78125
,52.2227093,0.7470703125
,52.2430457,0.703125
,52.2486079,0.673828125
,52.2980242,0.64453125
,52.2986809,0.6201171875
,52.309696,0.625
,52.344091,0.72265625
,52.3484031,0.947265625
,52.3837583,1.23046875
,52.4038058,1.5576171875
,52.4089205,1.85546875
,52.4272791,2.138671875
,52.4643343,2.3779296875
,52.4669287,2.59765625
,52.5011185,2.7783203125
,52.5220111,2.9345703125
,52.5292628,3.0419921875
,52.5500379,3.095703125
,52.5674761,3.0810546875
,52.6080388,3.0224609375
,52.6085123,2.9296875
,52.6449551,2.8173828125
,52.6476854,2.7099609375
,52.6835234,2.59765625
,52.6883929,2.48046875
,52.7249457,2.3583984375
,52.7299832,2.2314453125
,52.7475229,2.109375
,52.7937268,1.9873046875
,52.7943728,1.875
,52.8085224,1.7626953125
,52.8450776,1.650390625
,52.8478371,1.5478515625
,52.8817979,1.4501953125
,52.9031279,1.3623046875
,52.9112395,1.2744140625
,52.9302918,1.1865234375
,52.9478389,1.1083984375
,52.9973668,1.0498046875
,52.9977306,0.9912109375
,53.017694,0.9326171875
,53.0303147,0.8837890625
,53.0653207,0.830078125
,53.0699413,0.78125
,53.1057502,0.7373046875
,53.11124,0.6982421875
,53.1286071,0.654296875
,53.1640737,0.6201171875
,53.1675602,0.5908203125
,53.2051128,0.56640625
,53.2098487,0.5517578125
,53.260205,0.5908203125
,53.2606591,0.7177734375
,53.2703812,0.966796875
,53.3048935,1.2841796875
,53.3243691,1.58203125
,53.3272667,1.884765625
,53.3702888,2.1337890625
,53.3708832,2.36328125
,53.4175855,2.5439453125
,53.4181953,2.705078125
,53.4310492,2.822265625
,53.4677195,2.91015625
,53.4680894,2.9296875
,53.5042302,2.9052734375
,53.5093855,2.8271484375
,53.5442295,2.7294921875
,53.548397,2.6318359375
,53.5836038,2.5341796875
,53.6035682,2.431640625
,53.6119641,2.32421875
,53.6479988,2.20703125
,53.6503426,2.08984375
,53.6880341,1.9677734375
,53.6886728,1.8505859375
,53.730151,1.7431640625
,53.7308244,1.6357421875
,53.7505422,1.533203125
,53.7921076,1.435546875
,53.7924807,1.34765625
,53.8127281,1.2646484375
,53.848053,1.181640625
,53.8486615,1.1083984375
,53.882451,1.044921875
,53.9051026,0.9814453125
,53.909572,0.9228515625
,53.9470005,0.8740234375
,53.9494543,0.8203125
,53.9877688,0.771484375
,53.9923231,0.732421875
,54.0384056,0.693359375
,54.0387322,0.654296875
,54.0488068,0.6201171875
,54.0838438,0.5859375
,54.1033529,0.556640625
,54.1109258,0.5322265625
,54.1485351,0.56640625
,54.1489317,0.693359375
,54.1948747,0.9521484375
,54.1954662,1.2451171875
,54.2158818,1.5673828125
,54.2290338,1.8408203125
,54.2728502,2.1044921875
,54.2732178,2.32421875
,54.3033848,2.5
,54.3126264,2.6513671875
,54.3330926,2.7587890625
,54.3677617,2.8271484375
,54.3727879,2.83203125
,54.4079831,2.7783203125
,54.4084516,2.7001953125
,54.4459318,2.6220703125
,54.4727557,2.5390625
,54.4730691,2.4560546875
,54.5064484,2.3681640625
,54.5351955,2.2705078125
,54.5355797,2.16796875
,54.5531323,2.0703125
,54.5998192,1.97265625
,54.6003076,1.8701171875
,54.6293807,1.7724609375
,54.6299319,1.6796875
,54.6751838,1.591796875
,54.6755554,1.50390625
,54.6922769,1.42578125
,54.7384732,1.34765625
,54.7391357,1.2744140625
,54.7507744,1.2060546875
,54.7878583,1.15234375
,54.7882292,1.0986328125
,54.8347008,1.044921875
,54.8353446,0.99609375
,54.8554871,0.9423828125
,54.8722033,0.888671875
,54.9069461,0.8447265625
,54.927166,0.7958984375
,54.9308666,0.751953125
,54.9543818,0.7177734375
,54.971818,0.6884765625
,55.0063493,0.76171875
,55.0113127,0.9375
,55.0461729,1.2158203125
,55.0529886,1.513671875
,55.0994271,1.8115234375
,55.1000153,2.0654296875
,55.1133767,2.294921875
,55.1294466,2.4755859375
,55.1656138,2.646484375
,55.1863418,2.7783203125
,55.1917197,2.8759765625
,55.2273216,2.919921875
,55.2326243,2.890625
,55.2711468,2.8271484375
,55.2715172,2.734375
,55.3064675,2.6513671875
,55.327141,2.5634765625
,55.3328217,2.4755859375
,55.3532222,2.3779296875
,55.3881944,2.2705078125
,55.3937627,2.158203125
,55.4410184,2.05078125
,55.4415967,1.943359375
,55.4527512,1.8310546875
,55.4723076,1.7236328125
,55.5060198,1.6259765625
,55.5114996,1.533203125
,55.5485621,1.4599609375
,55.551518,1.376953125
,55.5970277,1.3037109375
,55.5974956,1.2255859375
,55.6166767,1.162109375
,55.6325467,1.09375
,55.6540769,1.0302734375
,55.6753792,0.9765625
,55.6903165,0.908203125
,55.7270173,0.869140625
,55.74788,0.8251953125
,55.7538727,0.7861328125
,55.7935578,0.7470703125
,55.7939794,0.712890625
,55.8156045,0.6787109375
,55.8516522,0.6494140625
,55.8564481,0.6396484375
,55.8720017,0.6884765625
,55.9163336,0.8642578125
,55.9167091,1.1279296875
,55.9342104,1.4501953125
,55.9711126,1.7529296875
,55.9751526,2.0556640625
,56.0245246,2.2998046875
,56.0248871,2.529296875
,56.032175,2.71484375
,56.0716478,2.8955078125
,56.072252,3.017578125
,56.109914,3.10546875
,56.1143555,3.1201171875
,56.1635644,3.0712890625
,56.1639382,2.9833984375
,56.1761248,2.880859375
,56.2102759,2.783203125
,56.2107722,2.67578125
,56.2576027,2.568359375
,56.2582537,2.4560546875
,56.2720983,2.333984375
,56.307899,2.2119140625
,56.3278297,2.0849609375
,56.3357969,1.9677734375
,56.3721075,1.845703125
,56.3724649,1.728515625
,56.4055878,1.6259765625
,56.4272123,1.50390625
,56.4342979,1.4208984375
,56.4682747,1.337890625
,56.4741899,1.259765625
,56.4938878,1.181640625
,56.5298626,1.11328125
,56.5353269,1.044921875
,56.5707314,0.9814453125
,56.5910785,0.9326171875
,56.5915118,0.87890625
,56.6307381,0.8349609375
,56.6313023,0.7861328125
,56.6674439,0.7470703125
,56.6876941,0.703125
,56.6951457,0.6640625
,56.7310356,0.625
,56.7344574,0.6005859375
,56.7532607,0.576171875
,56.8020094,0.6201171875
,56.8026267,0.7568359375
,56.8127428,1.0205078125
,56.850636,1.3427734375
,56.8550532,1.6455078125
,56.8909916,1.9482421875
,56.8955231,2.1923828125
,56.9398529,2.412109375
,56.9403984,2.587890625
,56.9540717,2.7587890625
,56.9895164,2.8759765625
,56.9952063,2.94921875
,57.0139903,2.958984375
,57.035388,2.91015625
,57.0823029,2.8271484375
,57.0828974,2.7294921875
,57.0930155,2.6318359375
,57.127977,2.529296875
,57.1362287,2.3974609375
,57.1537833,2.265625
,57.1885916,2.158203125
,57.1945201,2.0458984375
,57.232616,1.93359375
,57.2332121,1.81640625
,57.2695968,1.7041015625
,57.2903099,1.591796875
,57.2980656,1.484375
,57.3146066,1.3916015625
,57.3634647,1.30859375
,57.3640856,1.23046875
,57.3734982,1.15234375
,57.4101354,1.0791015625
,57.4300502,1.0107421875
,57.4349561,0.9423828125
,57.4738893,0.87890625
,57.4783389,0.8203125
,57.4941248,0.7666015625
,57.5319866,0.7177734375
,57.5365312,0.6787109375
,57.5549829,0.634765625
,57.5914359,0.5908203125
,57.596191,0.556640625
,57.6394253,0.517578125
,57.6399935,0.48828125
,57.6536243,0.4833984375
,57.6882538,0.458984375
,57.6933114,0.44921875
,57.7336271,0.5322265625
,57.7629517,0.7177734375
,57.7633338,1.015625
,57.7758654,1.34765625
,57.8249955,1.650390625
,57.8254824,1.93359375
,57.8392282,2.16796875
,57.8593019,2.36328125
,57.8753616,2.5146484375
,57.9094364,2.6708984375
,57.915035,2.7783203125
,57.9517012,2.83203125
,57.9566051,2.8173828125
,57.9913932,2.75390625
,57.9973442,2.666015625
,58.0336428,2.587890625
,58.0340565,2.5048828125
,58.0743087,2.421875
,58.0749339,2.333984375
,58.1192886,2.2412109375
,58.1196543,2.138671875
,58.1371545,2.041015625
,58.1826266,1.93359375
,58.1832398,1.8310546875
,58.1997506,1.728515625
,58.2147713,1.6357421875
,58.2507854,1.5478515625
,58.2546484,1.4697265625
,58.2922446,1.3916015625
,58.29764,1.318359375
,58.3359048,1.25
,58.3362788,1.181640625
,58.3727184,1.123046875
,58.3733072,1.064453125
,58.4086211,1.0107421875
,58.4315745,0.966796875
,58.4365057,0.91796875
,58.4716311,0.869140625
,58.4747726,0.8251953125
,58.5097638,0.7763671875
,58.5303017,0.732421875
,58.5385775,0.693359375
,58.5597512,0.6591796875
,58.5784642,0.615234375
,58.5957719,0.6201171875
,58.6301782,0.771484375
,58.650766,1.0107421875
,58.656391,1.3232421875
,58.6930112,1.630859375
,58.6980533,1.923828125
,58.71766,2.1630859375
,58.7542583,2.3876953125
,58.7588788,2.568359375
,58.775452,2.7099609375
,58.7952448,2.83203125
,58.8329426,2.8955078125
,58.8631559,2.9052734375
,58.8637367,2.861328125
,58.8787142,2.783203125
,58.9149127,2.6953125
,58.9175059,2.607421875
,58.9372377,2.509765625
,58.9732232,2.4267578125
,58.9738054,2.3291015625
,59.0091861,2.216796875
,59.0342507,2.109375
,59.0352002,2.001953125
,59.0817085,1.8896484375
,59.0821758,1.7822265625
,59.1129892,1.6748046875
,59.1136056,1.5771484375
,59.1499351,1.494140625
,59.1704181,1.40625
,59.1760825,1.328125
,59.2129732,1.2451171875
,59.2173148,1.171875
,59.2529279,1.0986328125
,59.2583049,1.0400390625
,59.2796756,0.9765625
,59.3000367,0.9033203125
,59.315452,0.8349609375
,59.351883,0.8056640625
,59.3577181,0.7666015625
,59.3933172,0.732421875
,59.3989468,0.6982421875
,59.4346568,0.6591796875
,59.4380923,0.615234375
,59.4765278,0.5810546875
,59.4813392,0.5517578125
,59.4973353,0.52734375
,59.532807,0.556640625
,59.5375398,0.6640625
,59.5735811,0.908203125
,59.5767778,1.2109375
,59.6121858,1.552734375
,59.6425376,1.8603515625
,59.643153,2.1533203125
,59.657544,2.392578125
,59.6924215,2.607421875
,59.6975888,2.7978515625
,59.7190954,2.9345703125
,59.7683941,3.046875
,59.768753,3.0908203125
,59.7799448,3.076171875
,59.8302501,3.0078125
,59.8306875,2.9150390625
,59.8365374,2.8125
,59.8723849,2.7197265625
,59.8782259,2.6171875
,59.9226428,2.509765625
,59.923003,2.3876953125
,59.9386271,2.265625
,59.975709,2.138671875
,59.9799676,2.021484375
,60.0005418,1.9091796875
,60.0198844,1.787109375
,60.0625619,1.6552734375
,60.0630616,1.5576171875
,60.0841861,1.4697265625
,60.0981896,1.3818359375
,60.1329303,1.2939453125
,60.1531591,1.220703125
,60.1586523,1.1474609375
,60.1983306,1.083984375
,60.1989282,1.015625
,60.2343184,0.95703125
,60.2374868,0.9033203125
,60.2795764,0.8544921875
,60.280116,0.8056640625
,60.3261643,0.7568359375
,60.3265408,0.7080078125
,60.3412901,0.6640625
,60.3610551,0.615234375
,60.405202,0.5712890625
,60.4055756,0.52734375
,60.4195453,0.498046875
,60.4559497,0.4736328125
,60.4593404,0.517578125
,60.4938871,0.6640625
,60.5004368,0.947265625
,60.534321,1.259765625
,60.5421286,1.5966796875
,60.556896,1.8798828125
,60.5791242,2.1533203125
,60.5982495,2.36328125
,60.6344889,2.548828125
,60.6387468,2.6953125
,60.6745808,2.822265625
,60.7017497,2.900390625
,60.7021822,2.91015625
,60.7361084,2.87109375
,60.7560197,2.7880859375
,60.7621809,2.67578125
,60.7782008,2.587890625
,60.8144565,2.5048828125
,60.8184065,2.412109375
,60.853183,2.3095703125
,60.8743976,2.2021484375
,60.8792649,2.08984375
,60.914938,1.982421875
,60.9356708,1.8701171875
,60.9385923,1.7578125
,60.9745462,1.6552734375
,60.9790415,1.552734375
,60.9998836,1.455078125
,61.0363472,1.3623046875
,61.041132,1.2744140625
,61.0770153,1.19140625
,61.0813737,1.1181640625
,61.1183038,1.0498046875
,61.1188961,0.9814453125
,61.1540489,0.9228515625
,61.1599121,0.869140625
,61.1945037,0.830078125
,61.2151379,0.7861328125
,61.2208533,0.7373046875
,61.2581727,0.693359375
,61.261349,0.6494140625
,61.2788094,0.6005859375
,61.3146529,0.5712890625
,61.3171557,0.537109375
,61.3551097,0.5126953125
,61.3588698,0.5224609375
,61.3945735,0.6298828125
,61.4146218,0.8642578125
,61.4206301,1.1669921875
,61.4560992,1.4990234375
,61.4859726,1.7822265625
,61.4866343,2.03125
,61.4994262,2.2265625
,61.5354466,2.4267578125
,61.5638853,2.5732421875
,61.5643472,2.7001953125
,61.5809391,2.7734375
,61.6179456,2.79296875
,61.620969,2.75390625
,61.6570893,2.6806640625
,61.661838,2.607421875
,61.6783517,2.5341796875
,61.7202263,2.470703125
,61.7208475,2.392578125
,61.7412014,2.3095703125
,61.7782874,2.2216796875
,61.7830184,2.119140625
,61.8290793,2.021484375
,61.8295228,1.9189453125
,61.8386923,1.81640625
,61.8753188,1.71875
,61.8810218,1.6259765625
,61.9164949,1.533203125
,61.9225106,1.4501953125
,61.9700792,1.3720703125
,61.9705833,1.298828125
,61.982558,1.2255859375
,62.0186066,1.162109375
,62.0192311,1.103515625
,62.0529825,1.0498046875
,62.073616599999994,0.99609375
,62.0807691,0.9521484375
,62.10228909999999,0.8984375
,62.1396592,0.8544921875
,62.1401073,0.810546875
,62.161870500000006,0.76171875
,62.1826344,0.72265625
,62.20349830000001,0.673828125
,62.220505,0.64453125
,62.241367100000005,0.6982421875
,62.2769548,0.8740234375
,62.281649400000006,1.1328125
,62.318632699999995,1.4599609375
,62.323421800000006,1.7626953125
,62.3604412,2.05078125
,62.364416399999996,2.2802734375
,62.384901299999996,2.490234375
,62.3997871,2.6611328125
,62.4340782,2.8125
,62.454283000000004,2.9150390625
,62.4624685,2.9833984375
,62.498474099999996,2.98828125
,62.501009100000005,2.939453125
,62.537592000000004,2.8564453125
,62.542704900000004,2.7685546875
,62.5601243,2.6708984375
,62.596693900000005,2.587890625
,62.60123,2.5
,62.620450700000006,2.3974609375
,62.6557155,2.2900390625
,62.6900275,2.177734375
,62.690394600000005,2.0703125
,62.705392200000006,1.962890625
,62.7515475,1.85546875
,62.752020099999996,1.7529296875
,62.7607374,1.6552734375
,62.780664099999996,1.5625
,62.8152288,1.474609375
,62.836126500000006,1.3916015625
,62.84151369999999,1.3134765625
,62.876759199999995,1.2353515625
,62.897566999999995,1.1669921875
,62.90298730000001,1.0986328125
,62.9241203,1.0302734375
,62.958213900000004,0.95703125
,62.9785784,0.908203125
,62.9793129,0.8642578125
,63.017748299999994,0.8251953125
,63.0219079,0.78125
,63.058312799999996,0.7373046875
,63.0793613,0.693359375
,63.0844853,0.654296875
,63.1324638,0.6201171875
,63.132836499999996,0.5908203125
,63.142650599999996,0.5810546875
,63.179508999999996,0.634765625
,63.182585200000005,0.8203125
,63.219448400000005,1.09375
,63.223584200000005,1.435546875
,63.258153199999995,1.7724609375
,63.279302599999994,2.0556640625
,63.28462330000001,2.3193359375
,63.3007758,2.5341796875
,63.349720899999994,2.734375
,63.3500904,2.8857421875
,63.3710605,3.0126953125
,63.3833607,3.0810546875
,63.4197156,3.095703125
,63.424098099999995,3.0517578125
,63.4593893,2.96875
,63.459784799999994,2.8759765625
,63.4935253,2.7880859375
,63.515302399999996,2.7001953125
,63.522709000000006,2.59765625
,63.567733700000005,2.490234375
,63.5683097,2.3779296875
,63.600426,2.255859375
,63.6057227,2.1337890625
,63.624921900000004,2.0166015625
,63.6452099,1.8994140625
,63.692629600000004,1.787109375
,63.6930088,1.6748046875
,63.701547899999994,1.58203125
,63.7372819,1.494140625
,63.7431103,1.40625
,63.7783726,1.328125
,63.7830649,1.2548828125
,63.8183659,1.1767578125
,63.839184200000005,1.103515625
,63.84227129999999,1.03515625
,63.878416099999995,0.9814453125
,63.8840594,0.927734375
,63.932040900000004,0.8740234375
,63.932489399999994,0.8251953125
,63.943771999999996,0.78125
,63.980675500000004,0.7373046875
,63.9859776,0.693359375
,64.0241725,0.654296875
,64.0247116,0.615234375
,64.0589294,0.5810546875
,64.0649298,0.5517578125
,64.1151857,0.537109375
,64.1157394,0.5615234375
,64.1243471,0.712890625
,64.1598742,0.966796875
,64.1654115,1.2890625
,64.2007648,1.6259765625
,64.2242124,1.9140625
,64.224694,2.1923828125
,64.2447802,2.412109375
,64.2648107,2.6123046875
,64.3010323,2.763671875
,64.3064359,2.890625
,64.32656,2.96875
,64.3620807,2.9931640625
,64.3692278,2.9541015625
,64.3873496,2.8564453125
,64.4022333,2.763671875
,64.4369501,2.67578125
,64.4583205,2.587890625
,64.4652669,2.4853515625
,64.5015841,2.3828125
,64.5045479,2.2705078125
,64.5403147,2.1533203125
,64.5457902,2.041015625
,64.5814217,1.9189453125
,64.5818319,1.806640625
,64.6263266,1.69921875
,64.6266948,1.5966796875
,64.6621944,1.4990234375
,64.666858,1.40625
,64.7016584,1.3134765625
,64.7063506,1.2353515625
,64.7419366,1.15234375
,64.7671415,1.083984375
,64.7678082,1.0205078125
,64.7857686,0.966796875
,64.8056718,0.9033203125
,64.84121,0.849609375
,64.845032,0.80078125
,64.8810498,0.751953125
,64.9022931,0.7080078125
,64.9066059,0.6689453125
,64.9223033,0.625
,64.9582869,0.5908203125
,64.9815639,0.5517578125
,64.9836391,0.517578125
,65.0176286,0.48828125
,65.0386422,0.4736328125
,65.0437689,0.48828125
,65.079793,0.64453125
,65.1002796,0.8837890625
,65.1083046,1.19140625
,65.123242,1.50390625
,65.1592613,1.81640625
,65.1655779,2.0849609375
,65.1854085,2.2900390625
,65.2315051,2.470703125
,65.2319589,2.6123046875
,65.2506506,2.7294921875
,65.2671087,2.802734375
,65.3033746,2.822265625
,65.3039506,2.7880859375
,65.3397132,2.724609375
,65.370986,2.646484375
,65.3713682,2.5732421875
,65.3872071,2.5
,65.4208548,2.4169921875
,65.4260861,2.3291015625
,65.4629346,2.2265625
,65.4822784,2.1337890625
,65.4827113,2.0361328125
,65.5187276,1.943359375
,65.538862,1.8505859375
,65.5462458,1.767578125
,65.5822345,1.6796875
,65.5879122,1.6015625
,65.6325778,1.5283203125
,65.6329563,1.455078125
,65.6454741,1.38671875
,65.6827346,1.328125
,65.6857339,1.2646484375
,65.7224202,1.201171875
,65.7256357,1.1376953125
,65.7632444,1.07421875
,65.7660088,1.005859375
,65.8008439,0.947265625
,65.8208283,0.8837890625
,65.8280637,0.830078125
,65.8623043,0.7763671875
,65.8846791,0.7373046875
,65.8858147,0.712890625
,65.9222546,0.693359375
,65.9258036,0.6982421875
,65.9616959,0.78125
,65.982132,0.9912109375
,65.9881717,1.2646484375
,66.0230048,1.572265625
,66.0233838,1.845703125
,66.0595223,2.109375
,66.0844498,2.3095703125
,66.0848237,2.48046875
,66.1185344,2.626953125
,66.1397536,2.724609375
,66.1494764,2.7978515625
,66.1679889,2.8125
,66.2039343,2.7783203125
,66.204297,2.705078125
,66.2396418,2.6318359375
,66.2603423,2.5537109375
,66.2675704,2.48046875
,66.2872849,2.3974609375
,66.3342215,2.3193359375
,66.334712,2.2216796875
,66.3501033,2.119140625
,66.3661776,2.0263671875
,66.3849193,1.9287109375
,66.4198238,1.826171875
,66.4270001,1.7236328125
,66.474667,1.6259765625
,66.475037,1.533203125
,66.486372,1.4404296875
,66.5203626,1.3623046875
,66.5409852,1.279296875
,66.5505954,1.2060546875
,66.5848533,1.1376953125
,66.5853382,1.07421875
,66.6206279,1.015625
,66.6411496,0.95703125
,66.6465112,0.908203125
,66.6822908,0.859375
,66.7026765,0.8203125
,66.7092235,0.78125
,66.7452921,0.7373046875
,66.7496243,0.7080078125
,66.7665811,0.673828125
,66.8042461,0.6494140625
,66.8074673,0.625
,66.8457484,0.6298828125
,66.8461589,0.712890625
,66.8891082,0.927734375
,66.889861,1.220703125
,66.9198842,1.552734375
,66.9248804,1.845703125
,66.9640571,2.1337890625
,66.9645404,2.3583984375
,67.0036281,2.568359375
,67.0263242,2.734375
,67.0267065,2.880859375
,67.0734247,2.9736328125
,67.073883,3.037109375
,67.0933247,3.02734375
,67.1071294,2.96875
,67.1416076,2.890625
,67.1482412,2.802734375
,67.1983899,2.71484375
,67.1989892,2.6220703125
,67.2097911,2.5390625
,67.2440063,2.44140625
,67.2641414,2.3388671875
,67.2722351,2.2216796875
,67.321783,2.0947265625
,67.3223472,1.982421875
,67.3275292,1.8798828125
,67.3617045,1.77734375
,67.3823326,1.6796875
,67.3892012,1.5869140625
,67.423572,1.4990234375
,67.4439308,1.4111328125
,67.4501587,1.3330078125
,67.484871,1.259765625
,67.5044175,1.181640625
,67.5072722,1.123046875
,67.5438871,1.064453125
,67.5475233,1.005859375
,67.5840879,0.9521484375
,67.6046737,0.9033203125
,67.6094793,0.8544921875
,67.6473357,0.8056640625
,67.6477279,0.76171875
,67.6844235,0.7177734375
,67.6876007,0.68359375
,67.722749,0.6591796875
,67.7276225,0.6689453125
,67.7626561,0.7470703125
,67.7837614,0.95703125
,67.7888409,1.2353515625
,67.8264782,1.5576171875
,67.8269368,1.845703125
,67.8650478,2.119140625
,67.8659198,2.34375
,67.902991,2.5390625
,67.9229997,2.705078125
,67.9280948,2.8466796875
,67.9660487,2.9443359375
,67.9709038,3.0029296875
,68.0061673,2.9931640625
,68.0113057,2.9345703125
,68.0523466,2.8515625
,68.0527064,2.75390625
,68.0823469,2.6708984375
,68.090379,2.5830078125
,68.1105628,2.490234375
,68.1460376,2.3876953125
,68.1506048,2.2802734375
,68.1865537,2.1630859375
,68.1918896,2.0556640625
,68.2079237,1.9384765625
,68.2436174,1.8408203125
,68.247756,1.73828125
,68.2820306,1.6357421875
,68.3024375,1.54296875
,68.3096744,1.455078125
,68.3498681,1.3671875
,68.3504566,1.2939453125
,68.3971782,1.220703125
,68.3977697,1.15234375
,68.4270452,1.0986328125
,68.4306078,1.044921875
,68.4511257,0.99609375
,68.4906436,0.947265625
,68.4912088,0.9033203125
,68.5270628,0.8544921875
,68.5314996,0.80078125
,68.549164,0.7568359375
,68.5851209,0.7177734375
,68.5899651,0.693359375
,68.6280604,0.673828125
,68.6285552,0.7080078125
,68.6760778,0.8642578125
,68.6765493,1.1279296875
,68.7067636,1.4111328125
,68.711476,1.7041015625
,68.7480235,1.9580078125
,68.7516243,2.1923828125
,68.770882,2.3779296875
,68.8053016,2.548828125
,68.8103124,2.67578125
,68.8446923,2.783203125
,68.8658081,2.8369140625
,68.8712651,2.8369140625
,68.9241228,2.783203125
,68.9250701,2.7099609375
,68.9294497,2.6416015625
,68.9697727,2.568359375
,68.970409,2.490234375
,69.0171398,2.412109375
,69.0175095,2.32421875
,69.0303092,2.2265625
,69.0664892,2.119140625
,69.0862305,2.0263671875
,69.0937361,1.923828125
,69.1098387,1.8212890625
,69.146727,1.7333984375
,69.1513542,1.650390625
,69.1906623,1.5673828125
,69.1912528,1.4892578125
,69.228674,1.416015625
,69.2321716,1.34765625
,69.2522046,1.2841796875
,69.2700259,1.220703125
,69.3048079,1.171875
,69.3096969,1.123046875
,69.3451622,1.0693359375
,69.3508194,1.0205078125
,69.3858316,0.9765625
,69.3909519,0.9326171875
,69.4259464,0.8935546875
,69.4466454,0.8544921875
,69.4524023,0.8349609375
,69.4874977,0.87890625
,69.5173207,1.025390625
,69.5176988,1.2890625
,69.5300076,1.552734375
,69.5673537,1.8310546875
,69.5724593,2.0654296875
,69.6134601,2.2900390625
,69.6140614,2.4560546875
,69.6323681,2.6220703125
,69.6665949,2.75390625
,69.690358,2.841796875
,69.6906809,2.8955078125
,69.7268826,2.8857421875
,69.7312657,2.8271484375
,69.7685408,2.7490234375
,69.7706752,2.6611328125
,69.8038505,2.578125
,69.8241063,2.48046875
,69.8304806,2.392578125
,69.851744,2.2900390625
,69.8696257,2.1875
,69.9059264,2.0947265625
,69.9265665,1.9921875
,69.9331614,1.8896484375
,69.9680871,1.7919921875
,69.9737842,1.6943359375
,69.9939855,1.6015625
,70.0096985,1.513671875
,70.0472314,1.4404296875
,70.0679238,1.3623046875
,70.0732683,1.2939453125
,70.0921436,1.220703125
,70.1130571,1.162109375
,70.1499996,1.103515625
,70.153081,1.0546875
,70.1892728,1.005859375
,70.1950518,0.95703125
,70.2103756,0.908203125
,70.2467429,0.8740234375
,70.2660173,0.830078125
,70.2714405,0.7958984375
,70.3063121,0.7568359375
,70.3276539,0.7373046875
,70.3334429,0.771484375
,70.355232,0.9228515625
,70.4034065,1.1669921875
,70.404016,1.4404296875
,70.4122012,1.73828125
,70.4488458,1.9921875
,70.4528919,2.2314453125
,70.493681,2.421875
,70.4940582,2.6025390625
,70.5268865,2.7490234375
,70.5481227,2.8759765625
,70.5485287,2.94921875
,70.589541,2.978515625
,70.618766,2.9541015625
,70.6191635,2.880859375
,70.6317894,2.7978515625
,70.6707524,2.7099609375
,70.6751802,2.626953125
,70.6944954,2.529296875
,70.7294677,2.4267578125
,70.7298346,2.3193359375
,70.7768077,2.20703125
,70.7773983,2.1044921875
,70.7973962,1.9970703125
,70.8140148,1.8896484375
,70.8475128,1.787109375
,70.8685013,1.6943359375
,70.8740204,1.6064453125
,70.895566,1.5185546875
,70.9303746,1.4453125
,70.9504606,1.3720703125
,70.9525411,1.298828125
,70.9888769,1.240234375
,70.9929065,1.181640625
,71.0289303,1.123046875
,71.0337544,1.0693359375
,71.0701324,1.015625
,71.0910317,0.9619140625
,71.0959244,0.908203125
,71.1128951,0.859375
,71.1488957,0.8154296875
,71.1794225,0.7763671875
,71.1800341,0.7568359375
,71.1924705,0.7763671875
,71.2282553,0.9033203125
,71.2581196,1.11328125
,71.2586864,1.34765625
,71.2738982,1.5966796875
,71.3081218,1.81640625
,71.312652,2.0263671875
,71.348005,2.197265625
,71.3527267,2.3583984375
,71.3879367,2.48046875
,71.4085606,2.5927734375
,71.4128157,2.6611328125
,71.4536711,2.6904296875
,71.4540848,2.65625
,71.4713711,2.6025390625
,71.5052418,2.5244140625
,71.5262492,2.4560546875
,71.5346066,2.3779296875
,71.5703822,2.294921875
,71.5731036,2.20703125
,71.6061885,2.119140625
,71.6279139,2.0263671875
,71.6358483,1.9287109375
,71.6734076,1.8310546875
,71.6741315,1.7333984375
,71.7117121,1.650390625
,71.7122685,1.572265625
,71.7487827,1.484375
,71.7543092,1.4111328125
,71.7907805,1.3330078125
,71.7959832,1.26953125
,71.8304883,1.2060546875
,71.8509201,1.142578125
,71.854312,1.0888671875
,71.8894677,1.0400390625
,71.8942942,0.986328125
,71.9320651,0.9375
,71.9371121,0.8837890625
,71.9750606,0.83984375
,71.9754301,0.7958984375
,72.0209513,0.7568359375
,72.0213146,0.7177734375
,72.0419666,0.7080078125
,72.0550242,0.7373046875
,72.0989913,0.859375
,72.0993514,1.0400390625
,72.1156853,1.2646484375
,72.1506548,1.474609375
,72.1575764,1.6845703125
,72.1739087,1.85546875
,72.2234415,2.03125
,72.2239185,2.1728515625
,72.2350577,2.2802734375
,72.2697577,2.373046875
,72.2760836,2.4267578125
,72.3110386,2.4267578125
,72.3162085,2.3876953125
,72.3640785,2.333984375
,72.3645886,2.2802734375
,72.3787569,2.2265625
,72.3954331,2.1728515625
,72.4316326,2.119140625
,72.4362892,2.0556640625
,72.4728873,1.9873046875
,72.4732693,1.9140625
,72.5088612,1.8310546875
,72.5300426,1.7529296875
,72.5372176,1.6748046875
,72.5582429,1.5966796875
,72.5750478,1.5185546875
,72.6098482,1.455078125
,72.6142767,1.3916015625
,72.6482683,1.328125
,72.6691532,1.26953125
,72.6777775,1.220703125
,72.6980752,1.1669921875
,72.7343882,1.1181640625
,72.7351039,1.0693359375
,72.7552658,1.0302734375
,72.7898129,0.9912109375
,72.7953035,0.9423828125
,72.8316366,0.9033203125
,72.8357511,0.8642578125
,72.8710105,0.830078125
,72.8920732,0.8154296875
,72.8971999,0.87890625
,72.9125729,1.0009765625
,72.9472883,1.1962890625
,72.9674148,1.3916015625
,72.9753486,1.5966796875
,73.0104179,1.767578125
,73.0327275,1.93359375
,73.0372023,2.0703125
,73.0726787,2.1923828125
,73.0772662,2.2900390625
,73.1235806,2.3681640625
,73.1239477,2.3876953125
,73.1340614,2.3828125
,73.1723122,2.34375
,73.1750564,2.294921875
,73.210041,2.2509765625
,73.2323315,2.2021484375
,73.2392867,2.1533203125
,73.2581182,2.08984375
,73.3078136,2.0263671875
,73.3083899,1.9482421875
,73.3143029,1.8798828125
,73.3493948,1.796875
,73.3703779,1.7236328125
,73.3771884,1.6455078125
,73.3970765,1.5673828125
,73.4313706,1.4990234375
,73.4519482,1.42578125
,73.4551061,1.3525390625
,73.4949249,1.3037109375
,73.4955715,1.25
,73.5314266,1.1865234375
,73.5521994,1.1328125
,73.5576088,1.0791015625
,73.5946685,1.0302734375
,73.595358,0.9814453125
,73.634944,0.9375
,73.6652815,0.8935546875
,73.6658911,0.8544921875
,73.6753269,0.8203125
,73.7120956,0.7861328125
,73.7436236,0.751953125
,73.7441715,0.7421875
,73.7569333,0.78125
,73.7967165,0.9033203125
,73.7972064,1.103515625
,73.8359805,1.3037109375
,73.8389392,1.533203125
,73.856663,1.7333984375
,73.8927241,1.9384765625
,73.8962446,2.1142578125
,73.9327971,2.275390625
,73.9611962,2.412109375
,73.9619816,2.5390625
,73.9784485,2.6318359375
,74.0151209,2.685546875
,74.0156249,2.6904296875
,74.0535485,2.6611328125
,74.0563811,2.6123046875
,74.092113,2.5537109375
,74.0959558,2.4853515625
,74.1304912,2.412109375
,74.1519343,2.32421875
,74.1596747,2.236328125
,74.1971491,2.1337890625
,74.1978955,2.041015625
,74.2168269,1.9482421875
,74.2513281,1.85546875
,74.2717245,1.7626953125
,74.2770961,1.6796875
,74.2985068,1.5869140625
,74.3348374,1.5087890625
,74.3382469,1.42578125
,74.3559481,1.34765625
,74.392557,1.279296875
,74.397198,1.2109375
,74.4174875,1.1474609375
,74.4520566,1.0888671875
,74.4725252,1.0302734375
,74.477828,0.9765625
,74.5212426,0.9228515625
,74.5217449,0.8740234375
,74.5390321,0.830078125
,74.5744657,0.7861328125
,74.5949247,0.7470703125
,74.5965501,0.7177734375
,74.6350599,0.6884765625
,74.6355275,0.68359375
,74.677328,0.732421875
,74.6982867,0.8837890625
,74.6986596,1.07421875
,74.7392972,1.3037109375
,74.7396713,1.5087890625
,74.7559935,1.7333984375
,74.7923284,1.93359375
,74.7972642,2.1044921875
,74.8316854,2.265625
,74.85408,2.40234375
,74.8609409,2.51953125
,74.8982223,2.6025390625
,74.8988167,2.6416015625
,74.9173854,2.6318359375
,74.9539124,2.5927734375
,74.9591092,2.5390625
,74.9982293,2.4755859375
,74.9989129,2.4072265625
,75.0192012,2.3388671875
,75.0550767,2.255859375
,75.0603341,2.16796875
,75.0966025,2.0849609375
,75.0970753,1.9970703125
,75.1315251,1.904296875
,75.136538,1.8115234375
,75.1726937,1.71875
,75.1927987,1.630859375
,75.2005783,1.5380859375
,75.2454903,1.4501953125
,75.2461118,1.3671875
,75.2619735,1.2890625
,75.30641,1.2158203125
,75.3067806,1.142578125
,75.3173335,1.083984375
,75.3401781,1.0205078125
,75.3859572,0.9619140625
,75.3864178,0.908203125
,75.4004679,0.859375
,75.434337,0.8056640625
,75.4411012,0.76171875
,75.4758774,0.712890625
,75.4763338,0.6689453125
,75.5105791,0.6396484375
,75.5313602,0.6103515625
,75.5409926,0.595703125
,75.5890383,0.625
,75.589418,0.7421875
,75.5997477,0.9326171875
,75.6348105,1.1572265625
,75.6545897,1.376953125
,75.6577225,1.611328125
,75.6801091,1.8115234375
,75.6993863,2.001953125
,75.7455828,2.177734375
,75.7460852,2.314453125
,75.7599812,2.4365234375
,75.7954135,2.529296875
,75.8152699,2.5830078125
,75.8182818,2.5830078125
,75.8517324,2.5537109375
,75.8724578,2.5048828125
,75.8789517,2.451171875
,75.9305677,2.3876953125
,75.9311915,2.32421875
,75.9413892,2.24609375
,75.9763247,2.158203125
,75.9813316,2.0751953125
,76.0246091,1.9921875
,76.0252056,1.8994140625
,76.0549461,1.81640625
,76.0591845,1.7236328125
,76.093892,1.6357421875
,76.1145025,1.552734375
,76.1221344,1.4697265625
,76.1625347,1.3916015625
,76.1629634,1.318359375
,76.2012896,1.2451171875
,76.2018918,1.181640625
,76.2183711,1.1181640625
,76.2533373,1.064453125
,76.2753287,1.005859375
,76.2824748,0.95703125
,76.317328,0.9130859375
,76.3219874,0.869140625
,76.3585766,0.8203125
,76.3609483,0.7861328125
,76.3965387,0.7421875
,76.3968636,0.703125
,76.4303311,0.6787109375
,76.4519048,0.6884765625
,76.4590354,0.78125
,76.4951425,0.966796875
,76.5171748,1.1767578125
,76.5247589,1.416015625
,76.5385345,1.6259765625
,76.5781745,1.845703125
,76.5786674,2.021484375
,76.62705,2.1923828125
,76.6275986,2.3291015625
,76.6402847,2.4560546875
,76.675194,2.529296875
,76.7034611,2.578125
,76.7039296,2.5634765625
,76.7502644,2.51953125
,76.7510413,2.470703125
,76.7603356,2.4169921875
,76.7970395,2.36328125
,76.7992884,2.2998046875
,76.8362485,2.2265625
,76.8608344,2.1484375
,76.8614639,2.0654296875
,76.8982164,1.982421875
,76.9225952,1.8896484375
,76.9231675,1.8017578125
,76.9407408,1.7138671875
,76.9760382,1.6357421875
,76.9812266,1.552734375
,77.0166231,1.484375
,77.021961,1.4111328125
,77.058112,1.3427734375
,77.0642358,1.2744140625
,77.0832496,1.2158203125
,77.1012614,1.1572265625
,77.1199014,1.103515625
,77.1574932,1.0498046875
,77.1621856,1.0009765625
,77.2007961,0.9521484375
,77.2012836,0.908203125
,77.2389464,0.8642578125
,77.2577624,0.830078125
,77.2604688,0.791015625
,77.2814925,0.78125
,77.318328,0.8251953125
,77.318829,0.9716796875
,77.3550954,1.1865234375
,77.3770746,1.4111328125
,77.3839575,1.6552734375
,77.4218431,1.865234375
,77.4223478,2.0703125
,77.4583953,2.24609375
,77.4631687,2.4072265625
,77.4812782,2.5341796875
,77.5013029,2.6513671875
,77.5225605,2.724609375
,77.5583376,2.744140625
,77.5610861,2.7197265625
,77.6040261,2.67578125
,77.6043995,2.6171875
,77.636563,2.548828125
,77.6459349,2.48046875
,77.6620685,2.40234375
,77.6983101,2.3193359375
,77.7009563,2.2265625
,77.7365633,2.12890625
,77.759565,2.041015625
,77.7647952,1.943359375
,77.785371,1.8408203125
,77.8206928,1.7431640625
,77.8214176,1.6552734375
,77.8683029,1.572265625
,77.8687703,1.4892578125
,77.8814826,1.416015625
,77.9165142,1.34765625
,77.9374093,1.2744140625
,77.9431183,1.2109375
,77.9787407,1.1474609375
,77.9839429,1.0888671875
,78.0051434,1.0302734375
,78.0264029,0.9619140625
,78.0424661,0.8984375
,78.0792968,0.8642578125
,78.0851555,0.830078125
,78.103754,0.7958984375
,78.137897,0.7666015625
,78.15909,0.7373046875
,78.1653542,0.72265625
,78.1852009,0.7568359375
,78.2007581,0.888671875
,78.2383116,1.1181640625
,78.2414151,1.357421875
,78.2917813,1.6259765625
,78.2921927,1.884765625
,78.3227639,2.099609375
,78.3231569,2.3095703125
,78.3574708,2.4853515625
,78.3783544,2.65625
,78.3833831,2.783203125
,78.4007383,2.8955078125
,78.4337498,2.9345703125
,78.4555775,2.9248046875
,78.4650437,2.87109375
,78.4866425,2.7978515625
,78.5049515,2.71484375
,78.5546298,2.63671875
,78.5551047,2.5439453125
,78.5640097,2.451171875
,78.5825225,2.353515625
,78.6169603,2.2509765625
,78.6384148,2.138671875
,78.6437742,2.03125
,78.6796431,1.923828125
,78.711431,1.8212890625
,78.7118719,1.71875
,78.7209562,1.6259765625
,78.7584118,1.5380859375
,78.7629331,1.435546875
,78.803101,1.3671875
,78.8036955,1.298828125
,78.8506345,1.23046875
,78.8511248,1.1669921875
,78.8664588,1.1083984375
,78.9137302,1.0546875
,78.914194,1.0009765625
,78.9280094,0.95703125
,78.9453326,0.9033203125
,78.9643305,0.859375
,78.9999372,0.8203125
,79.0041821,0.7861328125
,79.0518494,0.7470703125
,79.0522243,0.7177734375
,79.0654758,0.7275390625
,79.1008031,0.8349609375
,79.1205944,1.015625
,79.1224964,1.26953125
,79.1657983,1.5185546875
,79.166167,1.7724609375
,79.1880619,1.9921875
,79.2068339,2.197265625
,79.2253029,2.36328125
,79.2645926,2.51953125
,79.2649429,2.65625
,79.2832312,2.7490234375
,79.3215852,2.802734375
,79.3241631,2.7978515625
,79.3578008,2.7392578125
,79.380413,2.666015625
,79.3858268,2.5830078125
,79.4052336,2.5
,79.4453377,2.4072265625
,79.4456825,2.3095703125
,79.4789521,2.2119140625
,79.4847627,2.0947265625
,79.5186899,2.001953125
,79.5232691,1.8994140625
,79.5590311,1.796875
,79.5875619,1.7041015625
,79.588173,1.6064453125
,79.622199,1.513671875
,79.6273058,1.4306640625
,79.6654755,1.3623046875
,79.6658415,1.2841796875
,79.6943486,1.2255859375
,79.7049496,1.162109375
,79.7405115,1.0986328125
,79.7475465,1.044921875
,79.7660651,0.9912109375
,79.8040139,0.9375
,79.8088511,0.888671875
,79.8250812,0.8349609375
,79.844324,0.791015625
,79.8834622,0.7470703125
,79.8838292,0.712890625
,79.9290452,0.6787109375
,79.9294098,0.6591796875
,79.9506654,0.6884765625
,79.9681654,0.8056640625
,80.0075989,1.015625
,80.0081551,1.2548828125
,80.0243884,1.5185546875
,80.0689431,1.7529296875
,80.0694803,1.97265625
,80.0857789,2.1630859375
,80.1217314,2.3291015625
,80.1265417,2.4658203125
,80.1611711,2.587890625
,80.1946705,2.666015625
,80.1952776,2.6953125
,80.2093373,2.6513671875
,80.2252243,2.5732421875
,80.2721227,2.51953125
,80.2729399,2.451171875
,80.2937129,2.3828125
,80.3069281,2.2998046875
,80.35078,2.20703125
,80.351143,2.1142578125
,80.3714419,2.021484375
,80.3862451,1.923828125
,80.4296515,1.8408203125
,80.4301072,1.7431640625
,80.447461,1.66015625
,80.4823275,1.572265625
,80.485298,1.4892578125
,80.5199011,1.4111328125
,80.541516,1.3427734375
,80.5488886,1.2744140625
,80.5656272,1.2109375
,80.5863328,1.15234375
,80.6296346,1.103515625
,80.6302308,1.0546875
,80.6639642,1.005859375
,80.6663333,0.9619140625
,80.7038004,0.91796875
,80.7085098,0.8740234375
,80.7245214,0.8349609375
,80.768576,0.80078125
,80.7691817,0.7763671875
,80.785599,0.771484375
,80.8230351,0.8203125
,80.8271435,0.9716796875
,80.8622885,1.2109375
,80.8819048,1.4501953125
,80.888804,1.708984375
,80.9095249,1.93359375
,80.9279681,2.1337890625
,80.9634041,2.2998046875
,80.9639669,2.48046875
,81.0000928,2.6220703125
,81.0210426,2.744140625
,81.0287338,2.8076171875
,81.0492272,2.8173828125
,81.0943006,2.7685546875
,81.0949101,2.7001953125
,81.1044073,2.6220703125
,81.1392094,2.5439453125
,81.1600176,2.4560546875
,81.1673845,2.36328125
,81.2184791,2.265625
,81.2190962,2.158203125
,81.2273148,2.0556640625
,81.2629688,1.953125
,81.2840905,1.845703125
,81.2846356,1.748046875
,81.3246756,1.6552734375
,81.3250407,1.5673828125
,81.3479838,1.484375
,81.3891878,1.4111328125
,81.3897718,1.328125
,81.4250349,1.259765625
,81.4301088,1.19140625
,81.4458555,1.1279296875
,81.479884,1.07421875
,81.5002362,1.025390625
,81.5084566,0.9765625
,81.5453532,0.927734375
,81.5459636,0.8837890625
,81.584055,0.8447265625
,81.5889684,0.80078125
,81.6102734,0.76171875
,81.6284447,0.7275390625
,81.6508365,0.6787109375
,81.6680891,0.654296875
,81.6866848,0.7373046875
,81.7209013,0.9033203125
,81.7423675,1.15234375
,81.749082,1.42578125
,81.7699056,1.708984375
,81.8042249,1.9677734375
,81.8245017,2.216796875
,81.829247,2.431640625
,81.8460645,2.6123046875
,81.8813083,2.7880859375
,81.9016918,2.9296875
,81.9068729,3.0224609375
,81.9490822,3.046875
,81.9496731,3.0126953125
,81.9692383,2.9345703125
,82.005336,2.841796875
,82.0057124,2.744140625
,82.0420597,2.63671875
,82.0734705,2.5390625
,82.0740636,2.4267578125
,82.0877599,2.314453125
,82.1248486,2.1875
,82.1522633,2.080078125
,82.1529131,1.962890625
,82.170406,1.8505859375
,82.1877041,1.7431640625
,82.2224638,1.650390625
,82.2277392,1.5576171875
,82.2622474,1.4599609375
,82.281959,1.376953125
,82.288112,1.2939453125
,82.3249798,1.2158203125
,82.353876,1.142578125
,82.3544888,1.0791015625
,82.3723667,1.0009765625
,82.3859456,0.9326171875
,82.4222659,0.9033203125
,82.427419,0.8642578125
,82.4776697,0.8251953125
,82.4782746,0.791015625
,82.4888285,0.7568359375
,82.5223664,0.72265625
,82.5431785,0.68359375
,82.5526052,0.6591796875
,82.5683752,0.654296875
,82.6029275,0.7275390625
,82.6229242,0.8935546875
,82.6287772,1.1474609375
,82.6632467,1.4208984375
,82.68395,1.708984375
,82.6917251,1.962890625
,82.7287549,2.216796875
,82.7293494,2.421875
,82.7472527,2.6171875
,82.7688787,2.783203125
,82.8203083,2.91015625
,82.8206739,2.98828125
,82.8305178,2.9931640625
,82.8666241,2.939453125
,82.8717624,2.8515625
,82.8910156,2.744140625
,82.9071571,2.646484375
,82.9461639,2.5390625
,82.976497,2.431640625
,82.9769653,2.314453125
,82.990074,2.1923828125
,83.0251116,2.0703125
,83.0299412,1.9482421875
,83.067971,1.8359375
,83.0710109,1.728515625
,83.0927186,1.6162109375
,83.1302928,1.5087890625
,83.131006,1.42578125
,83.1510401,1.357421875
,83.1853035,1.2841796875
,83.2059435,1.2109375
,83.2101497,1.1474609375
,83.2458075,1.083984375
,83.269479,1.025390625
,83.2718481,0.9716796875
,83.2884678,0.91796875
,83.3220811,0.8740234375
,83.3431846,0.8251953125
,83.349522,0.7763671875
,83.3850693,0.72265625
,83.4106919,0.6640625
,83.4112666,0.6201171875
,83.4450378,0.5810546875
,83.4665876,0.5517578125
,83.4686597,0.5419921875
,83.5043594,0.625
,83.5328731,0.7958984375
,83.5332618,1.0595703125
,83.5786765,1.337890625
,83.579227,1.630859375
,83.5906982,1.8798828125
,83.6371251,2.119140625
,83.6374947,2.3095703125
,83.649028,2.4853515625
,83.6857239,2.6318359375
,83.6896244,2.744140625
,83.7101195,2.802734375
,83.7469942,2.8076171875
,83.7520799,2.7490234375
,83.7728445,2.666015625
,83.8097339,2.5830078125
,83.8153866,2.4951171875
,83.833031,2.3779296875
,83.8529034,2.2802734375
,83.8705296,2.1826171875
,83.9057107,2.08984375
,83.9105945,1.9775390625
,83.9610054,1.8798828125
,83.9615128,1.767578125
,83.9718146,1.669921875
,84.0232125,1.572265625
,84.0235986,1.4794921875
,84.0299099,1.396484375
,84.0655354,1.318359375
,84.0700765,1.2451171875
,84.1066748,1.1669921875
,84.127157,1.0986328125
,84.1337863,1.0498046875
,84.1707685,0.99609375
,84.1711568,0.947265625
,84.2071701,0.9033203125
,84.2123076,0.869140625
,84.2582171,0.8251953125
,84.2585832,0.791015625
,84.2706872,0.751953125
,84.3057149,0.72265625
,84.3259684,0.693359375
,84.3331402,0.68359375
,84.3493104,0.72265625
,84.3843211,0.888671875
,84.4047569,1.1328125
,84.4106204,1.396484375
,84.4452818,1.6796875
,84.4658301,1.923828125
,84.4725782,2.1533203125
,84.5068957,2.34375
,84.5130674,2.5146484375
,84.5354321,2.65625
,84.5740023,2.7490234375
,84.5743168,2.802734375
,84.5908052,2.7978515625
,84.637688,2.744140625
,84.6382829,2.666015625
,84.667012,2.587890625
,84.6708636,2.4951171875
,84.7065899,2.40234375
,84.7283082,2.3046875
,84.7345509,2.1923828125
,84.7511076,2.08984375
,84.7916963,1.9970703125
,84.7922326,1.8896484375
,84.82191,1.7919921875
,84.8323791,1.689453125
,84.8672781,1.591796875
,84.8890601,1.494140625
,84.8945845,1.40625
,84.9117232,1.3232421875
,84.9475983,1.259765625
,84.9503912,1.19140625
,84.9854009,1.1328125
,85.0064919,1.064453125
,85.0124193,1.015625
,85.0488347,0.9619140625
,85.0536159,0.9130859375
,85.0993949,0.8642578125
,85.0997822,0.8203125
,85.1101223,0.78125
,85.1437709,0.7421875
,85.1648449,0.7080078125
,85.1729415,0.6787109375
,85.2092107,0.6494140625
,85.2139845,0.64453125
,85.2461671,0.693359375
,85.2677724,0.8447265625
,85.274443,1.0888671875
,85.2919727,1.376953125
,85.3275603,1.6943359375
,85.3323272,1.9921875
,85.3677754,2.236328125
,85.3926987,2.4658203125
,85.3933012,2.65625
,85.4385548,2.83203125
,85.4391706,2.958984375
,85.4553674,3.056640625
,85.4718421,3.076171875
,85.5058615,3.0419921875
,85.5267774,2.958984375
,85.5318709,2.861328125
,85.5685174,2.75390625
,85.5728443,2.646484375
,85.608064,2.5341796875
,85.629496,2.4072265625
,85.6321836,2.28515625
,85.6729933,2.158203125
,85.6739227,2.041015625
,85.718926,1.93359375
,85.7199734,1.8212890625
,85.7319573,1.708984375
,85.765571,1.6015625
,85.7873383,1.5087890625
,85.794637,1.416015625
,85.8131188,1.3330078125
,85.8332251,1.259765625
,85.8683528,1.1865234375
,85.8736559,1.1181640625
,85.9094863,1.0498046875
,85.9150767,0.99609375
,85.9537762,0.9423828125
,85.9543745,0.888671875
,85.9932685,0.849609375
,85.9937395,0.80078125
,86.0305636,0.76171875
,86.0309331,0.72265625
,86.0667941,0.693359375
,86.0876654,0.6640625
,86.0947896,0.6396484375
,86.1295542,0.625
,86.1350404,0.68359375
,86.1715121,0.83984375
,86.2015758,1.1083984375
,86.2019036,1.3916015625
,86.214971,1.708984375
,86.2344704,1.9775390625
,86.2789624,2.236328125
,86.2794321,2.44140625
,86.2941097,2.646484375
,86.3295037,2.8173828125
,86.3500859,2.939453125
,86.3560005,3.0224609375
,86.372896,3.0322265625
,86.3928963,2.9931640625
,86.4285072,2.9052734375
,86.4486588,2.802734375
,86.4540578,2.6953125
,86.4756628,2.5830078125
,86.510077,2.4658203125
,86.5317128,2.3388671875
,86.5323719,2.216796875
,86.5743099,2.0947265625
,86.5747704,1.9775390625
,86.6193083,1.8603515625
,86.6198505,1.73828125
,86.6350635,1.62109375
,86.672163,1.513671875
,86.6768264,1.4111328125
,86.7132699,1.3232421875
,86.7141968,1.2353515625
,86.7499398,1.15234375
,86.7707409,1.0791015625
,86.7712752,1.015625
,86.8226844,0.947265625
,86.8232194,0.8984375
,86.854285,0.8447265625
,86.859195,0.791015625
,86.8756682,0.7470703125
,86.9114539,0.7080078125
,86.9118138,0.6591796875
,86.9492954,0.6298828125
,86.9701169,0.595703125
,86.9755953,0.556640625
,87.0127945,0.52734375
,87.0172558,0.5029296875
,87.0575086,0.5078125
,87.057887,0.595703125
,87.0948761,0.810546875
,87.0952579,1.083984375
,87.1145411,1.4111328125
,87.1500023,1.708984375
,87.1554975,1.9921875
,87.1962133,2.2216796875
,87.1965781,2.4267578125
,87.2329454,2.5927734375
,87.2372735,2.744140625
,87.2728191,2.861328125
,87.2734128,2.8955078125
,87.2933803,2.890625
,87.3377677,2.8271484375
,87.3381385,2.744140625
,87.3555511,2.6513671875
,87.3887195,2.5537109375
,87.4093782,2.4560546875
,87.416665,2.34375
,87.4518983,2.2314453125
,87.4582881,2.1142578125
,87.4741317,2.0068359375
,87.5086398,1.8994140625
,87.5285613,1.796875
,87.5354142,1.689453125
,87.57048,1.5869140625
,87.5904053,1.4892578125
,87.5964845,1.4013671875
,87.6320012,1.318359375
,87.6535165,1.240234375
,87.6539614,1.1669921875
,87.6891253,1.1083984375
,87.7116427,1.0595703125
,87.7148772,1.0107421875
,87.7505589,0.9619140625
,87.7710645,0.91796875
,87.7763672,0.8740234375
,87.8107341,0.8349609375
,87.8325951,0.7958984375
,87.8329663,0.7763671875
,87.8796316,0.7470703125
,87.8800055,0.732421875
,87.8994114,0.72265625
,87.9173486,0.7568359375
,87.9370217,0.8935546875
,87.9878464,1.11328125
,87.9883422,1.40625
,87.9954433,1.6796875
,88.0148919,1.953125
,88.0650936,2.1728515625
,88.0655463,2.3681640625
,88.0968872,2.5244140625
,88.0973084,2.666015625
,88.1327157,2.763671875
,88.1376693,2.8173828125
,88.1714259,2.802734375
,88.1930251,2.7392578125
,88.1933915,2.65625
,88.2298337,2.578125
,88.2537005,2.4951171875
,88.2592655,2.4072265625
,88.2775056,2.314453125
,88.2973665,2.2119140625
,88.3358171,2.109375
,88.33624,2.01171875
,88.3814834,1.904296875
,88.3820455,1.806640625
,88.4110079,1.7041015625
,88.415706,1.6064453125
,88.4513763,1.513671875
,88.4830847,1.42578125
,88.4834341,1.3525390625
,88.498584,1.2744140625
,88.5322484,1.2060546875
,88.5615293,1.142578125
,88.5619716,1.0791015625
,88.5778607,1.025390625
,88.6140427,0.9765625
,88.615989,0.9375
,88.6491547,0.8935546875
,88.6869553,0.849609375
,88.6875653,0.8056640625
,88.6983498,0.76171875
,88.7159768,0.7177734375
,88.7510485,0.6982421875
,88.755785,0.6787109375
,88.7784495,0.693359375
,88.8135868,0.7861328125
,88.81799,1.005859375
,88.8524816,1.2841796875
,88.8733823,1.611328125
,88.8801459,1.9189453125
,88.9151116,2.1826171875
,88.9207715,2.4267578125
,88.9361554,2.626953125
,88.9570354,2.8173828125
,88.993346,2.958984375
,88.9981921,3.06640625
,89.0181239,3.115234375
,89.0530939,3.095703125
,89.0734177,3.0322265625
,89.0811001,2.9345703125
,89.0981025,2.8369140625
,89.1336895,2.7392578125
,89.1385704,2.63671875
,89.1787181,2.51953125
,89.1791898,2.4072265625
,89.19979,2.2802734375
,89.2348587,2.1484375
,89.2386923,2.03125
,89.2858691,1.9189453125
,89.2864744,1.806640625
,89.3059344,1.7041015625
,89.3176072,1.6064453125
,89.3548932,1.513671875
,89.3577515,1.435546875
,89.3922556,1.3623046875
,89.4134347,1.298828125
,89.4202304,1.240234375
,89.4368452,1.171875
,89.4723895,1.1083984375
,89.4783056,1.0546875
,89.4991516,1.005859375
,89.5195008,0.95703125
,89.5668813,0.9130859375
,89.5672529,0.8642578125
,89.5788767,0.8203125
,89.6220228,0.78125
,89.6225724,0.7421875
,89.6574585,0.712890625
,89.6584801,0.7177734375
,89.6901013,0.8203125
,89.7103294,1.015625
,89.7206983,1.30859375
,89.7636286,1.6064453125
,89.7643783,1.9189453125
,89.7820173,2.177734375
,89.8008217,2.421875
,89.838131,2.63671875
,89.8390911,2.8076171875
,89.8847118,2.9638671875
,89.8851389,3.076171875
,89.8996994,3.125
,89.9355738,3.10546875
,89.9392835,3.02734375
,89.9784357,2.9150390625
,89.998554,2.802734375
,89.9990423,2.6904296875
,90.0324774,2.5830078125
,90.0388685,2.4658203125
,90.0593792,2.34375
,90.1013055,2.2216796875
,90.1017294,2.099609375
,90.120228,1.9775390625
,90.1578826,1.8603515625
,90.1601295,1.7529296875
,90.17902,1.650390625
,90.1985652,1.5576171875
,90.2189333,1.4697265625
,90.2559356,1.3818359375
,90.2577515,1.3037109375
,90.2918442,1.2255859375
,90.3115638,1.1572265625
,90.3233409,1.0888671875
,90.3416842,1.025390625
,90.3817122,0.9619140625
,90.3821302,0.908203125
,90.3995025,0.859375
,90.4339123,0.810546875
,90.4546472,0.7568359375
,90.4595528,0.712890625
,90.4988566,0.6591796875
,90.5012568,0.625
,90.5223215,0.5908203125
,90.5590784,0.5859375
,90.5595194,0.64453125
,90.5796618,0.8349609375
,90.6222389,1.09375
,90.6226706,1.40625
,90.6398031,1.6943359375
,90.6759382,1.9775390625
,90.6815876,2.20703125
,90.7181567,2.4169921875
,90.7186964,2.578125
,90.7553366,2.7392578125
,90.7585053,2.8564453125
,90.807352,2.9296875
,90.8076606,2.919921875
,90.8384876,2.8515625
,90.8389641,2.744140625
,90.8750579,2.6416015625
,90.8958315,2.5390625
,90.8962598,2.4365234375
,90.9452223,2.333984375
,90.945591,2.2265625
,90.9658216,2.1142578125
,90.9804994,2.0068359375
,91.0167163,1.89453125
,91.0220392,1.7822265625
,91.0707913,1.6748046875
,91.0714858,1.572265625
,91.0836036,1.474609375
,91.1182241,1.38671875
,91.1187992,1.3037109375
,91.1407374,1.23046875
,91.1770506,1.1669921875
,91.1801812,1.103515625
,91.2154685,1.044921875
,91.2373951,0.99609375
,91.2438496,0.9423828125
,91.2875953,0.888671875
,91.2881988,0.83984375
,91.3012601,0.7958984375
,91.320486,0.751953125
,91.3546497,0.712890625
,91.3748381,0.673828125
,91.3819797,0.64453125
,91.4003988,0.6298828125
,91.4354101,0.703125
,91.4566623,0.888671875
,91.4573945,1.1376953125
,91.4943908,1.4404296875
,91.5014005,1.71875
,91.5379198,1.9873046875
,91.5430948,2.20703125
,91.5620966,2.3974609375
,91.598501,2.548828125
,91.6297181,2.6806640625
,91.6303874,2.7685546875
,91.6408976,2.8125
,91.675602,2.7783203125
,91.6808854,2.7001953125
,91.7222636,2.6123046875
,91.7229091,2.5244140625
,91.7568918,2.4462890625
,91.7633498,2.3583984375
,91.7974854,2.265625
,91.8184748,2.1826171875
,91.8230873,2.060546875
,91.8411472,1.953125
,91.8758787,1.8408203125
,91.8815361,1.73828125
,91.9159525,1.6357421875
,91.9409483,1.5380859375
,91.9413178,1.455078125
,91.9868684,1.376953125
,91.987289,1.3037109375
,92.0076987,1.2353515625
,92.0223245,1.181640625
,92.0407614,1.123046875
,92.0760371,1.0791015625
,92.0829121,1.03515625
,92.1278857,0.986328125
,92.1282783,0.9375
,92.1447005,0.8935546875
,92.1899654,0.8447265625
,92.1904488,0.8056640625
,92.2013118,0.78125
,92.236508,0.7568359375
,92.2415503,0.7861328125
,92.2633904,0.8984375
,92.2977437,1.1279296875
,92.3035674,1.396484375
,92.325093,1.6943359375
,92.3393865,1.9580078125
,92.3728963,2.2119140625
,92.3951588,2.431640625
,92.4032702,2.6025390625
,92.4379102,2.763671875
,92.4433253,2.880859375
,92.4649415,2.958984375
,92.5002508,2.9638671875
,92.5030395,2.9052734375
,92.5491046,2.8173828125
,92.5498154,2.71484375
,92.579694,2.6171875
,92.5820276,2.5244140625
,92.6175651,2.4267578125
,92.6226203,2.3193359375
,92.6590502,2.197265625
,92.6792207,2.08984375
,92.6821409,1.9775390625
,92.7147699,1.875
,92.7356486,1.767578125
,92.7398081,1.66015625
,92.7732654,1.5625
,92.7935404,1.4697265625
,92.8034306,1.396484375
,92.8369418,1.318359375
,92.8572716,1.2451171875
,92.8646071,1.1767578125
,92.9008306,1.1083984375
,92.9012648,1.0498046875
,92.9201029,1.0009765625
,92.9547855,0.9521484375
,92.9754927,0.9130859375
,92.9838112,0.8642578125
,93.017599,0.8203125
,93.0380267,0.7763671875
,93.0478361,0.7373046875
,93.066405,0.6982421875
,93.083088,0.673828125
,93.1189012,0.703125
,93.121593,0.8203125
,93.1565203,1.0546875
,93.1774193,1.337890625
,93.1845282,1.6455078125
,93.2311576,1.923828125
,93.2317528,2.1923828125
,93.2461457,2.4072265625
,93.2939397,2.6025390625
,93.2944958,2.7685546875
,93.3018223,2.919921875
,93.3365491,3.0078125
,93.3703852,3.0517578125
,93.3707905,3.0224609375
,93.3849215,2.9345703125
,93.4206925,2.8173828125
,93.4250339,2.705078125
,93.4597385,2.5830078125
,93.4815783,2.4609375
,93.4821402,2.3388671875
,93.5174962,2.216796875
,93.5368781,2.0947265625
,93.5445991,1.9775390625
,93.5801224,1.85546875
,93.5858625,1.7431640625
,93.6234253,1.6357421875
,93.624031,1.5283203125
,93.6697197,1.435546875
,93.6703008,1.3525390625
,93.6825443,1.26953125
,93.7304783,1.19140625
,93.7308491,1.1181640625
,93.7522559,1.0498046875
,93.7655234,0.986328125
,93.8007808,0.927734375
,93.8019502,0.8740234375
,93.8375416,0.8349609375
,93.8442841,0.7861328125
,93.8797584,0.751953125
,93.8833677,0.7080078125
,93.920303,0.6689453125
,93.926266,0.6298828125
,93.9476492,0.6005859375
,93.9667693,0.576171875
,94.0049791,0.6005859375
,94.0109505,0.712890625
,94.0227616,0.9326171875
,94.0610294,1.23046875
,94.0922802,1.5234375
,94.0927492,1.8212890625
,94.106178,2.0703125
,94.141859,2.2998046875
,94.1459185,2.4755859375
,94.1813393,2.6416015625
,94.202197,2.7685546875
,94.2054363,2.8662109375
,94.2413064,2.890625
,94.2443107,2.8564453125
,94.2818168,2.7685546875
,94.286515,2.6611328125
,94.3204499,2.5537109375
,94.3409413,2.4462890625
,94.3466527,2.333984375
,94.3622177,2.216796875
,94.3978826,2.1142578125
,94.4191083,2.001953125
,94.4245666,1.8896484375
,94.460764,1.7724609375
,94.4652429,1.6650390625
,94.4997653,1.5625
,94.520916,1.46484375
,94.524031,1.3720703125
,94.5615591,1.2890625
,94.5645596,1.2060546875
,94.6062942,1.1328125
,94.606726,1.0595703125
,94.6272608,0.99609375
,94.6638667,0.9326171875
,94.6642419,0.8740234375
,94.7004177,0.8251953125
,94.730873,0.771484375
,94.731239,0.72265625
,94.7451672,0.673828125
,94.7802544,0.6396484375
,94.7844198,0.6005859375
,94.8179058,0.5615234375
,94.839489,0.52734375
,94.8462789,0.5029296875
,94.9007061,0.537109375
,94.9010512,0.6884765625
,94.9188911,0.9228515625
,94.9256995,1.2353515625
,94.9455792,1.5478515625
,94.981381,1.81640625
,94.9859278,2.0654296875
,95.0198694,2.265625
,95.0407707,2.451171875
,95.0476257,2.587890625
,95.0834519,2.705078125
,95.0887354,2.7587890625
,95.1056115,2.7685546875
,95.1508331,2.705078125
,95.1512192,2.6220703125
,95.167523,2.5390625
,95.202896,2.451171875
,95.2051646,2.353515625
,95.2381534,2.2607421875
,95.2592415,2.1533203125
,95.2642915,2.060546875
,95.3010892,1.962890625
,95.3052546,1.8603515625
,95.3401941,1.7578125
,95.3602909,1.66015625
,95.3665741,1.5576171875
,95.4121277,1.4697265625
,95.4130613,1.3818359375
,95.4300697,1.3037109375
,95.4476893,1.2255859375
,95.4809048,1.1572265625
,95.4871891,1.103515625
,95.5046208,1.0546875
,95.5538205,1.005859375
,95.5543991,0.95703125
,95.5828358,0.908203125
,95.5878685,0.8642578125
,95.6220082,0.810546875
,95.6427346,0.7666015625
,95.6432837,0.72265625
,95.6786907,0.6982421875
,95.7002539,0.673828125
,95.7079329,0.7177734375
,95.7554193,0.859375
,95.7558791,1.1083984375
,95.766808,1.38671875
,95.8005003,1.689453125
,95.8206972,1.943359375
,95.825821,2.1875
,95.8605132,2.3779296875
,95.8806427,2.548828125
,95.8862112,2.6806640625
,95.9092025,2.7880859375
,95.9450195,2.841796875
,95.9484376,2.8271484375
,95.9887842,2.7490234375
,95.9891593,2.6513671875
,96.0070464,2.5634765625
,96.0415137,2.48046875
,96.062081,2.3876953125
,96.0676023,2.3046875
,96.1152342,2.2021484375
,96.1158418,2.1044921875
,96.1308801,1.9970703125
,96.1496066,1.8896484375
,96.1922427,1.7822265625
,96.1928981,1.669921875
,96.2062826,1.572265625
,96.2410366,1.484375
,96.2618559,1.396484375
,96.2695162,1.318359375
,96.3034952,1.2451171875
,96.3087009,1.181640625
,96.3445991,1.1083984375
,96.35075,1.0498046875
,96.3681856,0.986328125
,96.3868107,0.9375
,96.4219583,0.8837890625
,96.4425775,0.83984375
,96.4467792,0.791015625
,96.4811632,0.7470703125
,96.5019076,0.703125
,96.5089518,0.6689453125
,96.5264688,0.6298828125
,96.5609201,0.6201171875
,96.5823695,0.64453125
,96.5869751,0.7666015625
,96.6229445,1.005859375
,96.6438743,1.298828125
,96.6487232,1.6162109375
,96.6849903,1.8994140625
,96.6874694,2.1728515625
,96.7214652,2.3974609375
,96.7266019,2.6025390625
,96.7616856,2.7734375
,96.7832265,2.919921875
,96.7860657,3.017578125
,96.8212073,3.056640625
,96.8415356,3.02734375
,96.8501577,2.94921875
,96.8715119,2.841796875
,96.9085614,2.734375
,96.9089421,2.626953125
,96.9266748,2.51953125
,96.9644956,2.412109375
,96.9672234,2.294921875
,97.0148866,2.16796875
,97.0152536,2.05078125
,97.0461614,1.9384765625
,97.0506048,1.8212890625
,97.0711212,1.7138671875
,97.0877091,1.611328125
,97.1227761,1.5185546875
,97.1451611,1.42578125
,97.1498457,1.3427734375
,97.1699014,1.2646484375
,97.2049339,1.19140625
,97.2099535,1.123046875
,97.2467302,1.0498046875
,97.2512118,0.9912109375
,97.267913,0.9375
,97.301605,0.8935546875
,97.3226929,0.8447265625
,97.3276243,0.7958984375
,97.3645504,0.7470703125
,97.3695086,0.703125
,97.3900754,0.6591796875
,97.4111858,0.6201171875
,97.428142,0.6103515625
,97.4676144,0.6982421875
,97.4680473,0.888671875
,97.4899003,1.171875
,97.5303668,1.4892578125
,97.5308486,1.767578125
,97.56737,2.041015625
,97.5719789,2.2607421875
,97.5911091,2.4609375
,97.6388542,2.6171875
,97.6392134,2.7587890625
,97.659597,2.8515625
,97.6698485,2.8955078125
,97.718092,2.87109375
,97.7187576,2.79296875
,97.7299153,2.685546875
,97.7659148,2.5732421875
,97.771312,2.470703125
,97.805874,2.3583984375
,97.826781,2.2412109375
,97.8272555,2.1337890625
,97.8629914,2.0263671875
,97.8845574,1.9140625
,97.8893123,1.8017578125
,97.928355,1.689453125
,97.9287437,1.58203125
,97.9651259,1.474609375
,97.9972106,1.3818359375
,97.9975938,1.2890625
,98.0073804,1.2060546875
,98.0435991,1.1328125
,98.0649282,1.0595703125
,98.0700326,0.9912109375
,98.0904738,0.9326171875
,98.1257248,0.87890625
,98.1308327,0.830078125
,98.1678316,0.7861328125
,98.1687595,0.7373046875
,98.2046328,0.693359375
,98.2090415,0.625
,98.2478746,0.5908203125
,98.2482915,0.556640625
,98.2946443,0.52734375
,98.2950369,0.5029296875
,98.3152577,0.537109375
,98.3314567,0.6640625
,98.3740832,0.9130859375
,98.3750856,1.201171875
,98.3917323,1.5234375
,98.4105592,1.8017578125
,98.4462766,2.0654296875
,98.4508471,2.2705078125
,98.4721995,2.4560546875
,98.5071913,2.6123046875
,98.5279535,2.724609375
,98.5330406,2.7978515625
,98.5494691,2.8076171875
,98.5837271,2.7685546875
,98.6046778,2.6904296875
,98.610541,2.6025390625
,98.6553501,2.5146484375
,98.6557091,2.421875
,98.6718995,2.3291015625
,98.7069135,2.2216796875
,98.7346442,2.1142578125
,98.7351085,2.021484375
,98.7507153,1.923828125
,98.7883107,1.8212890625
,98.7887688,1.7236328125
,98.8239681,1.630859375
,98.8450438,1.54296875
,98.8531652,1.455078125
