fs,t,y
51.446143210821354,0.49710849999999995,1.9970703125
,0.5314931,2.0068359375
,0.5522874999999998,2.0458984375
,0.5579090999999998,2.1142578125
,0.5797363999999998,2.1875
,0.6216705999999999,2.2607421875
,0.6219944000000002,2.314453125
,0.6547869,2.373046875
,0.6754435000000001,2.4169921875
,0.6786352,2.4462890625
,0.716018,2.4755859375
,0.7164771000000001,2.490234375
,0.7622844,2.5048828125
,0.7626680000000001,2.5048828125
,0.7933113,2.5
,0.8001507999999999,2.4853515625
,0.8210652999999999,2.4609375
,0.8371602999999999,2.431640625
,0.8856503,2.412109375
,0.8860972,2.3876953125
,0.9069091,2.36328125
,0.9195302000000001,2.34375
,0.9639584000000001,2.32421875
,0.9642605,2.3046875
,0.9812451000000002,2.28515625
,1.0248068,2.2607421875
,1.0282087,2.2412109375
,1.0443661,2.2119140625
,1.0614598000000002,2.1923828125
,1.0803398999999998,2.1728515625
,1.0986368,2.158203125
,1.1483876999999998,2.138671875
,1.1490374,2.119140625
,1.1612060999999998,2.1044921875
,1.1824077000000002,2.0947265625
,1.2013090000000002,2.080078125
,1.2175829999999999,2.0703125
,1.2528055,2.0654296875
,1.2743742999999998,2.0556640625
,1.2794050000000001,2.0458984375
,1.3168532000000002,2.041015625
,1.3198089,2.03125
,1.3561296999999999,2.0263671875
,1.3774179000000002,2.03125
,1.3823371999999998,2.0654296875
,1.3989029,2.119140625
,1.4412245000000001,2.197265625
,1.4415517000000002,2.265625
,1.476143,2.32421875
,1.4800730999999998,2.3681640625
,1.5197381,2.4072265625
,1.5490507,2.431640625
,1.5494059999999998,2.451171875
,1.5586462,2.4658203125
,1.5950208,2.470703125
,1.5975986,2.4755859375
,1.6411636,2.4658203125
,1.6414762,2.4462890625
,1.6763946,2.4267578125
,1.6806071999999999,2.40234375
,1.7192566999999999,2.3779296875
,1.7226161000000002,2.3583984375
,1.7419517,2.3388671875
,1.783922,2.3095703125
,1.7842816,2.2900390625
,1.8017539999999999,2.275390625
,1.8449577000000001,2.255859375
,1.8453013999999999,2.2412109375
,1.8618579,2.2216796875
,1.8964205,2.197265625
,1.9015303000000001,2.177734375
,1.9382742999999998,2.158203125
,1.9520521,2.138671875
,1.9593237000000001,2.119140625
,1.9815814,2.099609375
,2.0164445000000004,2.0849609375
,2.0194273000000003,2.0654296875
,2.056877,2.05078125
,2.0628371000000003,2.041015625
,2.0973762000000002,2.03125
,2.1020725000000002,2.0166015625
,2.1216068000000003,2.0068359375
,2.1404698,1.9970703125
,2.1750362,1.9873046875
,2.1803273,1.9775390625
,2.2007636,1.9677734375
,2.2445743,1.982421875
,2.2450228,2.03125
,2.2743311999999998,2.0947265625
,2.2819599999999998,2.1630859375
,2.3007067,2.2216796875
,2.3374883000000004,2.2802734375
,2.3423453,2.3193359375
,2.3618154999999996,2.353515625
,2.3969804999999997,2.3779296875
,2.4019858999999997,2.3974609375
,2.4393814999999996,2.4072265625
,2.4421806999999998,2.4169921875
,2.4640001,2.412109375
,2.4998598999999997,2.3974609375
,2.5001635999999996,2.3779296875
,2.5350004000000004,2.3583984375
,2.5401058,2.3388671875
,2.5751394000000003,2.3193359375
,2.5961736999999996,2.2998046875
,2.6023332000000003,2.2802734375
,2.6492041000000004,2.2607421875
,2.6496380000000004,2.2412109375
,2.6644533,2.2216796875
,2.6805158999999996,2.2021484375
,2.7173097999999998,2.1875
,2.7216129999999996,2.16796875
,2.7423972,2.1484375
,2.7892767999999997,2.1142578125
,2.7897746999999997,2.0849609375
,2.8037035,2.0703125
,2.8514074000000003,2.0556640625
,2.8518602,2.0458984375
,2.8613405,2.041015625
,2.8984528999999997,2.0361328125
,2.9001260999999996,2.03125
,2.9473596000000004,2.0263671875
,2.9478036000000003,2.0166015625
,2.9784981999999998,2.01171875
,2.9832536999999997,2.001953125
,3.0185809,1.9970703125
,3.0190386,1.9873046875
,3.0716124000000002,2.0068359375
,3.0724959,2.0458984375
,3.0819833,2.109375
,3.1173827000000003,2.177734375
,3.1227405,2.2412109375
,3.1651914000000003,2.294921875
,3.1656386000000003,2.3388671875
,3.1852124,2.3779296875
,3.220116,2.40234375
,3.2261822999999996,2.4267578125
,3.2438396999999997,2.44140625
,3.2627148999999998,2.451171875
,3.3035198,2.451171875
,3.3040044,2.4462890625
,3.3379239,2.431640625
,3.3428481999999997,2.412109375
,3.3795482999999997,2.3876953125
,3.3849036999999997,2.3681640625
,3.4001153000000004,2.3486328125
,3.4430426,2.3291015625
,3.4434877999999998,2.3095703125
,3.4909638999999997,2.294921875
,3.4914091000000003,2.2802734375
,3.5223708,2.2705078125
,3.5228263,2.2607421875
,3.5458717,2.24609375
,3.5649454,2.2314453125
,3.5814462999999996,2.2119140625
,3.6182599,2.197265625
,3.6206626,2.1826171875
,3.6594349,2.1728515625
,3.6807605,2.158203125
,3.6836472000000002,2.1484375
,3.7210365999999997,2.138671875
,3.7253774,2.1337890625
,3.7423954000000004,2.1337890625
,3.7768913,2.138671875
,3.7819507999999997,2.138671875
,3.8016598000000004,2.138671875
,3.8462927000000002,2.1484375
,3.8465925,2.1826171875
,3.8651280999999997,2.236328125
,3.8834802,2.2998046875
,3.9248029000000004,2.36328125
,3.9251875,2.4169921875
,3.9458444000000004,2.4609375
,3.9621281,2.4951171875
,3.9967891,2.529296875
,4.0170963,2.548828125
,4.0244524,2.5634765625
,4.060453,2.568359375
,4.0627498,2.5634765625
,4.1011414,2.548828125
,4.1265753,2.529296875
,4.1268618,2.5
,4.1422734,2.470703125
,4.1868543,2.4462890625
,4.1871711,2.421875
,4.2073791,2.40234375
,4.2251321,2.3779296875
,4.2443795,2.353515625
,4.2816593,2.333984375
,4.2862179,2.314453125
,4.3025399,2.294921875
,4.3433733,2.275390625
,4.3439103,2.2509765625
,4.3797455,2.2314453125
,4.3848533,2.2119140625
,4.406361,2.197265625
,4.4251516,2.1826171875
,4.4694786,2.1630859375
,4.4699314,2.1435546875
,4.4823352,2.1337890625
,4.5186798,2.1240234375
,4.5213478,2.1142578125
,4.5579793,2.1044921875
,4.578658,2.08984375
,4.5846322,2.0751953125
,4.6254972,2.0654296875
,4.6258079,2.0751953125
,4.6461896,2.109375
,4.6668627,2.1630859375
,4.681852,2.2216796875
,4.7178956,2.2802734375
,4.7386733,2.3291015625
,4.7443016,2.3681640625
,4.7657111,2.3974609375
,4.8020254,2.4169921875
,4.8047332,2.431640625
,4.8435917,2.4365234375
,4.8650244,2.4365234375
,4.8654752,2.4267578125
,4.8831036,2.412109375
,4.9201084,2.392578125
,4.925508,2.3681640625
,4.9454909,2.34375
,4.9817054,2.32421875
,4.9864468,2.3095703125
,5.0242249,2.2900390625
,5.0246831,2.275390625
,5.0596916,2.2607421875
,5.0625071,2.24609375
,5.098653,2.2265625
,5.1194819,2.20703125
,5.1281378,2.1875
,5.1457122,2.16796875
,5.1670583,2.1484375
,5.2031145,2.1337890625
,5.2035631,2.119140625
,5.2399202,2.1044921875
,5.2431302,2.08984375
,5.2919925,2.080078125
,5.2924378,2.0703125
,5.3125991,2.060546875
,5.3263435,2.05078125
,5.3628518,2.0458984375
,5.3672383,2.0361328125
,5.389561,2.0263671875
,5.4041247,2.0166015625
,5.4456925,2.021484375
,5.4460865,2.0458984375
,5.4651134,2.099609375
,5.5088891,2.1630859375
,5.5093477,2.2216796875
,5.5270135,2.2802734375
,5.5474923,2.3193359375
,5.5842506,2.353515625
,5.5846551,2.3681640625
,5.6185755,2.3876953125
,5.6275707,2.392578125
,5.6465865,2.392578125
,5.6962406,2.3828125
,5.6966899,2.3681640625
,5.7081774,2.3486328125
,5.7289618,2.32421875
,5.7436395,2.2998046875
,5.7785717,2.28515625
,5.7830801,2.275390625
,5.8187124,2.2607421875
,5.8391778,2.24609375
,5.8469405,2.2314453125
,5.8842031,2.216796875
,5.889905,2.197265625
,5.9249372,2.1875
,5.9252518,2.16796875
,5.9455385,2.1533203125
,5.9668129,2.1435546875
,6.001945600000001,2.12890625
,6.004250799999999,2.1142578125
,6.0489283,2.1044921875
,6.049375899999999,2.0947265625
,6.0799582,2.0849609375
,6.0890594,2.080078125
,6.1398622,2.0654296875
,6.140594200000001,2.060546875
,6.1480516000000005,2.0556640625
,6.182781200000001,2.08984375
,6.186290400000001,2.138671875
,6.207374400000001,2.197265625
,6.242570499999999,2.24609375
,6.247321400000001,2.294921875
,6.282429799999999,2.3291015625
,6.3026588,2.353515625
,6.3073824,2.373046875
,6.3268767,2.3876953125
,6.3444903,2.392578125
,6.3915706,2.392578125
,6.3920157,2.3828125
,6.4226277,2.3681640625
,6.4288895,2.34375
,6.4651233,2.3193359375
,6.469889,2.2998046875
,6.484977499999999,2.28515625
,6.5323343000000005,2.265625
,6.5326366,2.2509765625
,6.546242400000001,2.2412109375
,6.5949042,2.2314453125
,6.595348700000001,2.216796875
,6.6152657999999995,2.2021484375
,6.6308156,2.1875
,6.646127099999999,2.16796875
,6.6652798,2.158203125
,6.7036941,2.138671875
,6.7330775,2.1240234375
,6.733498300000001,2.109375
,6.748700400000001,2.0947265625
,6.781952799999999,2.080078125
,6.7880941,2.0654296875
,6.828572100000001,2.0556640625
,6.828896800000001,2.041015625
,6.8494394,2.03125
,6.8664825,2.021484375
,6.901804,2.0166015625
,6.909160999999999,2.0068359375
,6.928160399999999,2.001953125
,6.962881299999999,1.9921875
,6.967757499999999,1.9873046875
,7.0004893,1.9775390625
,7.0205336,1.982421875
,7.026794300000001,2.0068359375
,7.0485145,2.0703125
,7.083674200000001,2.1435546875
,7.086968199999999,2.20703125
,7.1086683,2.265625
,7.129889500000001,2.3095703125
,7.1656312,2.3486328125
,7.1720159,2.3779296875
,7.1902214,2.3974609375
,7.205571900000001,2.412109375
,7.2409327999999995,2.421875
,7.246772999999999,2.421875
,7.2803106,2.4169921875
,7.301714799999999,2.40234375
,7.3091753,2.3828125
,7.344225099999999,2.36328125
,7.3493324,2.3388671875
,7.3695991,2.3193359375
,7.387563999999999,2.2998046875
,7.4078882,2.28515625
,7.448661700000001,2.265625
,7.449002200000001,2.2509765625
,7.486059600000001,2.2314453125
,7.489176799999999,2.216796875
,7.509713,2.197265625
,7.557297,2.177734375
,7.5577579,2.158203125
,7.569768699999999,2.1435546875
,7.5866378,2.12890625
,7.6213841,2.1142578125
,7.642919300000001,2.099609375
,7.648113,2.0849609375
,7.696064099999999,2.0703125
,7.696353200000001,2.060546875
,7.710526099999999,2.0458984375
,7.7461269,2.0361328125
,7.7508059,2.0263671875
,7.767144,2.0166015625
,7.8022908,2.01171875
,7.807111900000001,2.001953125
,7.8433638000000006,1.9970703125
,7.8491654,2.001953125
,7.8966026,2.03125
,7.8969331,2.0849609375
,7.9113974,2.1484375
,7.926762999999999,2.20703125
,7.9751975999999996,2.265625
,7.9755006999999996,2.3046875
,7.9887444,2.34375
,8.036745,2.3779296875
,8.037194,2.3974609375
,8.0512529,2.412109375
,8.0711943,2.421875
,8.1089473,2.421875
,8.1093918,2.412109375
,8.1380834,2.40234375
,8.1474408,2.3828125
,8.1685285,2.36328125
,8.1905577,2.3388671875
,8.2266303,2.3193359375
,8.2290075,2.294921875
,8.2634205,2.2802734375
,8.2855476,2.2607421875
,8.2922673,2.236328125
,8.3078166,2.216796875
,8.3291054,2.197265625
,8.3737178,2.177734375
,8.3741853,2.1533203125
,8.3883678,2.1337890625
,8.4239069,2.1142578125
,8.4456705,2.0947265625
,8.4535444,2.0751953125
,8.4711854,2.0556640625
,8.4885969,2.041015625
,8.524988,2.03125
,8.5306646,2.0166015625
,8.5740354,2.0068359375
,8.5744943,1.9970703125
,8.5918799,1.9873046875
,8.6109987,1.9775390625
,8.6497332,1.9677734375
,8.6501859,1.9580078125
,8.6701527,1.9482421875
,8.689632,1.953125
,8.7252561,1.9775390625
,8.7297326,2.0361328125
,8.751282,2.099609375
,8.7859764,2.1630859375
,8.791222,2.2216796875
,8.8115777,2.2705078125
,8.8285254,2.314453125
,8.8643359,2.3486328125
,8.8686388,2.373046875
,8.9045912,2.392578125
,8.9102476,2.4072265625
,8.9458416,2.4072265625
,8.9508418,2.40234375
,8.9865166,2.3876953125
,8.9925639,2.3681640625
,9.0113455,2.34375
,9.0586961,2.3193359375
,9.0591466,2.294921875
,9.0690236,2.2802734375
,9.1038789,2.2607421875
,9.1247781,2.2412109375
,9.1327575,2.2265625
,9.1799659,2.20703125
,9.180693,2.1875
,9.1909276,2.16796875
,9.208448,2.1435546875
,9.2592666,2.12890625
,9.2597142,2.109375
,9.2885331,2.08984375
,9.2914155,2.0751953125
,9.32698,2.0556640625
,9.3320851,2.041015625
,9.3693098,2.0263671875
,9.3732272,2.01171875
,9.3893746,1.9970703125
,9.4249102,1.9873046875
,9.4313402,1.982421875
,9.4739744,1.97265625
,9.4744469,1.962890625
,9.4917693,1.953125
,9.5261209,1.9384765625
,9.5466515,1.9384765625
,9.5510841,1.953125
,9.5700994,2.001953125
,9.6143408,2.0654296875
,9.6147022,2.138671875
,9.6303104,2.20703125
,9.6665489,2.2509765625
,9.6719419,2.3046875
,9.7101555,2.3486328125
,9.7125086,2.3779296875
,9.7483569,2.3974609375
,9.7529851,2.4072265625
,9.7712844,2.4072265625
,9.8221427,2.3974609375
,9.8226033,2.3828125
,9.8294785,2.3583984375
,9.8644581,2.333984375
,9.8854589,2.3095703125
,9.8933634,2.28515625
,9.9304914,2.265625
,9.9353031,2.24609375
,9.951409,2.2265625
,9.9928732,2.2119140625
,9.9931819,2.1923828125
,10.0280667,2.177734375
,10.030994,2.158203125
,10.0660838,2.138671875
,10.086169,2.1240234375
,10.0918111,2.1044921875
,10.1265534,2.08984375
,10.129674,2.080078125
,10.1819185,2.0654296875
,10.1826071,2.0556640625
,10.2127243,2.0458984375
,10.2131053,2.03125
,10.248317,2.021484375
,10.2536214,2.01171875
,10.2908021,2.0166015625
,10.2965862,2.0361328125
,10.3142087,2.080078125
,10.3314983,2.1240234375
,10.3668198,2.1923828125
,10.3723311,2.24609375
,10.406792,2.2900390625
,10.4285574,2.3193359375
,10.4340723,2.3486328125
,10.4693929,2.36328125
,10.4750771,2.373046875
,10.4921366,2.373046875
,10.5296066,2.373046875
,10.5299379,2.3583984375
,10.5710605,2.3388671875
,10.6012046,2.314453125
,10.6015023,2.294921875
,10.6143932,2.2705078125
,10.6495836,2.24609375
,10.6546559,2.2265625
,10.672173,2.2021484375
,10.7072241,2.1875
,10.7129605,2.16796875
,10.750311,2.1435546875
,10.753368,2.1240234375
,10.7889066,2.1044921875
,10.7948992,2.080078125
,10.829629,2.0654296875
,10.8299385,2.0458984375
,10.8677695,2.0263671875
,10.8718653,2.0068359375
,10.9105524,1.9921875
,10.9110152,1.9775390625
,10.9499157,1.962890625
,10.9529316,1.9482421875
,10.9895303,1.93359375
,11.020724,1.923828125
,11.0210291,1.9140625
,11.0370671,1.8994140625
,11.0531329,1.884765625
,11.0747248,1.8896484375
,11.093092,1.8896484375
,11.1137796,1.89453125
,11.1340387,1.9091796875
,11.1540069,1.943359375
,11.193602,1.9970703125
,11.1944686,2.0703125
,11.2343901,2.1484375
,11.2348384,2.216796875
,11.252718,2.2802734375
,11.3023281,2.3291015625
,11.302773,2.3681640625
,11.3333194,2.40234375
,11.3336247,2.4267578125
,11.3797329,2.44140625
,11.3801825,2.4462890625
,11.411388,2.4462890625
,11.4117066,2.44140625
,11.4582807,2.4267578125
,11.4587295,2.4072265625
,11.4746342,2.3828125
,11.5203902,2.3583984375
,11.5208465,2.333984375
,11.5364995,2.314453125
,11.5713476,2.2900390625
,11.5716548,2.2705078125
,11.6146413,2.2509765625
,11.6150907,2.2314453125
,11.643284,2.2119140625
,11.655378,2.1923828125
,11.6767277,2.177734375
,11.6959431,2.1533203125
,11.7320856,2.138671875
,11.7365421,2.119140625
,11.7561289,2.0947265625
,11.7721164,2.0751953125
,11.807846,2.0654296875
,11.8294069,2.0556640625
,11.8354743,2.041015625
,11.8791033,2.03125
,11.8794487,2.021484375
,11.8954378,2.01171875
,11.9316324,2.001953125
,11.9346651,1.9873046875
,11.9535957,1.9775390625
,12.0041599,1.982421875
,12.0046156,2.0068359375
,12.0153683,2.060546875
,12.0522069,2.119140625
,12.0554861,2.1875
,12.0967806,2.2412109375
,12.0972249,2.2998046875
,12.1139578,2.3388671875
,12.1582917,2.373046875
,12.1586571,2.40234375
,12.1746458,2.4267578125
,12.2106868,2.44140625
,12.2181772,2.4462890625
,12.2362921,2.44140625
,12.2565752,2.4267578125
,12.2998176,2.4072265625
,12.3002109,2.3828125
,12.3313745,2.3583984375
,12.3316784,2.3291015625
,12.3681676,2.3046875
,12.3889156,2.2802734375
,12.3964639,2.255859375
,12.4168929,2.2314453125
,12.4360731,2.20703125
,12.4575796,2.1875
,12.4771046,2.158203125
,12.5130725,2.1337890625
,12.5135203,2.119140625
,12.5496057,2.1044921875
,12.5559791,2.0849609375
,12.59603,2.0703125
,12.5964766,2.0556640625
,12.6160599,2.0361328125
,12.6588254,2.021484375
,12.6592829,2.0068359375
,12.6747806,1.9970703125
,12.7109017,1.9873046875
,12.713695,1.9775390625
,12.7519503,1.97265625
,12.7546801,1.962890625
,12.7917993,1.9482421875
,12.7975116,1.9384765625
,12.8168763,1.9384765625
,12.8610374,1.9677734375
,12.8613687,2.0263671875
,12.873976,2.0947265625
,12.9246928,2.1630859375
,12.925141,2.2265625
,12.9367896,2.275390625
,12.9848677,2.3193359375
,12.9853269,2.353515625
,12.9986104,2.3828125
,13.0150924,2.40234375
,13.0609784,2.4169921875
,13.0612868,2.421875
,13.0735095,2.421875
,13.1125325,2.4072265625
,13.1175862,2.3876953125
,13.1356344,2.373046875
,13.1720214,2.3486328125
,13.1771861,2.333984375
,13.2176033,2.3095703125
,13.2183892,2.28515625
,13.2376392,2.265625
,13.2552391,2.255859375
,13.2908022,2.236328125
,13.2964484,2.2216796875
,13.3413884,2.20703125
,13.341838,2.1923828125
,13.3572923,2.1728515625
,13.4047356,2.1533203125
,13.4051908,2.1337890625
,13.4155669,2.119140625
,13.452942,2.099609375
,13.4569451,2.08984375
,13.4984134,2.0751953125
,13.4988762,2.0654296875
,13.5166353,2.05078125
,13.5528557,2.041015625
,13.5586922,2.03125
,13.5752401,2.0166015625
,13.597071,2.0068359375
,13.6162322,2.001953125
,13.6366348,2.0068359375
,13.6710108,2.041015625
,13.6926511,2.099609375
,13.699845,2.158203125
,13.7179517,2.2216796875
,13.735869,2.2705078125
,13.7757695,2.3193359375
,13.776251,2.3583984375
,13.8140978,2.3828125
,13.8145645,2.40234375
,13.8517888,2.412109375
,13.8728131,2.421875
,13.8783247,2.4169921875
,13.9290962,2.4072265625
,13.9293958,2.3876953125
,13.9392871,2.3583984375
,13.9560613,2.34375
,13.992394,2.3291015625
,13.997257,2.314453125
,14.0328783,2.294921875
,14.0379505,2.2802734375
,14.0855623,2.265625
,14.085868999999999,2.24609375
,14.0994122,2.2314453125
,14.135127,2.2119140625
,14.1355276,2.1923828125
,14.1559186,2.177734375
,14.1916862,2.1630859375
,14.212527099999999,2.1484375
,14.2181125,2.1337890625
,14.2389163,2.119140625
,14.2738911,2.1044921875
,14.2943049,2.08984375
,14.2947545,2.080078125
,14.3282329,2.0654296875
,14.348358300000001,2.0556640625
,14.3567283,2.0703125
,14.392459500000001,2.099609375
,14.3999701,2.1533203125
,14.4404353,2.2119140625
,14.4409058,2.255859375
,14.4609791,2.3046875
,14.477025900000001,2.3388671875
,14.5144655,2.373046875
,14.5149243,2.3974609375
,14.5506444,2.421875
,14.579450000000001,2.431640625
,14.579892999999998,2.44140625
,14.6011168,2.4365234375
,14.6192442,2.4267578125
,14.6586875,2.4072265625
,14.659054300000001,2.3828125
,14.705228000000002,2.3583984375
,14.705677300000001,2.333984375
,14.716847999999999,2.314453125
,14.751057500000002,2.294921875
,14.772009,2.275390625
,14.7789487,2.255859375
,14.7982747,2.236328125
,14.833619899999999,2.216796875
,14.855883599999999,2.197265625
,14.8563467,2.177734375
,14.8776385,2.158203125
,14.9156318,2.1435546875
,14.9160911,2.1240234375
,14.951323200000001,2.1044921875
,14.9723054,2.08984375
,14.9800677,2.0703125
,15.016012,2.0556640625
,15.016404600000001,2.041015625
,15.051811699999998,2.03125
,15.056512099999999,2.0166015625
,15.106928799999999,2.0068359375
,15.1073767,1.9970703125
,15.138293399999998,1.9873046875
,15.138771299999998,1.9775390625
,15.175679200000001,1.9677734375
,15.1814894,1.9580078125
,15.196933900000001,1.9482421875
,15.247196800000001,1.9482421875
,15.2480646,1.97265625
,15.260228399999999,2.03125
,15.2789261,2.0947265625
,15.323604,2.16796875
,15.3239083,2.2265625
,15.3414021,2.2802734375
,15.36109,2.32421875
,15.4017041,2.36328125
,15.402121999999999,2.392578125
,15.4179964,2.412109375
,15.438151999999999,2.431640625
,15.480406899999998,2.4365234375
,15.4807132,2.4365234375
,15.5180985,2.431640625
,15.5212337,2.412109375
,15.5408152,2.3876953125
,15.577725399999999,2.3681640625
,15.578026300000001,2.34375
,15.6216112,2.32421875
,15.621906200000002,2.3046875
,15.639216600000001,2.28515625
,15.675076,2.2607421875
,15.680312,2.2412109375
,15.7176622,2.2216796875
,15.720429200000002,2.2021484375
,15.763140199999999,2.177734375
,15.7635893,2.1630859375
,15.793412100000001,2.1484375
,15.799764,2.12890625
,15.838933999999998,2.109375
,15.8392375,2.0947265625
,15.8850087,2.0751953125
,15.8852987,2.060546875
,15.906057700000002,2.05078125
,15.918317299999998,2.0361328125
,15.964513100000001,2.0263671875
,15.964960999999999,2.01171875
,15.9795035,2.0068359375
,16.0270778,2.021484375
,16.0274197,2.060546875
,16.0570202,2.1142578125
,16.0616211,2.16796875
,16.0837875,2.216796875
,16.1022708,2.255859375
,16.1493359,2.294921875
,16.1496815,2.3193359375
,16.1599498,2.34375
,16.1966605,2.3583984375
,16.1984595,2.373046875
,16.2440695,2.373046875
,16.2445032,2.373046875
,16.2647128,2.36328125
,16.2835612,2.3486328125
,16.2996742,2.32421875
,16.3357489,2.2998046875
,16.3385027,2.28515625
,16.3826914,2.265625
,16.3830659,2.24609375
,16.4028397,2.2265625
,16.4227739,2.20703125
,16.4423004,2.1875
,16.493938,2.16796875
,16.4943028,2.1484375
,16.501216,2.1337890625
,16.5200492,2.1142578125
,16.5557184,2.099609375
,16.5611148,2.080078125
,16.5817356,2.0654296875
,16.6166857,2.0458984375
,16.6373672,2.03125
,16.6376596,2.0166015625
,16.675585,2.0068359375
,16.6782935,1.9921875
,16.7141331,1.982421875
,16.7422069,1.97265625
,16.7426427,1.962890625
,16.7786639,1.9580078125
,16.7818493,1.953125
,16.8028719,1.9482421875
,16.8230703,1.943359375
,16.8445101,1.9384765625
,16.8617214,1.93359375
,16.8814323,1.93359375
,16.9001844,1.962890625
,16.9368306,2.0166015625
,16.9569481,2.0849609375
,16.9629945,2.1484375
,17.0026454,2.20703125
,17.0030887,2.2509765625
,17.0232928,2.28515625
,17.0396825,2.3095703125
,17.0803237,2.333984375
,17.080622,2.3486328125
,17.1248364,2.3583984375
,17.125287,2.36328125
,17.1587522,2.3583984375
,17.1617454,2.3486328125
,17.1992104,2.3291015625
,17.2184296,2.3095703125
,17.2187666,2.2900390625
,17.2544849,2.2705078125
,17.2752501,2.255859375
,17.2829944,2.236328125
,17.3276637,2.2216796875
,17.3280965,2.20703125
,17.3433597,2.1875
,17.379311,2.1728515625
,17.3796039,2.158203125
,17.421847,2.1435546875
,17.4221379,2.12890625
,17.4420687,2.1142578125
,17.4786546,2.099609375
,17.482189,2.0849609375
,17.5190748,2.0751953125
,17.5235329,2.0654296875
,17.5608809,2.05078125
,17.5630561,2.041015625
,17.6095648,2.03125
,17.6100253,2.021484375
,17.6231129,2.021484375
,17.6408542,2.0263671875
,17.6851128,2.060546875
,17.6854676,2.1044921875
,17.7048236,2.158203125
,17.7247483,2.2021484375
,17.7449187,2.2412109375
,17.7603877,2.2705078125
,17.7953874,2.294921875
,17.8164399,2.3095703125
,17.8214242,2.32421875
,17.8559426,2.3291015625
,17.8772843,2.3291015625
,17.8827083,2.3193359375
,17.9052363,2.2998046875
,17.9202673,2.2802734375
,17.9404379,2.2607421875
,17.976593,2.24609375
,17.9987198,2.2314453125
,18.0032428,2.2119140625
,18.02512,2.197265625
,18.0438109,2.1826171875
,18.0789468,2.16796875
,18.0993986,2.1533203125
,18.0998619,2.138671875
,18.1346323,2.1240234375
,18.1559835,2.109375
,18.1638874,2.0947265625
,18.1827818,2.080078125
,18.2292428,2.0654296875
,18.2295417,2.0458984375
,18.2448316,2.03125
,18.2644136,2.021484375
,18.3009031,2.0068359375
,18.308264,1.9970703125
,18.3233478,1.982421875
,18.3426467,1.982421875
,18.3780985,1.97265625
,18.4003768,1.97265625
,18.4036991,1.962890625
,18.4475899,1.962890625
,18.4479723,1.953125
,18.4686347,1.953125
,18.4831634,1.953125
,18.5023414,1.9873046875
,18.5417879,2.0361328125
,18.5421609,2.1044921875
,18.5788727,2.158203125
,18.5855466,2.2119140625
,18.6043364,2.2509765625
,18.6261812,2.28515625
,18.646554,2.3095703125
,18.6621812,2.3291015625
,18.699377,2.34375
,18.7041481,2.353515625
,18.7437974,2.353515625
,18.744244,2.3486328125
,18.7905137,2.333984375
,18.7908294,2.314453125
,18.8059239,2.2998046875
,18.8214253,2.2802734375
,18.8671167,2.265625
,18.8674047,2.2509765625
,18.8881672,2.236328125
,18.9029249,2.2216796875
,18.9462915,2.20703125
,18.9467431,2.1923828125
,18.9638994,2.177734375
,19.0018456,2.1630859375
,19.0042043,2.1484375
,19.0394108,2.12890625
,19.0612075,2.1142578125
,19.0615053,2.1044921875
,19.1045335,2.0947265625
,19.1049772,2.0849609375
,19.134585,2.0703125
,19.1462957,2.060546875
,19.1657687,2.05078125
,19.2134948,2.041015625
,19.213942,2.03125
,19.2438518,2.0263671875
,19.2443027,2.021484375
,19.2651137,2.01171875
,19.285245,2.001953125
,19.3220069,1.9970703125
,19.3295592,2.0068359375
,19.3459517,2.041015625
,19.3810492,2.1044921875
,19.4020682,2.158203125
,19.4025956,2.216796875
,19.4468334,2.265625
,19.4473112,2.3095703125
,19.4641996,2.333984375
,19.4845866,2.36328125
,19.5240832,2.3779296875
,19.5460158,2.392578125
,19.5463179,2.40234375
,19.564351,2.40234375
,19.6034437,2.40234375
,19.6039036,2.3876953125
,19.6410172,2.3681640625
,19.6437899,2.3486328125
,19.6797724,2.3291015625
,19.7010834,2.3095703125
,19.706181,2.2900390625
,19.7435843,2.275390625
,19.7452796,2.255859375
,19.76442,2.236328125
,19.7847422,2.2216796875
,19.8224018,2.2021484375
,19.8434449,2.1923828125
,19.8465293,2.1728515625
,19.8667863,2.158203125
,19.916391,2.1435546875
,19.9167853,2.12890625
,19.9479074,2.1142578125
,19.9483572,2.0947265625
,19.9649794,2.0849609375
,20.0102123,2.0703125
,20.0107255,2.0556640625
,20.0267429,2.0458984375
,20.0459077,2.0361328125
,20.0661779,2.0263671875
,20.0872343,2.0166015625
,20.1041468,2.01171875
,20.1495912,2.001953125
,20.1499027,1.9970703125
,20.1665677,1.9873046875
,20.2119812,1.9873046875
,20.2124717,2.0068359375
,20.2264375,2.0556640625
,20.2760319,2.1142578125
,20.2763899,2.1826171875
,20.2847592,2.236328125
,20.3226453,2.28515625
,20.3234934,2.314453125
,20.3460234,2.353515625
,20.3821708,2.3779296875
,20.3852189,2.40234375
,20.432063,2.4169921875
,20.4325234,2.4267578125
,20.4478484,2.431640625
,20.4846222,2.421875
,20.4849697,2.4072265625
,20.5262031,2.3876953125
,20.5267551,2.36328125
,20.5610168,2.34375
,20.5672969,2.32421875
,20.603113,2.2998046875
,20.6062289,2.2802734375
,20.6409921,2.2607421875
,20.6625906,2.2412109375
,20.6630428,2.2216796875
,20.7117799,2.20703125
,20.7122391,2.1875
,20.7325652,2.16796875
,20.7471424,2.1484375
,20.767677,2.12890625
,20.80393,2.1142578125
,20.806726,2.0947265625
,20.844472,2.080078125
,20.8447783,2.0654296875
,20.8860826,2.05078125
,20.8864615,2.0361328125
,20.917605,2.0263671875
,20.9258642,2.021484375
,20.9631272,2.01171875
,20.9938809,2.001953125
,20.9941707,1.9921875
,21.0060757,1.9775390625
,21.0317315,1.9677734375
,21.0482348,1.9482421875
,21.0677424,1.953125
,21.0858428,1.9775390625
,21.1081659,2.0361328125
,21.1281486,2.099609375
,21.1484593,2.16796875
,21.1705629,2.2265625
,21.1888223,2.275390625
,21.2238437,2.3193359375
,21.2450956,2.353515625
,21.2453966,2.3828125
,21.2878615,2.40234375
,21.2882227,2.4169921875
,21.320104,2.421875
,21.329955,2.4169921875
,21.3500073,2.40234375
,21.3689144,2.3779296875
,21.3867048,2.3583984375
,21.4270031,2.3388671875
,21.4274614,2.3193359375
,21.4629121,2.294921875
,21.4658288,2.275390625
,21.5059075,2.255859375
,21.5104354,2.236328125
,21.5300309,2.216796875
,21.5490422,2.197265625
,21.5656885,2.177734375
,21.586736,2.1630859375
,21.6244566,2.1484375
,21.6249157,2.12890625
,21.6634427,2.109375
,21.6689483,2.0947265625
,21.6889732,2.0751953125
,21.7257539,2.060546875
,21.7260666,2.041015625
,21.7642215,2.03125
,21.7647201,2.0068359375
,21.7869058,2.001953125
,21.8326055,1.9970703125
,21.8329107,1.9873046875
,21.8534022,1.982421875
,21.8684924,1.9677734375
,21.9130323,1.9580078125
,21.9134913,1.9482421875
,21.9315627,1.9482421875
,21.9473377,1.9677734375
,21.9671671,2.021484375
,22.006025,2.0849609375
,22.0063319,2.1533203125
,22.0521877,2.2119140625
,22.0526481,2.265625
,22.0705728,2.3095703125
,22.1144949,2.34375
,22.1149435,2.3681640625
,22.1269183,2.3876953125
,22.1781526,2.40234375
,22.1784372,2.40234375
,22.2076813,2.40234375
,22.2081052,2.3876953125
,22.2553513,2.3681640625
,22.2556505,2.3486328125
,22.2717178,2.32421875
,22.2885106,2.3046875
,22.3065915,2.28515625
,22.3462455,2.265625
,22.3534847,2.2509765625
,22.3690113,2.2314453125
,22.3894961,2.2119140625
,22.439333,2.1923828125
,22.4396966,2.177734375
,22.4500683,2.158203125
,22.4708175,2.1435546875
,22.4915665,2.119140625
,22.5074759,2.0947265625
,22.5446966,2.0849609375
,22.5471881,2.0751953125
,22.5833157,2.0654296875
,22.6050432,2.05078125
,22.6096012,2.041015625
,22.630645,2.0263671875
,22.6673771,2.0166015625
,22.6676849,2.0068359375
,22.7031988,2.001953125
,22.708188,1.9921875
,22.7305069,1.982421875
,22.780374,1.982421875
,22.780816,2.0068359375
,22.790402,2.0556640625
,22.8104823,2.109375
,22.8566594,2.1728515625
,22.857106,2.2216796875
,22.8780625,2.2705078125
,22.8886676,2.3046875
,22.924949,2.333984375
,22.9277573,2.3486328125
,22.963852,2.3681640625
,22.9843758,2.3681640625
,22.9892725,2.3681640625
,23.0083955,2.353515625
,23.0442482,2.3388671875
,23.0487989,2.314453125
,23.0705153,2.294921875
,23.0896616,2.2802734375
,23.1108705,2.2607421875
,23.131837,2.2412109375
,23.1685286,2.2265625
,23.1689855,2.20703125
,23.2026046,2.1875
,23.2105427,2.1630859375
,23.229395,2.1484375
,23.2649813,2.1337890625
,23.2701775,2.119140625
,23.2891619,2.1044921875
,23.311654,2.0947265625
,23.3476316,2.0849609375
,23.353116,2.0703125
,23.402332,2.060546875
,23.4026537,2.0458984375
,23.4092729,2.0361328125
,23.430146,2.03125
,23.4653587,2.021484375
,23.4712739,2.0166015625
,23.5058119,2.01171875
,23.511226,2.001953125
,23.5479198,1.9921875
,23.552788,1.9873046875
,23.5689675,1.9970703125
,23.589352,2.041015625
,23.6355539,2.0947265625
,23.6359205,2.1630859375
,23.6551663,2.2265625
,23.6721264,2.28515625
,23.7065941,2.3291015625
,23.7113569,2.373046875
,23.7494665,2.4072265625
,23.7499443,2.431640625
,23.7840695,2.451171875
,23.8045585,2.4658203125
,23.8102322,2.470703125
,23.8522839,2.4658203125
,23.852744,2.451171875
,23.886774,2.4267578125
,23.9073641,2.40234375
,23.9147004,2.3779296875
,23.9627661,2.3486328125
,23.9632298,2.3291015625
,23.9703713,2.314453125
,24.0038924,2.294921875
,24.0256205,2.2802734375
,24.0328771,2.2607421875
,24.0536844,2.2412109375
,24.1003693,2.2216796875
,24.100819,2.197265625
,24.1203936,2.1826171875
,24.1294127,2.1630859375
,24.1806119,2.1435546875
,24.1810639,2.1240234375
,24.1905396,2.109375
,24.2271986,2.08984375
,24.2327658,2.0751953125
,24.2740357,2.060546875
,24.2743273,2.0458984375
,24.2893653,2.0361328125
,24.335365,2.0263671875
,24.3358092,2.0166015625
,24.3665335,2.01171875
,24.3746084,2.001953125
,24.3934919,1.9921875
,24.4127788,2.001953125
,24.4584832,2.0361328125
,24.4587731,2.0947265625
,24.4686517,2.158203125
,24.4910661,2.2216796875
,24.5112305,2.275390625
,24.5313836,2.3291015625
,24.5658235,2.36328125
,24.5711353,2.3974609375
,24.608652,2.4169921875
,24.6130038,2.4365234375
,24.6332505,2.4462890625
,24.6684402,2.44140625
,24.6891717,2.44140625
,24.6898108,2.4267578125
,24.7274854,2.4072265625
,24.731118,2.3828125
,24.7707832,2.36328125
,24.7710816,2.3388671875
,24.8182742,2.3193359375
,24.8185843,2.294921875
,24.8388532,2.275390625
,24.8519545,2.255859375
,24.8980341,2.236328125
,24.8984588,2.2119140625
,24.9120994,2.197265625
,24.9592977,2.177734375
,24.9596171,2.158203125
,24.9752703,2.1337890625
,25.0196965,2.119140625
,25.0201437,2.1044921875
,25.0317542,2.0849609375
,25.0664255,2.0703125
,25.072804,2.0556640625
,25.0933462,2.0458984375
,25.144613,2.03125
,25.144927,2.021484375
,25.1531271,2.0068359375
,25.1913816,1.9970703125
,25.1918117,1.9873046875
,25.2202523,1.9775390625
,25.2309023,1.97265625
,25.2668336,1.982421875
,25.2725046,2.021484375
,25.3092799,2.080078125
,25.312464,2.1435546875
,25.3608623,2.2021484375
,25.3612291,2.255859375
,25.39155,2.2998046875
,25.3998613,2.3388671875
,25.4112691,2.3681640625
,25.4460838,2.3876953125
,25.4670584,2.4072265625
,25.4729301,2.4169921875
,25.5151462,2.4169921875
,25.5155193,2.412109375
,25.5603773,2.3974609375
,25.5607075,2.373046875
,25.5706436,2.353515625
,25.6071495,2.3291015625
,25.6273255,2.3095703125
,25.6345029,2.2900390625
,25.6544559,2.275390625
,25.7006477,2.255859375
,25.7009844,2.236328125
,25.7159289,2.216796875
,25.7619943,2.1923828125
,25.7624452,2.1728515625
,25.7718943,2.158203125
,25.7915798,2.138671875
,25.8281385,2.1240234375
,25.8557674,2.1044921875
,25.8561482,2.08984375
,25.874525,2.0703125
,25.9117926,2.0556640625
,25.9122277,2.041015625
,25.9479714,2.03125
,25.9529906,2.021484375
,25.9709084,2.01171875
,26.0087892,2.001953125
,26.0145107,1.9970703125
,26.057722,1.9921875
,26.0580071,1.9873046875
,26.0751721,1.982421875
,26.1112112,1.9873046875
,26.1167661,2.0166015625
,26.1335506,2.0654296875
,26.1815597,2.1337890625
,26.1819036,2.1923828125
,26.1938165,2.2509765625
,26.230237,2.2998046875
,26.2351811,2.3388671875
,26.2564193,2.36328125
,26.2909687,2.392578125
,26.3121945,2.4072265625
,26.3126962,2.4169921875
,26.3488772,2.421875
,26.3537607,2.4169921875
,26.3908919,2.40234375
,26.3938951,2.3828125
,26.4158763,2.36328125
,26.4519565,2.3388671875
,26.4573566,2.3193359375
,26.4733065,2.294921875
,26.5236935,2.2802734375
,26.524151,2.265625
,26.5335965,2.2509765625
,26.5716477,2.2314453125
,26.6022467,2.216796875
,26.6027159,2.197265625
,26.6144215,2.177734375
,26.6643849,2.158203125
,26.664832,2.138671875
,26.6956365,2.1240234375
,26.6959523,2.109375
,26.7148533,2.08984375
,26.7345612,2.0751953125
,26.773919,2.060546875
,26.8049781,2.05078125
,26.8054096,2.041015625
,26.8168179,2.03125
,26.8534897,2.021484375
,26.8539385,2.01171875
,26.8917729,2.001953125
,26.8922225,1.9921875
,26.927564,1.9873046875
,26.9491641,1.982421875
,26.9559328,1.9873046875
,27.0049401,2.0263671875
,27.005435,2.080078125
,27.0176227,2.1435546875
,27.0371157,2.20703125
,27.0559072,2.265625
,27.0748784,2.314453125
,27.1109209,2.353515625
,27.1162583,2.3828125
,27.1367082,2.4072265625
,27.173051,2.421875
,27.1760676,2.431640625
,27.1923268,2.431640625
,27.2291063,2.4267578125
,27.2494372,2.412109375
,27.2550011,2.3876953125
,27.2915878,2.3681640625
,27.2946873,2.34375
,27.3454579,2.32421875
,27.3457459,2.3046875
,27.3657725,2.28515625
,27.3749334,2.265625
,27.3945809,2.2509765625
,27.4130257,2.2314453125
,27.4499439,2.216796875
,27.4713236,2.197265625
,27.4759066,2.177734375
,27.4963895,2.158203125
,27.5316511,2.1435546875
,27.537433,2.119140625
,27.5794424,2.1044921875
,27.5797439,2.08984375
,27.594725,2.080078125
,27.6297422,2.0703125
,27.6502892,2.0556640625
,27.6562503,2.05078125
,27.674692,2.041015625
,27.7137082,2.0361328125
,27.7166777,2.0263671875
,27.7513491,2.0166015625
,27.7713838,2.01171875
,27.7749887,2.0068359375
,27.8260816,2.0166015625
,27.8265218,2.0556640625
,27.836714,2.109375
,27.888799,2.177734375
,27.8892473,2.236328125
,27.8977207,2.28515625
,27.934643,2.3291015625
,27.9350051,2.3583984375
,27.9538533,2.392578125
,27.990135,2.412109375
,28.0105995,2.4267578125
,28.0161654,2.4267578125
,28.0564987,2.4267578125
,28.0869151,2.412109375
,28.0874465,2.3974609375
,28.0932603,2.3779296875
,28.1325799,2.36328125
,28.1372467,2.3486328125
,28.1556855,2.3388671875
,28.1946146,2.3291015625
,28.194917,2.32421875
,28.2412308,2.3193359375
,28.2416515,2.3095703125
,28.262476,2.2998046875
,28.2787913,2.294921875
,28.3135861,2.28515625
,28.3159929,2.275390625
,28.3509522,2.2705078125
,28.3554536,2.2607421875
,28.3943897,2.2509765625
,28.3987949,2.236328125
,28.4191479,2.2265625
,28.4380236,2.2119140625
,28.4726578,2.2021484375
,28.4944951,2.1923828125
,28.4950514,2.1826171875
,28.5327848,2.177734375
,28.5373928,2.177734375
,28.5837107,2.20703125
,28.5842028,2.255859375
,28.5979766,2.3193359375
,28.6469137,2.373046875
,28.6473606,2.431640625
,28.6538592,2.470703125
,28.6938436,2.509765625
,28.7147386,2.5390625
,28.7178586,2.5634765625
,28.755213,2.578125
,28.7587289,2.5830078125
,28.7779393,2.578125
,28.8134712,2.5634765625
,28.8137759,2.5390625
,28.8339255,2.5146484375
,28.8692442,2.48046875
,28.8968681,2.451171875
,28.8971775,2.421875
,28.9326628,2.3974609375
,28.9378293,2.3681640625
,28.9747488,2.3486328125
,29.0044533,2.32421875
,29.0049021,2.3046875
,29.0194146,2.2802734375
,29.0360652,2.255859375
,29.082955,2.2314453125
,29.0833312,2.2119140625
,29.0997393,2.1923828125
,29.1183667,2.177734375
,29.1606852,2.158203125
,29.161137,2.138671875
,29.1802831,2.119140625
,29.2168225,2.1044921875
,29.2172704,2.0849609375
,29.2542925,2.0751953125
,29.2576475,2.060546875
,29.2792298,2.0458984375
,29.3287632,2.03125
,29.3292562,2.021484375
,29.3403019,2.0068359375
,29.3760562,2.001953125
,29.3763445,1.9873046875
,29.4119836,1.982421875
,29.4195026,1.97265625
,29.4394246,1.9677734375
,29.4602833,1.97265625
,29.4801533,2.021484375
,29.5297932,2.0947265625
,29.5301628,2.16796875
,29.5399177,2.24609375
,29.5557919,2.314453125
,29.5894314,2.3779296875
,29.6115584,2.4267578125
,29.6173995,2.470703125
,29.6561609,2.5048828125
,29.6566077,2.529296875
,29.6914724,2.5439453125
,29.7123598,2.5537109375
,29.7217825,2.5537109375
,29.7586298,2.5390625
,29.7590995,2.5146484375
,29.7776663,2.490234375
,29.8160305,2.4609375
,29.8186229,2.431640625
,29.8533342,2.40234375
,29.8738278,2.373046875
,29.8794635,2.3486328125
,29.9213884,2.3193359375
,29.9218343,2.2900390625
,29.9528458,2.265625
,29.9574563,2.2412109375
,29.9939585,2.2119140625
,29.9993516,2.1923828125
,30.03631,2.16796875
,30.039309799999998,2.1484375
,30.075715099999996,2.1240234375
,30.081147899999998,2.1044921875
,30.098395699999998,2.080078125
,30.132058999999998,2.0703125
,30.1380026,2.0556640625
,30.174954300000003,2.0361328125
,30.1776799,2.021484375
,30.216368600000003,2.01171875
,30.237416600000003,1.9970703125
,30.2396148,1.9873046875
,30.2766461,1.9775390625
,30.2769841,1.9677734375
,30.3246148,1.9580078125
,30.324911899999996,1.953125
,30.3569709,1.9677734375
,30.3574184,2.0166015625
,30.403477199999998,2.08984375
,30.4038591,2.158203125
,30.434657799999997,2.236328125
,30.4408862,2.3046875
,30.4620446,2.3583984375
,30.512326,2.40234375
,30.512801099999997,2.44140625
,30.520652300000002,2.4755859375
,30.539478799999998,2.4951171875
,30.590372600000002,2.509765625
,30.590677900000003,2.509765625
,30.600562600000003,2.5
,30.635554999999997,2.48046875
,30.6563839,2.4560546875
,30.659655899999997,2.4267578125
,30.6794534,2.40234375
,30.714754900000003,2.3779296875
,30.721846900000003,2.3486328125
,30.7419456,2.32421875
,30.7610108,2.2998046875
,30.798012999999997,2.275390625
,30.800556299999997,2.2509765625
,30.8368422,2.2265625
,30.8372197,2.197265625
,30.860798699999997,2.177734375
,30.879442500000003,2.1533203125
,30.9168703,2.12890625
,30.937913899999998,2.109375
,30.941143599999997,2.08984375
,30.9803826,2.0654296875
,30.9808289,2.0458984375
,30.997078600000002,2.0263671875
,31.032674900000004,2.01171875
,31.054297400000003,2.001953125
,31.0594466,1.9873046875
,31.105009799999998,1.97265625
,31.105475499999997,1.962890625
,31.1211787,1.953125
,31.1571646,1.9384765625
,31.163621999999997,1.9287109375
,31.1843614,1.9189453125
,31.204549399999998,1.9140625
,31.219226300000003,1.9140625
,31.254438399999998,1.953125
,31.275298399999997,2.0166015625
,31.2806895,2.099609375
,31.320819299999997,2.1728515625
,31.321266799999997,2.2509765625
,31.3686334,2.3095703125
,31.368932800000003,2.3681640625
,31.3992037,2.4072265625
,31.399654499999997,2.4462890625
,31.437624399999997,2.4755859375
,31.4434144,2.490234375
,31.4618034,2.4951171875
,31.496897500000003,2.490234375
,31.502923699999997,2.4755859375
,31.553096099999998,2.451171875
,31.553559300000003,2.4267578125
,31.560504299999998,2.3974609375
,31.581011699999998,2.373046875
,31.616261199999997,2.3486328125
,31.619023900000002,2.3193359375
,31.6560987,2.294921875
,31.6611256,2.2705078125
,31.7112756,2.24609375
,31.711576,2.2216796875
,31.725133900000003,2.197265625
,31.740414,2.16796875
,31.764879,2.1484375
,31.782112499999997,2.1142578125
,31.802082,2.099609375
,31.821875300000002,2.080078125
,31.842428499999997,2.060546875
,31.8642257,2.041015625
,31.8838607,2.021484375
,31.9185528,2.0068359375
,31.923546100000003,1.9921875
,31.9409577,1.9775390625
,31.960818600000003,1.962890625
,31.998834000000002,1.953125
,32.0010001,1.943359375
,32.047776,1.9287109375
,32.0481106,1.9189453125
,32.0623391,1.9091796875
,32.0964077,1.89453125
,32.116598,1.8896484375
,32.1199962,1.8994140625
,32.1564795,1.9482421875
,32.1609728,2.0166015625
,32.1954271,2.1044921875
,32.2163937,2.1875
,32.2219947,2.2607421875
,32.2600427,2.3193359375
,32.2656598,2.373046875
,32.2819212,2.412109375
,32.3006217,2.451171875
,32.339202,2.4755859375
,32.3420167,2.490234375
,32.3790044,2.4951171875
,32.3822684,2.4853515625
,32.4320518,2.470703125
,32.4323634,2.4462890625
,32.4433638,2.4169921875
,32.4604145,2.3876953125
,32.4977854,2.36328125
,32.5259018,2.32421875
,32.526226,2.2998046875
,32.541347,2.2802734375
,32.5771724,2.255859375
,32.5984302,2.2314453125
,32.6036882,2.20703125
,32.6389974,2.1826171875
,32.644827,2.158203125
,32.6613204,2.1337890625
,32.7108637,2.1142578125
,32.7112486,2.0947265625
,32.732108,2.0751953125
,32.7440278,2.0556640625
,32.7648336,2.03125
,32.8062878,2.01171875
,32.8067372,1.9921875
,32.8513497,1.9775390625
,32.8517042,1.962890625
,32.8618837,1.9482421875
,32.9137167,1.93359375
,32.914167,1.923828125
,32.9250393,1.9140625
,32.9425259,1.904296875
,32.9821544,1.8896484375
,32.9826017,1.8798828125
,33.038232,1.875
,33.0385187,1.884765625
,33.0430129,1.93359375
,33.0624635,2.0068359375
,33.113432,2.0947265625
,33.1138877,2.1728515625
,33.1239535,2.2509765625
,33.1582999,2.314453125
,33.1646994,2.3681640625
,33.1864461,2.4072265625
,33.2067704,2.431640625
,33.2225646,2.4462890625
,33.2683756,2.4658203125
,33.2688455,2.470703125
,33.2829477,2.4609375
,33.3196424,2.44140625
,33.3256525,2.4169921875
,33.3451371,2.392578125
,33.3919666,2.36328125
,33.3924007,2.333984375
,33.4022565,2.3046875
,33.4364844,2.28515625
,33.4576798,2.2607421875
,33.4657511,2.236328125
,33.4842986,2.2119140625
,33.533979,2.1875
,33.5342871,2.1630859375
,33.5444787,2.138671875
,33.5613393,2.119140625
,33.5996593,2.099609375
,33.6041835,2.080078125
,33.643241,2.0556640625
,33.6436927,2.0361328125
,33.6785735,2.0166015625
,33.6992134,1.9970703125
,33.7047001,1.9775390625
,33.7529371,1.9677734375
,33.7533965,1.953125
,33.7638572,1.943359375
,33.8140579,1.93359375
,33.814411,1.923828125
,33.8244206,1.9091796875
,33.8619414,1.8994140625
,33.8666804,1.8896484375
,33.9028523,1.9091796875
,33.9045846,1.962890625
,33.9264896,2.03125
,33.9435882,2.099609375
,33.986337,2.1875
,33.9867819,2.2607421875
,34.0156244,2.314453125
,34.0239358,2.3583984375
,34.0634741,2.392578125
,34.0950442,2.412109375
,34.0954943,2.421875
,34.1046497,2.4267578125
,34.1234988,2.4169921875
,34.1609826,2.3974609375
,34.1641967,2.3779296875
,34.2013682,2.353515625
,34.2062034,2.333984375
,34.2259311,2.3193359375
,34.2458533,2.2998046875
,34.2825556,2.2802734375
,34.2873315,2.2607421875
,34.3050346,2.2412109375
,34.3244284,2.2216796875
,34.3724783,2.2021484375
,34.3729253,2.1826171875
,34.3858703,2.158203125
,34.4346468,2.138671875
,34.4351186,2.1142578125
,34.4478897,2.0947265625
,34.4613962,2.0703125
,34.4848399,2.0556640625
,34.5273582,2.0361328125
,34.5277411,2.021484375
,34.5455685,2.001953125
,34.5890214,1.9873046875
,34.5893231,1.97265625
,34.6109657,1.962890625
,34.6285765,1.9482421875
,34.6477212,1.9384765625
,34.6833084,1.9189453125
,34.6836,1.9091796875
,34.7190384,1.9140625
,34.7402849,1.9482421875
,34.7454085,2.0166015625
,34.7924933,2.0947265625
,34.7929538,2.1826171875
,34.8074942,2.2607421875
,34.8556186,2.32421875
,34.8560761,2.3828125
,34.8642418,2.431640625
,34.9020858,2.4658203125
,34.904632,2.4951171875
,34.9269999,2.509765625
,34.9634959,2.5146484375
,34.9666672,2.509765625
,35.0016334,2.490234375
,35.0214679,2.4658203125
,35.0246954,2.4365234375
,35.0715102,2.412109375
,35.0719704,2.3828125
,35.0861131,2.353515625
,35.1346055,2.3291015625
,35.1350571,2.2998046875
,35.1469473,2.275390625
,35.1853869,2.2509765625
,35.1858464,2.2265625
,35.2049063,2.2021484375
,35.2416782,2.1826171875
,35.245025,2.158203125
,35.2896181,2.138671875
,35.2899294,2.1142578125
,35.3369056,2.08984375
,35.3373518,2.0654296875
,35.3481856,2.0458984375
,35.3698991,2.021484375
,35.3891923,1.9970703125
,35.4075683,1.982421875
,35.4418912,1.97265625
,35.4464928,1.962890625
,35.4950869,1.9482421875
,35.4959879,1.9384765625
,35.5080504,1.923828125
,35.5423141,1.9091796875
,35.5629756,1.8994140625
,35.5685992,1.8994140625
,35.586142,1.923828125
,35.6068767,1.9921875
,35.6505116,2.0751953125
,35.6509713,2.16796875
,35.6659635,2.24609375
,35.7105819,2.3193359375
,35.7109876,2.3779296875
,35.7318616,2.431640625
,35.7459076,2.470703125
,35.7880573,2.5048828125
,35.7885701,2.5244140625
,35.8069312,2.5341796875
,35.8428552,2.5341796875
,35.8482658,2.51953125
,35.894146,2.5
,35.8945835,2.470703125
,35.9088701,2.44140625
,35.9265621,2.4072265625
,35.9476375,2.3779296875
,35.9671684,2.3486328125
,36.00259,2.32421875
,36.007967,2.294921875
,36.0457944,2.265625
,36.0462427,2.236328125
,36.08606,2.20703125
,36.0891674,2.1826171875
,36.1259597,2.1484375
,36.1263298,2.12890625
,36.1743627,2.109375
,36.1748132,2.08984375
,36.205322,2.0703125
,36.2098948,2.05078125
,36.2283976,2.03125
,36.2642073,2.01171875
,36.2695459,1.9970703125
,36.289111,1.982421875
,36.3064018,1.97265625
,36.3438593,1.9677734375
,36.3477928,1.962890625
,36.3895666,1.9580078125
,36.3900114,1.9482421875
,36.4079643,1.9384765625
,36.4435645,1.93359375
,36.4641184,1.953125
,36.4644814,2.001953125
,36.5147358,2.080078125
,36.5155374,2.16796875
,36.5463376,2.255859375
,36.5468031,2.333984375
,36.5922442,2.392578125
,36.5926958,2.44140625
,36.6085657,2.48046875
,36.6545713,2.5146484375
,36.6550171,2.5341796875
,36.666511,2.55859375
,36.7022962,2.568359375
,36.707534,2.5634765625
,36.7434093,2.5439453125
,36.7640079,2.51953125
,36.7691528,2.490234375
,36.7904919,2.4609375
,36.8271239,2.4267578125
,36.831953,2.3974609375
,36.850952,2.373046875
,36.8676725,2.34375
,36.903905,2.314453125
,36.9319714,2.2900390625
,36.9324201,2.265625
,36.9500321,2.2412109375
,36.9853674,2.2119140625
,36.9910949,2.1875
,37.0406476,2.1630859375
,37.0411421,2.138671875
,37.0482153,2.119140625
,37.0684746,2.0947265625
,37.1066831,2.0751953125
,37.1071358,2.0556640625
,37.1493049,2.0361328125
,37.1497232,2.0166015625
,37.1835209,2.001953125
,37.2049052,1.9873046875
,37.2080432,1.9775390625
,37.256495,1.9677734375
,37.256928,1.9580078125
,37.2701808,1.9482421875
,37.2903636,1.93359375
,37.3248112,1.9384765625
,37.3312642,1.962890625
,37.3685485,2.0263671875
,37.3689963,2.099609375
,37.412327,2.1875
,37.4126303,2.2607421875
,37.4303,2.3291015625
,37.4650315,2.3828125
,37.4705937,2.4267578125
,37.5207464,2.4658203125
,37.5216139,2.490234375
,37.5312758,2.5048828125
,37.5824273,2.5048828125
,37.5827481,2.5
,37.5892724,2.4853515625
,37.6093039,2.4609375
,37.6457785,2.431640625
,37.650821,2.40234375
,37.6904107,2.3779296875
,37.6908585,2.353515625
,37.7262483,2.32421875
,37.7466816,2.2998046875
,37.7470252,2.2705078125
,37.7814315,2.2509765625
,37.80249,2.2265625
,37.8100696,2.2021484375
,37.8310164,2.177734375
,37.8511384,2.1533203125
,37.8707247,2.12890625
,37.9208265,2.1044921875
,37.9214216,2.0849609375
,37.9266321,2.060546875
,37.9631192,2.041015625
,37.9672866,2.0263671875
,38.0171116,2.0068359375
,38.0174644,1.9873046875
,38.0478357,1.97265625
,38.0508333,1.9580078125
,38.0948768,1.943359375
,38.0953499,1.9287109375
,38.1158806,1.923828125
,38.1300764,1.9140625
,38.1657781,1.904296875
,38.1685858,1.89453125
,38.2027033,1.8896484375
,38.2236012,1.9091796875
,38.2331702,1.962890625
,38.2819912,2.0458984375
,38.2824591,2.1240234375
,38.2937449,2.20703125
,38.3092276,2.2802734375
,38.3454847,2.34375
,38.37319,2.392578125
,38.3736344,2.431640625
,38.3925897,2.4609375
,38.4265951,2.48046875
,38.4314096,2.4853515625
,38.4656077,2.490234375
,38.4868487,2.4755859375
,38.4872962,2.451171875
,38.5278013,2.4267578125
,38.557928,2.40234375
,38.5583836,2.3779296875
,38.5703626,2.353515625
,38.5923499,2.3291015625
,38.6279013,2.3046875
,38.6331781,2.2802734375
,38.6493755,2.255859375
,38.6863943,2.2314453125
,38.6893168,2.2119140625
,38.7252194,2.1875
,38.7309641,2.16796875
,38.7501665,2.1435546875
,38.7880414,2.1240234375
,38.8198333,2.1044921875
,38.8202801,2.080078125
,38.8288428,2.060546875
,38.8633043,2.0458984375
,38.8829517,2.03125
,38.8907325,2.0166015625
,38.9273957,1.9970703125
,38.9299728,1.9873046875
,38.9779952,1.9775390625
,38.9784417,1.9677734375
,39.0094633,1.9580078125
,39.0137887,1.9482421875
,39.0305526,1.9384765625
,39.0711617,1.9287109375
,39.0716135,1.9287109375
,39.1092139,1.9677734375
,39.1096691,2.03125
,39.1445056,2.109375
,39.1647739,2.1875
,39.1722627,2.255859375
,39.2077984,2.314453125
,39.2297817,2.36328125
,39.2302322,2.40234375
,39.252374,2.431640625
,39.2878619,2.4560546875
,39.2924778,2.4658203125
,39.3293931,2.4658203125
,39.3341193,2.4609375
,39.3692791,2.44140625
,39.3697356,2.4169921875
,39.4101642,2.392578125
,39.4106167,2.3681640625
,39.4312705,2.34375
,39.4729883,2.32421875
,39.4734621,2.2998046875
,39.5032334,2.2802734375
,39.5141151,2.2607421875
,39.5344331,2.236328125
,39.5525561,2.2119140625
,39.5967918,2.1923828125
,39.597331,2.1728515625
,39.6113356,2.1533203125
,39.6488649,2.12890625
,39.6521938,2.109375
,39.6894361,2.08984375
,39.6916311,2.0654296875
,39.7294515,2.0458984375
,39.7343204,2.03125
,39.7717602,2.01171875
,39.7722716,1.9970703125
,39.8073907,1.9873046875
,39.8132515,1.97265625
,39.833299,1.962890625
,39.8764535,1.953125
,39.8768744,1.943359375
,39.9107073,1.9384765625
,39.9141086,1.9482421875
,39.9316305,1.9921875
,39.9702823,2.0654296875
,39.9705879,2.138671875
,40.0155341,2.2216796875
,40.0159798,2.28515625
,40.036039,2.34375
,40.0537434,2.3876953125
,40.0893791,2.421875
,40.1103581,2.4462890625
,40.1109268,2.4658203125
,40.1488645,2.4755859375
,40.1518395,2.4755859375
,40.1734474,2.4658203125
,40.2191449,2.44140625
,40.2195821,2.4169921875
,40.2366226,2.392578125
,40.281835,2.36328125
,40.2822857,2.3388671875
,40.2938305,2.314453125
,40.3120095,2.2900390625
,40.3589989,2.265625
,40.3594449,2.24609375
,40.3723297,2.2216796875
,40.4118267,2.2021484375
,40.4122733,2.177734375
,40.4519125,2.1533203125
,40.4713568,2.1337890625
,40.4756073,2.109375
,40.4909606,2.0849609375
,40.5302881,2.0654296875
,40.5506925,2.0458984375
,40.5522736,2.0263671875
,40.5932493,2.0068359375
,40.6232387,1.9921875
,40.6237119,1.97265625
,40.6337391,1.962890625
,40.6508557,1.9482421875
,40.7014388,1.9384765625
,40.7018969,1.9287109375
,40.7119352,1.9189453125
,40.7489696,1.9091796875
,40.7553151,1.904296875
,40.7939127,1.923828125
,40.7943591,1.9677734375
,40.8310071,2.05078125
,40.8313153,2.12890625
,40.8535198,2.2216796875
,40.8881705,2.2900390625
,40.8942399,2.3583984375
,40.9319998,2.4072265625
,40.9364558,2.451171875
,40.9711935,2.48046875
,40.9740704,2.5
,40.9912953,2.509765625
,41.0257331,2.51953125
,41.0468766,2.509765625
,41.0523122,2.490234375
,41.0880658,2.4658203125
,41.1088523,2.4365234375
,41.1143234,2.40234375
,41.1646585,2.373046875
,41.1653092,2.3486328125
,41.1752432,2.3193359375
,41.2119944,2.294921875
,41.2122951,2.265625
,41.2579998,2.2412109375
,41.2582919,2.216796875
,41.2874591,2.1923828125
,41.2947483,2.16796875
,41.3160915,2.1435546875
,41.353101,2.119140625
,41.3562601,2.0947265625
,41.3922414,2.0703125
,41.3927931,2.0458984375
,41.4281106,2.03125
,41.4560257,2.01171875
,41.4563359,1.9921875
,41.49035,1.9775390625
,41.4960223,1.9580078125
,41.5159102,1.943359375
,41.5354185,1.93359375
,41.5772412,1.9189453125
,41.5778347,1.9091796875
,41.5940924,1.8994140625
,41.6139718,1.8896484375
,41.649342,1.8798828125
,41.6704025,1.89453125
,41.6755243,1.943359375
,41.7151642,2.0166015625
,41.7155254,2.109375
,41.7637195,2.1875
,41.764178,2.2705078125
,41.7742269,2.3291015625
,41.8102596,2.3876953125
,41.8323226,2.421875
,41.8373299,2.4560546875
,41.8851196,2.4755859375
,41.8855675,2.490234375
,41.8982758,2.490234375
,41.9188696,2.4853515625
,41.9343586,2.470703125
,41.982001,2.4462890625
,41.9823025,2.421875
,42.0037841,2.392578125
,42.0169677,2.36328125
,42.0539206,2.3388671875
,42.0544023,2.3095703125
,42.0903712,2.28515625
,42.1101741,2.265625
,42.1130276,2.2412109375
,42.1530169,2.216796875
,42.1737773,2.1923828125
,42.1755353,2.16796875
,42.2155821,2.1435546875
,42.2160413,2.119140625
,42.2617139,2.0947265625
,42.2622323,2.0703125
,42.2737834,2.05078125
,42.3107306,2.03125
,42.3153012,2.01171875
,42.3560149,1.9921875
,42.356472,1.9775390625
,42.3912655,1.9580078125
,42.3971146,1.943359375
,42.4332258,1.93359375
,42.4376622,1.923828125
,42.4537646,1.9140625
,42.4759005,1.9091796875
,42.495268,1.8994140625
,42.5427782,1.8896484375
,42.5432251,1.8896484375
,42.5551784,1.9189453125
,42.5927843,1.9775390625
,42.5988014,2.060546875
,42.6182572,2.1533203125
,42.6523483,2.2314453125
,42.6841824,2.2998046875
,42.684627,2.3583984375
,42.6960899,2.4072265625
,42.7168054,2.4462890625
,42.7519142,2.4755859375
,42.7571919,2.4951171875
,42.7942351,2.5048828125
,42.7986385,2.5
,42.8191537,2.490234375
,42.8348246,2.4658203125
,42.8720942,2.44140625
,42.876451,2.412109375
,42.9117165,2.3828125
,42.9165365,2.353515625
,42.9529996,2.333984375
,42.9580609,2.3095703125
,42.9922895,2.2802734375
,43.0129146,2.255859375
,43.0159717,2.2314453125
,43.0548288,2.2119140625
,43.0552869,2.1875
,43.0920605,2.1630859375
,43.0979125,2.138671875
,43.1493283,2.1142578125
,43.1496145,2.08984375
,43.1577571,2.0654296875
,43.1750598,2.0458984375
,43.2097801,2.0263671875
,43.2154338,1.9970703125
,43.23591,1.982421875
,43.2731285,1.9677734375
,43.2944921,1.9482421875
,43.2971409,1.93359375
,43.3404128,1.923828125
,43.3407377,1.9140625
,43.3695919,1.8994140625
,43.3814457,1.8896484375
,43.3960666,1.875
,43.4465535,1.8701171875
,43.446866,1.8701171875
,43.4576176,1.904296875
,43.4918537,1.97265625
,43.5114725,2.0654296875
,43.5185338,2.1533203125
,43.5701685,2.2412109375
,43.5704714,2.3095703125
,43.5756489,2.373046875
,43.6117063,2.4267578125
,43.6172964,2.4609375
,43.6523047,2.490234375
,43.6716764,2.5048828125
,43.6805852,2.509765625
,43.7008062,2.5048828125
,43.7418093,2.490234375
,43.7422442,2.4658203125
,43.7551775,2.4365234375
,43.792371,2.4072265625
,43.7974198,2.3779296875
,43.8163956,2.3486328125
,43.8528189,2.32421875
,43.8815405,2.2998046875
,43.8818358,2.2705078125
,43.9151097,2.2509765625
,43.9214307,2.2265625
,43.9417804,2.1923828125
,43.9576045,2.1630859375
,44.0066161,2.1484375
,44.0070757,2.12890625
,44.0175236,2.109375
,44.0536303,2.0849609375
,44.0844665,2.0654296875
,44.0849176,2.0458984375
,44.1003826,2.0263671875
,44.1155606,2.0068359375
,44.1496893,1.9921875
,44.1703639,1.9775390625
,44.1787189,1.9677734375
,44.1982758,1.953125
,44.220622,1.943359375
,44.2408046,1.9287109375
,44.2755669,1.9189453125
,44.2819899,1.904296875
,44.2975615,1.8994140625
,44.3466753,1.9287109375
,44.3471656,1.9921875
,44.3590385,2.080078125
,44.3953265,2.1630859375
,44.3996866,2.24609375
,44.4348406,2.3095703125
,44.4403143,2.36328125
,44.4582025,2.4072265625
,44.4769111,2.4462890625
,44.5133438,2.470703125
,44.518675,2.4853515625
,44.5540606,2.490234375
,44.559708,2.4755859375
,44.5816214,2.4560546875
,44.6017028,2.4267578125
,44.6428432,2.3974609375
,44.6437027,2.3681640625
,44.6628724,2.333984375
,44.6793186,2.2998046875
,44.7159091,2.2802734375
,44.7206299,2.2607421875
,44.7655137,2.2412109375
,44.7659842,2.216796875
,44.7811726,2.1923828125
,44.815854,2.1728515625
,44.8209397,2.1630859375
,44.8396301,2.1484375
,44.8761033,2.1337890625
,44.8765174,2.119140625
,44.9127858,2.099609375
,44.9338152,2.080078125
,44.9416435,2.060546875
,44.9867501,2.041015625
,44.9870536,2.0263671875
,45.0014496,2.01171875
,45.0191196,1.9970703125
,45.0629433,1.9873046875
,45.0634029,1.9775390625
,45.0810018,1.962890625
,45.11725,1.953125
,45.1201012,1.943359375
,45.1574411,1.9287109375
,45.1627939,1.93359375
,45.1811853,1.97265625
,45.1977295,2.041015625
,45.234391,2.138671875
,45.2541886,2.2216796875
,45.2598154,2.3095703125
,45.2964665,2.373046875
,45.3014359,2.4365234375
,45.344495,2.48046875
,45.3449407,2.5146484375
,45.3611435,2.5390625
,45.3821793,2.5537109375
,45.3998953,2.5537109375
,45.4360663,2.5537109375
,45.4406846,2.5390625
,45.4616018,2.5146484375
,45.4961999,2.4853515625
,45.5005007,2.4560546875
,45.5429938,2.4267578125
,45.5432969,2.392578125
,45.5646543,2.36328125
,45.5789154,2.333984375
,45.599838,2.3046875
,45.6351569,2.2802734375
,45.6558676,2.2509765625
,45.6627563,2.2216796875
,45.6815398,2.197265625
,45.7309921,2.1728515625
,45.7314652,2.1484375
,45.7601854,2.1240234375
,45.7606491,2.1044921875
,45.7799472,2.0849609375
,45.8148481,2.0654296875
,45.8355554,2.0458984375
,45.8429771,2.0263671875
,45.8617607,2.0068359375
,45.8977142,1.9873046875
,45.9319806,1.9775390625
,45.9324617,1.962890625
,45.9405095,1.953125
,45.9792166,1.943359375
,45.9796774,1.9287109375
,46.0165163,1.9189453125
,46.0218166,1.9091796875
,46.0594843,1.9140625
,46.0624065,1.9580078125
,46.0815453,2.0263671875
,46.1183729,2.1142578125
,46.1186925,2.1923828125
,46.1539102,2.2802734375
,46.1751632,2.353515625
,46.1810991,2.4072265625
,46.229296,2.4560546875
,46.2297444,2.4853515625
,46.2604844,2.509765625
,46.2609316,2.51953125
,46.3071793,2.529296875
,46.3074898,2.51953125
,46.3354555,2.5048828125
,46.3413151,2.48046875
,46.3601667,2.451171875
,46.3824204,2.421875
,46.4292547,2.3974609375
,46.4297238,2.3681640625
,46.444345,2.34375
,46.4652104,2.3193359375
,46.4811449,2.294921875
,46.5227466,2.2705078125
,46.5232094,2.2509765625
,46.5414336,2.2314453125
,46.5773753,2.20703125
,46.5818597,2.1875
,46.6161987,2.1630859375
,46.6377125,2.1435546875
,46.6381676,2.1240234375
,46.6802413,2.1044921875
,46.6810937,2.0849609375
,46.7021987,2.0654296875
,46.7374575,2.05078125
,46.7432982,2.03125
,46.7873764,2.0166015625
,46.7878116,2.0068359375
,46.8329269,1.9970703125
,46.8334203,1.9873046875
,46.8450724,1.97265625
,46.8613977,1.962890625
,46.9087318,1.953125
,46.9091817,1.943359375
,46.9234278,1.9482421875
,46.9592179,1.9873046875
,46.9654308,2.0556640625
,47.0009099,2.1337890625
,47.0032033,2.2119140625
,47.020213,2.2802734375
,47.0633832,2.34375
,47.0637504,2.392578125
,47.111224,2.4365234375
,47.1116851,2.470703125
,47.1236441,2.490234375
,47.1591198,2.5048828125
,47.1647306,2.5048828125
,47.2035214,2.5
,47.2039852,2.4853515625
,47.220585,2.4609375
,47.2586282,2.431640625
,47.2617333,2.40234375
,47.2994555,2.3779296875
,47.3040601,2.3486328125
,47.3457588,2.32421875
,47.3462245,2.2998046875
,47.3623873,2.275390625
,47.3817418,2.2509765625
,47.4212503,2.2314453125
,47.4216833,2.20703125
,47.4572961,2.1875
,47.4862779,2.1630859375
,47.4866291,2.1435546875
,47.5047419,2.1240234375
,47.5427082,2.1044921875
,47.5431564,2.080078125
,47.5780733,2.0654296875
,47.5986821,2.0458984375
,47.6017002,2.03125
,47.6385032,2.0166015625
,47.6436943,2.001953125
,47.6788973,1.9873046875
,47.6846652,1.9775390625
,47.7050883,1.9677734375
,47.7430343,1.9580078125
,47.7453571,1.953125
,47.7622424,1.9384765625
,47.7982039,1.9287109375
,47.8024644,1.9384765625
,47.844033,1.982421875
,47.8445045,2.05078125
,47.8623448,2.1337890625
,47.9002144,2.20703125
,47.9058794,2.275390625
,47.9219695,2.333984375
,47.959607,2.3828125
,47.9626392,2.421875
,47.9992124,2.451171875
,48.0037801,2.4755859375
,48.0388913,2.4853515625
,48.059459,2.4853515625
,48.0669956,2.48046875
,48.0860545,2.4609375
,48.1028274,2.4365234375
,48.1397601,2.412109375
,48.1426015,2.3828125
,48.1636133,2.3583984375
,48.2029429,2.333984375
,48.2033871,2.314453125
,48.2236344,2.2900390625
,48.2454977,2.2705078125
,48.2964491,2.24609375
,48.2970452,2.2216796875
,48.3021201,2.197265625
,48.3382195,2.177734375
,48.3440356,2.158203125
,48.3786675,2.138671875
,48.3834195,2.119140625
,48.4196896,2.099609375
,48.4530689,2.080078125
,48.4535264,2.060546875
,48.4672386,2.0458984375
,48.4820904,2.03125
,48.5153712,2.021484375
,48.5367265,2.01171875
,48.5450854,2.001953125
,48.5646379,1.9921875
,48.6048869,1.982421875
,48.6053337,1.97265625
,48.6258146,1.962890625
,48.6427489,1.97265625
,48.6839683,2.0166015625
,48.684426,2.0751953125
,48.7050861,2.1484375
,48.7245942,2.216796875
,48.7587412,2.275390625
,48.7804746,2.3291015625
,48.7877575,2.3681640625
,48.8062613,2.40234375
,48.8242736,2.4267578125
,48.8734708,2.44140625
,48.8739233,2.451171875
,48.8842469,2.451171875
,48.919215,2.4365234375
,48.9400314,2.412109375
,48.9454226,2.3876953125
,48.9945798,2.3583984375
,48.9948812,2.333984375
,49.0148736,2.3095703125
,49.0269331,2.28515625
,49.0427513,2.2607421875
,49.075488,2.24609375
,49.097969,2.2216796875
,49.105088,2.2021484375
,49.1265643,2.1826171875
,49.1609687,2.1630859375
,49.1669588,2.138671875
,49.1882443,2.119140625
,49.205125,2.0947265625
,49.2411376,2.080078125
,49.2454055,2.060546875
,49.266707,2.0458984375
,49.3061829,2.0263671875
,49.3064997,2.01171875
,49.3533916,1.9970703125
,49.353891,1.9873046875
,49.3683265,1.9775390625
,49.384828,1.962890625
,49.4040258,1.9580078125
,49.4246216,1.9482421875
,49.4778234,1.93359375
,49.4782803,1.923828125
,49.4858076,1.93359375
,49.5212064,1.9677734375
,49.5417387,2.0361328125
,49.5421859,2.109375
,49.5781858,2.1875
,49.5989378,2.2509765625
,49.6063018,2.314453125
,49.6431522,2.3583984375
,49.647921,2.3974609375
,49.6948742,2.431640625
,49.6953313,2.451171875
,49.7090517,2.4658203125
,49.7292545,2.470703125
,49.7658697,2.4658203125
,49.7663201,2.4462890625
,49.7857366,2.431640625
,49.8219265,2.4072265625
,49.8266877,2.3828125
,49.8628939,2.353515625
,49.8673106,2.3291015625
,49.9035373,2.3046875
,49.9071082,2.2802734375
,49.926428,2.255859375
,49.9724482,2.236328125
,49.9728911,2.2119140625
,49.9876059,2.1923828125
,50.007612,2.16796875
,50.0512745,2.1484375
,50.0515984,2.1240234375
,50.0682104,2.1044921875
,50.1060872,2.080078125
,50.1065263,2.060546875
,50.1445701,2.0458984375
,50.1450309,2.03125
,50.1837499,2.0166015625
,50.186603,2.001953125
,50.2241862,1.9873046875
,50.2285109,1.9775390625
,50.2652734,1.962890625
,50.2657959,1.953125
,50.2858182,1.9482421875
,50.3060976,1.9384765625
,50.3274046,1.9287109375
,50.3621891,1.9287109375
,50.3650879,1.9482421875
,50.4027591,2.0068359375
,50.4082669,2.080078125
,50.4553118,2.1630859375
,50.4557677,2.2265625
,50.487431,2.2900390625
,50.4878904,2.3388671875
,50.5066601,2.3876953125
,50.548552,2.421875
,50.5488356,2.4462890625
,50.5674508,2.4658203125
,50.6101479,2.4755859375
,50.6105938,2.4755859375
,50.628947,2.4658203125
,50.6717506,2.451171875
,50.672197,2.4267578125
,50.6859941,2.40234375
,50.7245863,2.3779296875
,50.7316359,2.3486328125
,50.7497917,2.32421875
,50.7843288,2.2998046875
,50.7894533,2.275390625
,50.8244499,2.2509765625
,50.8248624,2.2265625
,50.8578966,2.2021484375
,50.8794305,2.1826171875
,50.889246,2.158203125
,50.9243203,2.1337890625
,50.9265215,2.109375
,50.9660894,2.08984375
,50.9709223,2.0703125
,50.9895019,2.0458984375
,51.0057871,2.0263671875
,51.0406579,2.0166015625
,51.0618458,1.9970703125
,51.0671808,1.982421875
,51.1033995,1.9677734375
,51.1089919,1.9580078125
,51.1466436,1.943359375
,51.1470773,1.93359375
,51.185672,1.9189453125
,51.2156236,1.9091796875
,51.2159166,1.89453125
,51.2263585,1.89453125
,51.2618462,1.9091796875
,51.2826749,1.9677734375
,51.2895098,2.0458984375
,51.3401831,2.1142578125
,51.3406374,2.1875
,51.3511338,2.2412109375
,51.3702821,2.2900390625
,51.3880243,2.3291015625
,51.4348127,2.36328125
,51.4352172,2.3876953125
,51.4488821,2.4072265625
,51.4840153,2.412109375
,51.504267,2.412109375
,51.5101578,2.40234375
,51.547135,2.3828125
,51.5474642,2.3583984375
,51.5827083,2.3291015625
,51.5887898,2.3046875
,51.6077424,2.2802734375
,51.652265,2.255859375
,51.652782,2.236328125
,51.6723233,2.2119140625
,51.6897788,2.1923828125
,51.7243142,2.16796875
,51.7452312,2.1484375
,51.7483721,2.12890625
,51.7953985,2.109375
,51.7958541,2.08984375
,51.825782,2.0703125
,51.8274649,2.05078125
,51.8718772,2.03125
,51.8721827,2.01171875
,51.8917635,1.9921875
,51.9103816,1.97265625
,51.9446695,1.9580078125
,51.9661714,1.9384765625
,51.9690938,1.9287109375
,52.012358,1.9189453125
,52.0128048,1.9091796875
,52.0291224,1.89453125
,52.0665144,1.884765625
,52.0693559,1.875
,52.1064248,1.865234375
,52.1093441,1.875
,52.1456483,1.9287109375
,52.148057,1.9970703125
,52.1829762,2.0751953125
,52.204016,2.1435546875
,52.2101556,2.2021484375
,52.2461526,2.2509765625
,52.2523432,2.2900390625
,52.2887363,2.3193359375
,52.289186,2.3388671875
,52.3251939,2.353515625
,52.3299228,2.36328125
,52.3492758,2.36328125
,52.3865696,2.3486328125
,52.3899047,2.3291015625
,52.4343595,2.2998046875
,52.4348173,2.275390625
,52.4465807,2.2509765625
,52.4962432,2.2265625
,52.4966897,2.2021484375
,52.5276764,2.1826171875
,52.5280448,2.1630859375
,52.5756393,2.1435546875
,52.5760021,2.1240234375
,52.6060002,2.1044921875
,52.6127825,2.080078125
,52.6479266,2.060546875
,52.6536354,2.0361328125
,52.6682915,2.0166015625
,52.7151814,2.001953125
,52.7155942,1.982421875
,52.7297365,1.9677734375
,52.7662223,1.953125
,52.7737477,1.93359375
,52.7928178,1.9189453125
,52.8356292,1.9091796875
,52.8359527,1.8994140625
,52.8477477,1.8896484375
,52.8858658,1.8798828125
,52.9065282,1.8701171875
,52.9112274,1.8701171875
,52.9588657,1.884765625
,52.9591862,1.9384765625
,52.9726316,2.0068359375
,53.0086162,2.080078125
,53.0090614,2.1435546875
,53.0515224,2.2021484375
,53.0519148,2.255859375
,53.086435,2.2998046875
,53.0923692,2.3291015625
,53.1295908,2.353515625
,53.1298892,2.373046875
,53.1782393,2.3828125
,53.1787157,2.3779296875
,53.1887041,2.373046875
,53.214778,2.353515625
,53.2301573,2.32421875
,53.2654744,2.3046875
,53.2713045,2.28515625
,53.3076496,2.2607421875
,53.3133691,2.2412109375
,53.3486313,2.2216796875
,53.3534186,2.197265625
,53.3950754,2.1826171875
,53.3955089,2.158203125
,53.4100349,2.1435546875
,53.4306965,2.1240234375
,53.4739455,2.109375
,53.4743775,2.08984375
,53.4910613,2.0751953125
,53.5124302,2.0556640625
,53.5333914,2.041015625
,53.5825945,2.021484375
,53.5829829,2.0068359375
,53.5902248,1.9970703125
,53.6264835,1.9873046875
,53.6310867,1.9775390625
,53.6686922,1.9677734375
,53.6716607,1.962890625
,53.7253945,1.9482421875
,53.7258371,1.943359375
,53.7284829,1.93359375
,53.7656362,1.93359375
,53.7712165,1.9580078125
,53.7920788,2.01171875
,53.8266298,2.080078125
,53.8317016,2.1533203125
,53.8681559,2.2216796875
,53.8740326,2.275390625
,53.9119656,2.3291015625
,53.9124646,2.3681640625
,53.9358786,2.4072265625
,53.9519972,2.4267578125
,53.9901316,2.451171875
,53.9905878,2.4609375
,54.0126019,2.4658203125
,54.0496286,2.4560546875
,54.0519651,2.44140625
,54.0723874,2.4169921875
,54.1092029,2.392578125
,54.1095049,2.36328125
,54.1303753,2.34375
,54.167486,2.3193359375
,54.1927596,2.294921875
,54.1931394,2.2705078125
,54.2126058,2.24609375
,54.2564569,2.2265625
,54.2569164,2.20703125
,54.275779,2.1875
,54.2901136,2.1630859375
,54.3293068,2.1484375
,54.3297568,2.1240234375
,54.3652325,2.109375
,54.3868585,2.08984375
,54.392278,2.0703125
,54.4409824,2.05078125
,54.4414288,2.0361328125
,54.4605454,2.021484375
,54.4725814,2.01171875
,54.4920842,2.001953125
,54.5264572,1.9873046875
,54.5314765,1.9775390625
,54.5800727,1.9677734375
,54.5805217,1.9580078125
,54.5946706,1.943359375
,54.6432855,1.943359375
,54.6435901,1.962890625
,54.6536353,2.0166015625
,54.6729002,2.0703125
,54.7209874,2.1484375
,54.721432,2.216796875
,54.7341312,2.2802734375
,54.7837311,2.333984375
,54.7845275,2.3779296875
,54.7944594,2.4169921875
,54.8324097,2.4462890625
,54.8369565,2.4658203125
,54.853261,2.4755859375
,54.8876613,2.4853515625
,54.8932552,2.4755859375
,54.9268936,2.4560546875
,54.9479304,2.431640625
,54.9552358,2.40234375
,54.9754954,2.373046875
,55.0105143,2.34375
,55.0109259,2.314453125
,55.0307742,2.294921875
,55.0689884,2.2705078125
,55.0719674,2.24609375
,55.1066216,2.2216796875
,55.1277895,2.2021484375
,55.1358712,2.177734375
,55.1552603,2.1484375
,55.1906051,2.1240234375
,55.1909035,2.1044921875
,55.2345021,2.080078125
,55.2349717,2.060546875
,55.2651381,2.041015625
,55.2736461,2.0263671875
,55.3117422,2.0068359375
,55.3325496,1.9873046875
,55.335161,1.97265625
,55.3524655,1.9580078125
,55.3904278,1.9482421875
,55.3908735,1.9287109375
,55.425966,1.923828125
,55.4465687,1.9140625
,55.4540697,1.904296875
,55.4897381,1.89453125
,55.4952319,1.8896484375
,55.514796,1.9091796875
,55.5478976,1.953125
,55.5685913,2.021484375
,55.5742207,2.08984375
,55.5938357,2.16796875
,55.6287637,2.2314453125
,55.6358732,2.2900390625
,55.6554901,2.333984375
,55.7001569,2.373046875
,55.7006285,2.40234375
,55.7167612,2.4267578125
,55.7329955,2.4365234375
,55.7538447,2.4462890625
,55.7898218,2.44140625
,55.7930032,2.421875
,55.8350904,2.3974609375
,55.8354911,2.3681640625
,55.8554033,2.3388671875
,55.8763507,2.3095703125
,55.9116318,2.28515625
,55.9119359,2.2607421875
,55.9594231,2.236328125
,55.9597853,2.2119140625
,55.9906614,2.1875
,55.9954678,2.1630859375
,56.038015,2.1435546875
,56.0383941,2.119140625
,56.0570891,2.0947265625
,56.0914982,2.0703125
,56.0965137,2.05078125
,56.1186009,2.0166015625
,56.1344996,1.9921875
,56.154373,1.982421875
,56.1887716,1.9677734375
,56.2095162,1.953125
,56.2151423,1.9384765625
,56.2375628,1.9287109375
,56.2727216,1.9140625
,56.2755294,1.904296875
,56.293252,1.89453125
,56.3288534,1.884765625
,56.3501678,1.875
,56.3548976,1.865234375
,56.3912263,1.8603515625
,56.4239328,1.89453125
,56.424367,1.9580078125
,56.4369804,2.0263671875
,56.4576621,2.099609375
,56.4755843,2.1630859375
,56.5116979,2.2265625
,56.5147489,2.2802734375
,56.5499756,2.32421875
,56.5791508,2.353515625
,56.5795989,2.3779296875
,56.5950281,2.392578125
,56.6312888,2.3974609375
,56.6317545,2.392578125
,56.6674347,2.3779296875
,56.6889298,2.353515625
,56.6951891,2.32421875
,56.7361742,2.2998046875
,56.7366229,2.275390625
,56.7670239,2.2509765625
,56.776527,2.2314453125
,56.8140127,2.2119140625
,56.8441234,2.1923828125
,56.8446587,2.158203125
,56.8563429,2.12890625
,56.8760559,2.1142578125
,56.9218708,2.099609375
,56.9223207,2.080078125
,56.9377755,2.060546875
,56.9739637,2.041015625
,56.9773334,2.021484375
,56.9991557,2.0068359375
,57.0146536,1.9873046875
,57.0633273,1.9775390625
,57.06379,1.9677734375
,57.0763951,1.953125
,57.1233275,1.9384765625
,57.1237697,1.9287109375
,57.1448364,1.93359375
,57.1593255,1.962890625
,57.2026002,2.021484375
,57.2030498,2.080078125
,57.2167074,2.1484375
,57.2527338,2.20703125
,57.2558599,2.265625
,57.2963086,2.3095703125
,57.2967567,2.353515625
,57.3413771,2.3828125
,57.3416686,2.40234375
,57.3578995,2.4169921875
,57.3746209,2.4169921875
,57.4110869,2.4072265625
,57.4163383,2.3876953125
,57.4642914,2.36328125
,57.4646918,2.333984375
,57.4790373,2.3095703125
,57.4985346,2.2802734375
,57.5321905,2.255859375
,57.5371902,2.2314453125
,57.5726427,2.2021484375
,57.5924828,2.177734375
,57.5940709,2.158203125
,57.637062,2.138671875
,57.6374945,2.119140625
,57.6581051,2.0947265625
,57.7027347,2.0751953125
,57.7032081,2.05078125
,57.7195782,2.03125
,57.7390911,2.0068359375
,57.7565354,1.9873046875
,57.7949146,1.97265625
,57.8151697,1.953125
,57.818029,1.9384765625
,57.8376212,1.923828125
,57.8895227,1.9091796875
,57.8899828,1.89453125
,57.8991408,1.884765625
,57.914584,1.8701171875
,57.9509204,1.865234375
,57.9556004,1.8603515625
,58.000178,1.8505859375
,58.0006084,1.8408203125
,58.0183265,1.8359375
,58.0524194,1.845703125
,58.0740954,1.8896484375
,58.0794994,1.962890625
,58.0971966,2.0458984375
,58.1385502,2.12890625
,58.1389363,2.20703125
,58.1566823,2.275390625
,58.1922522,2.333984375
,58.2129159,2.3828125
,58.2182805,2.4169921875
,58.2628411,2.4462890625
,58.2632104,2.4658203125
,58.2810423,2.470703125
,58.2980843,2.470703125
,58.3185811,2.4658203125
,58.35738,2.4462890625
,58.3576698,2.421875
,58.4041789,2.392578125
,58.4045988,2.36328125
,58.4179002,2.3388671875
,58.4551549,2.3095703125
,58.4612046,2.28515625
,58.4773737,2.2607421875
,58.5147737,2.236328125
,58.5178289,2.2119140625
,58.5387256,2.1875
,58.5761396,2.1630859375
,58.5808537,2.138671875
,58.5994178,2.1142578125
,58.6200079,2.08984375
,58.6545596,2.0654296875
,58.656344,2.041015625
,58.6954264,2.021484375
,58.6958778,2.001953125
,58.7321653,1.9873046875
,58.7539063,1.97265625
,58.7590343,1.9580078125
,58.7808272,1.943359375
,58.8015771,1.9287109375
,58.8165742,1.9189453125
,58.8371932,1.9091796875
,58.8847745,1.8994140625
,58.8852257,1.8896484375
,58.8989155,1.8896484375
,58.9483166,1.9189453125
,58.9486583,1.97265625
,58.9606054,2.05078125
,59.0096103,2.12890625
,59.0099159,2.197265625
,59.0208897,2.2607421875
,59.0377129,2.3095703125
,59.0748251,2.3583984375
,59.0790924,2.3974609375
,59.0993949,2.4267578125
,59.1375108,2.44140625
,59.1378621,2.451171875
,59.1833027,2.451171875
,59.1837516,2.44140625
,59.2140487,2.421875
,59.2186217,2.3974609375
,59.259374,2.373046875
,59.2596623,2.3486328125
,59.2808721,2.3193359375
,59.2994557,2.294921875
,59.3529241,2.2705078125
,59.3533827,2.2509765625
,59.3614262,2.2314453125
,59.3781204,2.20703125
,59.4156577,2.1875
,59.4206304,2.1630859375
,59.4400014,2.1435546875
,59.4745575,2.119140625
,59.4788594,2.1044921875
,59.5246697,2.080078125
,59.5251208,2.060546875
,59.5554798,2.041015625
,59.5559429,2.0263671875
,59.5801122,2.0068359375
,59.6075191,1.9970703125
,59.6206384,1.982421875
,59.6572458,1.9677734375
,59.6619648,1.953125
,59.6812075,1.943359375
,59.7031065,1.93359375
,59.7217441,1.9189453125
,59.7443308,1.9091796875
,59.7599878,1.8994140625
,59.8083046,1.9140625
,59.8086122,1.9580078125
,59.8215544,2.0263671875
,59.8404587,2.099609375
,59.8775076,2.1728515625
,59.8811368,2.2412109375
,59.9025566,2.2998046875
,59.9381257,2.3486328125
,59.93847,2.3828125
,59.9752621,2.4169921875
,60.003318,2.4365234375
,60.0038268,2.451171875
,60.0222556,2.4560546875
,60.0670324,2.4462890625
,60.0674799,2.4267578125
,60.0814521,2.40234375
,60.0983639,2.3779296875
,60.1351043,2.353515625
,60.1395212,2.32421875
,60.1741458,2.3046875
,60.1957218,2.2802734375
,60.2006947,2.255859375
,60.2220007,2.2314453125
,60.2436384,2.2119140625
,60.2619527,2.1875
,60.2784821,2.16796875
,60.3163917,2.1484375
,60.3193473,2.12890625
,60.3565187,2.109375
,60.3598137,2.08984375
,60.3966681,2.0703125
,60.4013351,2.05078125
,60.4385432,2.0361328125
,60.4406999,2.0166015625
,60.4783248,2.001953125
,60.4786288,1.9873046875
,60.5136004,1.9775390625
,60.534581,1.9677734375
,60.5428872,1.9580078125
,60.5610442,1.9482421875
,60.5967711,1.93359375
,60.6173977,1.923828125
,60.6240448,1.9091796875
,60.6610727,1.923828125
,60.6615329,1.9580078125
,60.6806477,2.03125
,60.7215387,2.1044921875
,60.7219933,2.1826171875
,60.7419362,2.24609375
,60.7772667,2.3095703125
,60.7979237,2.353515625
,60.8027186,2.392578125
,60.8190214,2.421875
,60.858046,2.44140625
,60.8659102,2.451171875
,60.8824073,2.4609375
,60.9225599,2.451171875
,60.9230167,2.431640625
,60.9588773,2.4072265625
,60.9614677,2.3828125
,60.9975541,2.36328125
,61.0187265,2.34375
,61.0216012,2.3291015625
,61.0423948,2.3095703125
,61.0628813,2.2900390625
,61.0829134,2.2705078125
,61.1031681,2.2509765625
,61.125499,2.2265625
,61.1457608,2.20703125
,61.1633831,2.1875
,61.1859099,2.1630859375
,61.205368,2.1435546875
,61.2217611,2.1240234375
,61.2619725,2.1044921875
,61.2622757,2.0849609375
,61.2971749,2.0703125
,61.3028121,2.0556640625
,61.3427232,2.041015625
,61.3430884,2.03125
,61.3875551,2.0166015625
,61.3879176,2.0068359375
,61.4014472,2.001953125
,61.4365111,1.9873046875
,61.4656729,1.982421875
,61.4661223,1.9873046875
,61.4841605,2.0263671875
,61.5185441,2.080078125
,61.5248343,2.158203125
,61.5595047,2.2314453125
,61.5597935,2.294921875
,61.5970605,2.353515625
,61.6031388,2.3974609375
,61.6382598,2.4365234375
,61.6434569,2.4658203125
,61.6797416,2.4853515625
,61.6829215,2.4951171875
,61.7306203,2.4951171875
,61.7310813,2.4853515625
,61.7519346,2.4658203125
,61.7617402,2.44140625
,61.7824403,2.412109375
,61.8171564,2.3876953125
,61.8230024,2.3583984375
,61.8713639,2.333984375
,61.8721154,2.3095703125
,61.9008486,2.28515625
,61.9036537,2.2607421875
,61.9405486,2.236328125
,61.9409951,2.2119140625
,61.9606652,2.1923828125
,61.9986997,2.16796875
,62.0267367,2.1484375
,62.0272044,2.1240234375
,62.0446197,2.1044921875
,62.0644918,2.080078125
,62.103213999999994,2.060546875
,62.103573600000004,2.041015625
,62.121977799999996,2.0263671875
,62.15784119999999,2.01171875
,62.1804542,2.001953125
,62.1837237,1.9921875
,62.21904549999999,1.9775390625
,62.2252014,1.9677734375
,62.261323000000004,1.9580078125
,62.2644495,1.9482421875
,62.2829495,1.943359375
,62.3191788,1.9775390625
,62.3232263,2.0361328125
,62.3674602,2.1142578125
,62.3679059,2.1923828125
,62.385021800000004,2.265625
,62.4046307,2.3291015625
,62.440862499999994,2.392578125
,62.4413017,2.4365234375
,62.476678899999996,2.4755859375
,62.497048500000005,2.509765625
,62.502481200000005,2.529296875
,62.5228614,2.5390625
,62.5712884,2.5439453125
,62.5716116,2.529296875
,62.591695200000004,2.509765625
,62.604478900000004,2.48046875
,62.6400845,2.451171875
,62.661224000000004,2.4169921875
,62.661836199999996,2.3876953125
,62.710361199999994,2.36328125
,62.7107209,2.333984375
,62.739060699999996,2.3095703125
,62.7437908,2.2802734375
,62.7861518,2.255859375
,62.786518599999994,2.2265625
,62.8219905,2.2021484375
,62.8265327,2.177734375
,62.840932800000004,2.158203125
,62.888139800000005,2.138671875
,62.8890037,2.119140625
,62.908834999999996,2.0947265625
,62.9267066,2.0751953125
,62.946748799999995,2.0556640625
,62.9982014,2.041015625
,62.998507000000004,2.0263671875
,63.002891000000005,2.01171875
,63.0441795,2.001953125
,63.0446774,1.9921875
,63.0915753,1.9873046875
,63.0920289,1.97265625
,63.10423230000001,1.9677734375
,63.1536031,1.962890625
,63.15398020000001,1.982421875
,63.1663362,2.041015625
,63.183411899999996,2.109375
,63.220053500000006,2.197265625
,63.223275,2.2705078125
,63.2600633,2.333984375
,63.26478590000001,2.3876953125
,63.3081691,2.4365234375
,63.308616,2.470703125
,63.3266232,2.5
,63.372073099999994,2.5146484375
,63.3725403,2.5244140625
,63.3810191,2.5244140625
,63.4192328,2.5146484375
,63.447831199999996,2.4951171875
,63.448289900000006,2.470703125
,63.4654627,2.44140625
,63.50068280000001,2.412109375
,63.5052702,2.3828125
,63.540573800000004,2.3583984375
,63.5615054,2.333984375
,63.5618154,2.3095703125
,63.5955543,2.2900390625
,63.617298700000006,2.265625
,63.6269336,2.2412109375
,63.646810900000006,2.216796875
,63.666559199999995,2.1923828125
,63.709582999999995,2.16796875
,63.70988800000001,2.1484375
,63.7222314,2.12890625
,63.77319919999999,2.109375
,63.773636100000004,2.0947265625
,63.802833899999996,2.0751953125
,63.8031591,2.0556640625
,63.8510251,2.041015625
,63.85147550000001,2.0263671875
,63.865211200000005,2.01171875
,63.902254600000006,2.001953125
,63.9030992,1.9873046875
,63.924142399999994,1.9775390625
,63.974391100000005,1.9677734375
,63.9748888,1.9580078125
,63.9864566,1.9677734375
,64.037315,2.0068359375
,64.0377611,2.0703125
,64.0482046,2.1533203125
,64.0847139,2.2216796875
,64.09004,2.2900390625
,64.1081388,2.3486328125
,64.1260868,2.3974609375
,64.1617859,2.4365234375
,64.1638149,2.4658203125
,64.2087099,2.490234375
,64.209156,2.5
,64.2402344,2.5048828125
,64.2473198,2.4951171875
,64.2695502,2.48046875
,64.2852194,2.451171875
,64.3201183,2.4267578125
,64.3251357,2.40234375
,64.364393,2.373046875
,64.3648082,2.3486328125
,64.398782,2.32421875
,64.4202321,2.2998046875
,64.4284563,2.275390625
,64.4481656,2.2509765625
,64.4658268,2.2265625
,64.5016832,2.20703125
,64.5047713,2.1875
,64.5485713,2.1630859375
,64.5488592,2.1435546875
,64.5690416,2.119140625
,64.5885315,2.099609375
,64.6088849,2.080078125
,64.6247298,2.060546875
,64.6590338,2.0458984375
,64.6807329,2.03125
,64.6860042,2.0166015625
,64.7057183,2.001953125
,64.7518932,1.9970703125
,64.752356,1.982421875
,64.7670664,1.97265625
,64.8133787,1.9677734375
,64.8137255,1.9580078125
,64.8302867,1.9482421875
,64.8462682,1.953125
,64.880492,1.9970703125
,64.8860889,2.0654296875
,64.9046618,2.1435546875
,64.9266285,2.216796875
,64.959852,2.28515625
,64.9810908,2.3388671875
,64.9882083,2.392578125
,65.00518,2.431640625
,65.041038,2.4658203125
,65.0466637,2.490234375
,65.0830815,2.5
,65.0859954,2.5048828125
,65.1223837,2.4951171875
,65.1279296,2.4755859375
,65.1702164,2.451171875
,65.170525,2.4267578125
,65.1862451,2.3974609375
,65.2044959,2.373046875
,65.2453172,2.3486328125
,65.2456443,2.3291015625
,65.2659978,2.3046875
,65.3018557,2.2802734375
,65.3248862,2.2607421875
,65.3295357,2.236328125
,65.3459945,2.2119140625
,65.382789,2.1923828125
,65.3913517,2.177734375
,65.4059869,2.1435546875
,65.4464491,2.1240234375
,65.4470415,2.109375
,65.4670721,2.08984375
,65.4891378,2.0703125
,65.5225136,2.0556640625
,65.5436701,2.041015625
,65.5509391,2.03125
,65.5672335,2.0166015625
,65.6029653,2.01171875
,65.6080421,2.001953125
,65.6484469,1.9921875
,65.6488894,1.982421875
,65.6960923,1.9775390625
,65.6965509,2.001953125
,65.7099987,2.0458984375
,65.7469526,2.119140625
,65.7474097,2.1875
,65.7833968,2.2607421875
,65.7865524,2.3193359375
,65.8369914,2.373046875
,65.8374535,2.412109375
,65.850102,2.4462890625
,65.8995789,2.4658203125
,65.8998844,2.4853515625
,65.9324201,2.490234375
,65.9332277,2.490234375
,65.9486252,2.4755859375
,65.9674376,2.451171875
,66.0048302,2.421875
,66.0080042,2.3974609375
,66.0457115,2.373046875
,66.0505215,2.3486328125
,66.0869781,2.3193359375
,66.0872913,2.294921875
,66.1214989,2.275390625
,66.1272279,2.2412109375
,66.1652359,2.2216796875
,66.1682702,2.2021484375
,66.2115914,2.1826171875
,66.2120836,2.158203125
,66.2300159,2.1337890625
,66.2746532,2.1142578125
,66.2751018,2.0947265625
,66.2957906,2.0703125
,66.3091236,2.0556640625
,66.3288656,2.041015625
,66.3666842,2.021484375
,66.369379,2.01171875
,66.4132565,1.9970703125
,66.4136933,1.982421875
,66.4336925,1.97265625
,66.4499125,1.962890625
,66.4691958,1.943359375
,66.4889886,1.9384765625
,66.5361524,1.9384765625
,66.5366003,1.9775390625
,66.5577094,2.0361328125
,66.570886,2.1142578125
,66.6152644,2.1875
,66.6157154,2.2607421875
,66.6287613,2.3193359375
,66.6627546,2.3828125
,66.6684963,2.431640625
,66.7066791,2.470703125
,66.7092237,2.5048828125
,66.7466743,2.5244140625
,66.7500393,2.5341796875
,66.7851254,2.5341796875
,66.8057967,2.5244140625
,66.811961,2.5
,66.8328964,2.4658203125
,66.8484708,2.4267578125
,66.8949867,2.3974609375
,66.8954131,2.373046875
,66.9164075,2.3486328125
,66.9312663,2.3193359375
,66.9658465,2.2900390625
,66.9710955,2.2607421875
,67.0053693,2.2314453125
,67.0260354,2.2021484375
,67.0281619,2.1826171875
,67.0494668,2.16796875
,67.0844804,2.1484375
,67.1058979,2.1337890625
,67.1105232,2.1142578125
,67.1619096,2.0947265625
,67.1623821,2.0751953125
,67.1718644,2.0556640625
,67.1890035,2.0361328125
,67.2386571,2.021484375
,67.2391601,2.01171875
,67.2508253,1.9970703125
,67.2718685,1.982421875
,67.3161301,1.97265625
,67.3165007,1.962890625
,67.3316271,1.953125
,67.3786972,1.9482421875
,67.3789807,1.962890625
,67.4000784,2.0166015625
,67.4101791,2.0849609375
,67.4568058,2.1630859375
,67.4572505,2.236328125
,67.4696935,2.3046875
,67.5052098,2.3583984375
,67.5382262,2.4072265625
,67.5386754,2.4462890625
,67.5535051,2.4755859375
,67.5700723,2.490234375
,67.6138048,2.509765625
,67.614096,2.51953125
,67.6303404,2.509765625
,67.6514761,2.490234375
,67.6849928,2.4609375
,67.7069875,2.431640625
,67.7149366,2.40234375
,67.733342,2.3681640625
,67.7502642,2.3388671875
,67.7848756,2.314453125
,67.7893967,2.28515625
,67.8241933,2.2607421875
,67.8445119,2.236328125
,67.8523386,2.2119140625
,67.8930801,2.1875
,67.8935106,2.158203125
,67.9085735,2.1337890625
,67.9457019,2.109375
,67.9501599,2.08984375
,67.9859174,2.0654296875
,68.0219009,2.0458984375
,68.0223504,2.0263671875
,68.0323361,2.001953125
,68.0671629,1.9873046875
,68.0721916,1.97265625
,68.1124935,1.9580078125
,68.1129363,1.9482421875
,68.1289209,1.93359375
,68.1677743,1.9189453125
,68.1707336,1.9091796875
,68.2073506,1.89453125
,68.237469,1.884765625
,68.2379339,1.8994140625
,68.2528892,1.9482421875
,68.2749241,2.0166015625
,68.3158992,2.08984375
,68.3161932,2.1630859375
,68.3310541,2.2314453125
,68.3663233,2.2900390625
,68.3873863,2.3388671875
,68.3924593,2.373046875
,68.4269375,2.4072265625
,68.4474192,2.4267578125
,68.4531123,2.44140625
,68.4869061,2.44140625
,68.4903695,2.4365234375
,68.5351672,2.4169921875
,68.5354732,2.392578125
,68.5526409,2.36328125
,68.5880458,2.333984375
,68.611255,2.3095703125
,68.6116871,2.2802734375
,68.6590536,2.2607421875
,68.6593576,2.236328125
,68.6894147,2.216796875
,68.6897166,2.197265625
,68.7244354,2.177734375
,68.7461236,2.1533203125
,68.7533611,2.1337890625
,68.7993346,2.109375
,68.7997822,2.08984375
,68.8094605,2.0703125
,68.8464257,2.0556640625
,68.851461,2.0361328125
,68.8931887,2.0166015625
,68.8936314,2.001953125
,68.9123841,1.9873046875
,68.9458196,1.97265625
,68.9674493,1.962890625
,68.9745832,1.953125
,68.9939075,1.9384765625
,69.0164768,1.9189453125
,69.032224,1.9091796875
,69.0672514,1.904296875
,69.072728,1.9189453125
,69.1079964,1.97265625
,69.1137276,2.0361328125
,69.1488607,2.109375
,69.1547114,2.1728515625
,69.1886217,2.2314453125
,69.2101308,2.275390625
,69.2104329,2.3193359375
,69.249224,2.3583984375
,69.2697195,2.3828125
,69.2726075,2.3974609375
,69.3126211,2.40234375
,69.3130794,2.40234375
,69.3501338,2.3876953125
,69.3761778,2.36328125
,69.3766279,2.3388671875
,69.3909443,2.314453125
,69.4264614,2.28515625
,69.448205,2.2607421875
,69.4534863,2.236328125
,69.4988111,2.216796875
,69.4991,2.1923828125
,69.512619,2.1728515625
,69.561718,2.1484375
,69.562024,2.1240234375
,69.5916425,2.109375
,69.5919425,2.08984375
,69.6253089,2.0703125
,69.6460643,2.05078125
,69.6563527,2.0361328125
,69.6748927,2.0166015625
,69.7104451,1.9970703125
,69.7324731,1.9775390625
,69.7355148,1.9580078125
,69.7535896,1.943359375
,69.7954488,1.9384765625
,69.7958987,1.9287109375
,69.8133326,1.9189453125
,69.8349044,1.9091796875
,69.8543021,1.8994140625
,69.8904782,1.89453125
,69.8967284,1.89453125
,69.9160194,1.93359375
,69.9320306,1.9970703125
,69.9675567,2.0703125
,69.988354,2.1435546875
,69.993603,2.20703125
,70.0151961,2.2607421875
,70.0367634,2.3095703125
,70.0713705,2.34375
,70.0738005,2.3779296875
,70.0920342,2.3974609375
,70.1284216,2.4169921875
,70.1340861,2.421875
,70.1861458,2.4169921875
,70.1866027,2.40234375
,70.1944836,2.3779296875
,70.2307783,2.353515625
,70.2340086,2.32421875
,70.2694195,2.294921875
,70.2901264,2.2705078125
,70.2930409,2.2509765625
,70.3284388,2.2265625
,70.3343994,2.2021484375
,70.3703399,2.177734375
,70.3725618,2.158203125
,70.4067006,2.1337890625
,70.4350602,2.1142578125
,70.4355106,2.0947265625
,70.4799729,2.0654296875
,70.4804089,2.0458984375
,70.493183,2.03125
,70.5434215,2.0166015625
,70.543933,2.001953125
,70.5555644,1.9873046875
,70.5919462,1.97265625
,70.5968182,1.9580078125
,70.6307867,1.943359375
,70.6377082,1.93359375
,70.6535753,1.923828125
,70.6891076,1.9140625
,70.6940133,1.904296875
,70.729976,1.8994140625
,70.7354566,1.8994140625
,70.7705161,1.93359375
,70.77546,1.9873046875
,70.8123624,2.0654296875
,70.8158926,2.138671875
,70.8337036,2.2021484375
,70.8863183,2.265625
,70.8866214,2.314453125
,70.8950444,2.36328125
,70.9155974,2.3974609375
,70.9584245,2.421875
,70.9716479,2.4365234375
,70.9767368,2.4462890625
,70.9929674,2.44140625
,71.0138903,2.431640625
,71.0490478,2.412109375
,71.0567105,2.3828125
,71.077311,2.353515625
,71.0961205,2.32421875
,71.1159179,2.294921875
,71.1625078,2.275390625
,71.1628655,2.2509765625
,71.1786033,2.2314453125
,71.2002894,2.20703125
,71.2165927,2.1826171875
,71.2350714,2.1630859375
,71.2735016,2.1435546875
,71.2764967,2.119140625
,71.317344,2.099609375
,71.3177882,2.080078125
,71.3385587,2.0556640625
,71.3585082,2.0361328125
,71.3744504,2.0166015625
,71.4096245,2.001953125
,71.4147726,1.9921875
,71.4483437,1.9775390625
,71.4693347,1.9677734375
,71.4764793,1.953125
,71.516095,1.9384765625
,71.5165044,1.923828125
,71.562327,1.9189453125
,71.5627689,1.904296875
,71.5767218,1.89453125
,71.5969836,1.8994140625
,71.6164017,1.93359375
,71.6520011,1.9970703125
,71.6576487,2.080078125
,71.7023126,2.1484375
,71.7026239,2.216796875
,71.7147327,2.2705078125
,71.7501739,2.32421875
,71.7561596,2.3583984375
,71.7972036,2.3876953125
,71.7976479,2.412109375
,71.8169866,2.421875
,71.8377469,2.4267578125
,71.8568256,2.4169921875
,71.89174,2.40234375
,71.9219929,2.373046875
,71.9224405,2.3486328125
,71.9351507,2.3193359375
,71.9708561,2.2900390625
,71.9771406,2.265625
,72.0146139,2.2412109375
,72.0344251,2.216796875
,72.0360435,2.197265625
,72.077245,2.1728515625
,72.0778796,2.1484375
,72.099101,2.12890625
,72.1164845,2.109375
,72.1561811,2.08984375
,72.1566274,2.0703125
,72.1899527,2.05078125
,72.2111223,2.03125
,72.2167014,2.0166015625
,72.2531083,1.9970703125
,72.2812187,1.982421875
,72.2815226,1.9677734375
,72.2952881,1.9580078125
,72.3300478,1.943359375
,72.3507839,1.93359375
,72.3561609,1.923828125
,72.3905855,1.9140625
,72.4113873,1.8994140625
,72.4167311,1.89453125
,72.4685565,1.884765625
,72.4690173,1.89453125
,72.4741526,1.943359375
,72.5088335,2.01171875
,72.5295511,2.08984375
,72.5380607,2.158203125
,72.5778065,2.2216796875
,72.5782709,2.275390625
,72.6140562,2.3193359375
,72.6203755,2.3486328125
,72.6392638,2.373046875
,72.6563867,2.3876953125
,72.6936654,2.3974609375
,72.6982367,2.3974609375
,72.7486868,2.3828125
,72.7489978,2.36328125
,72.7590252,2.3388671875
,72.8102682,2.3095703125
,72.8107223,2.2802734375
,72.8214511,2.255859375
,72.8369847,2.2314453125
,72.8724002,2.2119140625
,72.8777174,2.1923828125
,72.9171325,2.1728515625
,72.9175782,2.1533203125
,72.9555723,2.1337890625
,72.9603344,2.1142578125
,72.9812328,2.0947265625
,72.9968953,2.0751953125
,73.0400513,2.060546875
,73.0403548,2.0458984375
,73.0573123,2.0263671875
,73.0926378,2.01171875
,73.0980674,1.9921875
,73.1339523,1.9775390625
,73.1399665,1.962890625
,73.1759562,1.953125
,73.1764052,1.943359375
,73.1949464,1.9384765625
,73.2433721,1.9287109375
,73.2437919,1.923828125
,73.2626399,1.9140625
,73.2796884,1.923828125
,73.3208326,1.9677734375
,73.3211606,2.03125
,73.3561177,2.099609375
,73.3603687,2.16796875
,73.3818478,2.2265625
,73.3987491,2.2705078125
,73.4445375,2.314453125
,73.4449714,2.34375
,73.4582967,2.3681640625
,73.5073654,2.3779296875
,73.5076793,2.3876953125
,73.5282249,2.3779296875
,73.5417452,2.3681640625
,73.557154,2.34375
,73.6026681,2.3193359375
,73.6031251,2.294921875
,73.6175069,2.2705078125
,73.6546699,2.24609375
,73.6595528,2.2265625
,73.7108057,2.2021484375
,73.711089,2.1875
,73.7224211,2.16796875
,73.7379116,2.1484375
,73.772754,2.12890625
,73.777364,2.1142578125
,73.813866,2.0947265625
,73.8351117,2.0751953125
,73.8409551,2.060546875
,73.8612869,2.041015625
,73.911251,2.021484375
,73.911546,2.0068359375
,73.9163626,1.9970703125
,73.954442,1.982421875
,73.9576502,1.97265625
,73.9943659,1.962890625
,73.9993209,1.953125
,74.0366049,1.943359375
,74.0576709,1.93359375
,74.0605258,1.923828125
,74.0978689,1.9189453125
,74.1052758,1.93359375
,74.1196139,1.9775390625
,74.1386712,2.05078125
,74.1733173,2.1240234375
,74.1939617,2.197265625
,74.2018129,2.255859375
,74.2214407,2.3095703125
,74.2718998,2.353515625
,74.272409,2.392578125
,74.2783333,2.4169921875
,74.3131569,2.44140625
,74.3182953,2.451171875
,74.355171,2.4560546875
,74.3587166,2.451171875
,74.4103779,2.431640625
,74.4108219,2.4072265625
,74.4415139,2.3779296875
,74.4418909,2.3486328125
,74.4589785,2.32421875
,74.5025145,2.3046875
,74.5029631,2.2802734375
,74.5209385,2.255859375
,74.5396173,2.236328125
,74.5805545,2.2119140625
,74.5810034,2.1923828125
,74.6186308,2.16796875
,74.6190908,2.1484375
,74.638671,2.12890625
,74.6743671,2.109375
,74.6955893,2.08984375
,74.7006147,2.0703125
,74.7357957,2.05078125
,74.7400343,2.0361328125
,74.7787857,2.0166015625
,74.7814791,2.001953125
,74.826699,1.9873046875
,74.8270186,1.9775390625
,74.8481884,1.9677734375
,74.8606868,1.9580078125
,74.9045027,1.9482421875
,74.9048125,1.9384765625
,74.9227383,1.93359375
,74.9572005,1.9580078125
,74.962939,2.0068359375
,74.9826875,2.080078125
,75.0289574,2.1533203125
,75.029419,2.2216796875
,75.0422575,2.28515625
,75.0612677,2.333984375
,75.1075169,2.3779296875
,75.1083419,2.412109375
,75.1223091,2.4365234375
,75.1681755,2.4560546875
,75.1685394,2.4658203125
,75.1894075,2.4658203125
,75.2015827,2.4560546875
,75.2203454,2.4365234375
,75.2419718,2.412109375
,75.2755404,2.3876953125
,75.2805113,2.3583984375
,75.3161494,2.333984375
,75.3378574,2.3095703125
,75.3427468,2.2802734375
,75.3595967,2.255859375
,75.3999391,2.236328125
,75.4003832,2.2119140625
,75.422175,2.1875
,75.464145,2.1630859375
,75.4644496,2.1435546875
,75.4821116,2.1240234375
,75.5191453,2.1044921875
,75.522097,2.080078125
,75.5578409,2.060546875
,75.5799278,2.041015625
,75.5803861,2.0263671875
,75.600935,2.01171875
,75.6511632,2.001953125
,75.6514545,1.9873046875
,75.6620285,1.9775390625
,75.7130551,1.962890625
,75.7135073,1.953125
,75.723196,1.943359375
,75.7401979,1.93359375
,75.7746412,1.943359375
,75.7957877,1.9775390625
,75.8021702,2.041015625
,75.8536888,2.1142578125
,75.8541435,2.1826171875
,75.8620871,2.2412109375
,75.8844379,2.294921875
,75.899738,2.333984375
,75.9342358,2.373046875
,75.9555503,2.4072265625
,75.9623604,2.4267578125
,75.9818676,2.44140625
,76.0028953,2.44140625
,76.0541264,2.4365234375
,76.0544196,2.4169921875
,76.0619174,2.392578125
,76.0966296,2.36328125
,76.1028798,2.3388671875
,76.1213037,2.2998046875
,76.1424769,2.2802734375
,76.1633174,2.255859375
,76.2107108,2.236328125
,76.2110155,2.2119140625
,76.2237654,2.1923828125
,76.2734765,2.16796875
,76.2737946,2.1484375
,76.3045404,2.12890625
,76.3048772,2.109375
,76.3219483,2.08984375
,76.3562026,2.0751953125
,76.3768761,2.0556640625
,76.382031,2.0361328125
,76.4187361,2.021484375
,76.4440882,2.0068359375
,76.4446006,1.9970703125
,76.4609554,1.9873046875
,76.481755,1.9775390625
,76.5017566,1.97265625
,76.5376099,1.962890625
,76.5429541,1.9580078125
,76.5834679,1.9580078125
,76.5839124,1.9921875
,76.6142602,2.0458984375
,76.6265602,2.1142578125
,76.6410246,2.177734375
,76.6762158,2.24609375
,76.698443,2.294921875
,76.7032638,2.3388671875
,76.7543843,2.373046875
,76.7548437,2.40234375
,76.7638563,2.4169921875
,76.8001035,2.431640625
,76.8305422,2.431640625
,76.8308664,2.4267578125
,76.8411117,2.3974609375
,76.8792241,2.3779296875
,76.8840484,2.353515625
,76.9048243,2.3291015625
,76.9244727,2.3046875
,76.9593334,2.275390625
,76.9799277,2.255859375
,76.985814,2.2314453125
,77.0347661,2.20703125
,77.0351178,2.1826171875
,77.043678,2.16796875
,77.0630176,2.1435546875
,77.0979082,2.1240234375
,77.1187738,2.1044921875
,77.1238823,2.0849609375
,77.1461435,2.0654296875
,77.1808827,2.05078125
,77.1813151,2.03125
,77.2009061,2.0166015625
,77.2536183,2.01171875
,77.2540733,1.9970703125
,77.2651375,1.982421875
,77.2855785,1.97265625
,77.3054375,1.9677734375
,77.3406428,1.9580078125
,77.3462106,1.962890625
,77.3635887,1.9921875
,77.3839231,2.0556640625
,77.4177144,2.119140625
,77.438024,2.1875
,77.4433085,2.2412109375
,77.485381,2.2900390625
,77.4856682,2.3291015625
,77.5054326,2.36328125
,77.5218288,2.3779296875
,77.5481939,2.40234375
,77.5662757,2.3974609375
,77.5830599,2.3876953125
,77.6049221,2.3828125
,77.6393174,2.36328125
,77.6448337,2.34375
,77.6656571,2.3193359375
,77.7174909,2.2900390625
,77.7179727,2.265625
,77.7265494,2.2412109375
,77.743806,2.2216796875
,77.7925371,2.2021484375
,77.7929807,2.177734375
,77.8046546,2.1630859375
,77.8568839,2.138671875
,77.8573327,2.119140625
,77.865878,2.099609375
,77.9008092,2.080078125
,77.9218215,2.060546875
,77.9250231,2.041015625
,77.944122,2.0263671875
,77.9793725,2.01171875
,77.9995761,2.001953125
,78.0044237,1.9921875
,78.0426556,1.9775390625
,78.0474607,1.9677734375
,78.0838238,1.9580078125
,78.0841836,1.9482421875
,78.1043488,1.9384765625
,78.1392055,1.9384765625
,78.1447049,1.962890625
,78.1818737,2.0166015625
,78.1860005,2.08984375
,78.2075547,2.158203125
,78.2267643,2.216796875
,78.2724216,2.2705078125
,78.2727109,2.3095703125
,78.2887074,2.333984375
,78.3061257,2.353515625
,78.3252015,2.3779296875
,78.3659478,2.3876953125
,78.3663961,2.392578125
,78.3876543,2.3828125
,78.4069806,2.36328125
,78.4465445,2.3388671875
,78.4469956,2.314453125
,78.4635844,2.2900390625
,78.5007288,2.265625
,78.503716,2.2509765625
,78.5395461,2.2314453125
,78.5692343,2.2119140625
,78.5696685,2.197265625
,78.6048209,2.177734375
,78.6078345,2.158203125
,78.6445554,2.1435546875
,78.6450045,2.1240234375
,78.6936223,2.109375
,78.6939316,2.0947265625
,78.7039982,2.080078125
,78.7387512,2.0654296875
,78.772617,2.0556640625
,78.7730638,2.041015625
,78.7877147,2.03125
,78.8042611,2.0166015625
,78.8397733,2.0068359375
,78.8626035,2.01171875
,78.8645571,2.03125
,78.9098643,2.080078125
,78.9103103,2.138671875
,78.9397705,2.197265625
,78.947046,2.2509765625
,78.9674671,2.294921875
,78.9890249,2.3291015625
,79.0100798,2.34375
,79.025564,2.353515625
,79.064256,2.373046875
,79.0647067,2.3779296875
,79.1001256,2.373046875
,79.1214708,2.3583984375
,79.1266234,2.333984375
,79.161815,2.3095703125
,79.1828052,2.28515625
,79.1894996,2.265625
,79.206839,2.2412109375
,79.2251923,2.2216796875
,79.2612117,2.2021484375
,79.2664696,2.1875
,79.3028661,2.16796875
,79.3077468,2.1484375
,79.3425691,2.12890625
,79.363439,2.1142578125
,79.3638895,2.099609375
,79.4059536,2.0849609375
,79.4063866,2.0703125
,79.4274176,2.0556640625
,79.4667122,2.0361328125
,79.4671455,2.0263671875
,79.5042107,2.01171875
,79.506989,1.9970703125
,79.5607349,1.9873046875
,79.5610232,1.9775390625
,79.5655545,1.97265625
,79.6071467,1.962890625
,79.6076327,1.953125
,79.6529362,1.9482421875
,79.6532641,1.953125
,79.6741176,1.982421875
,79.6881493,2.05078125
,79.7086982,2.119140625
,79.7481032,2.1875
,79.7485656,2.255859375
,79.7655735,2.3193359375
,79.7864175,2.3681640625
,79.8240637,2.4072265625
,79.8260027,2.4365234375
,79.873095,2.4560546875
,79.8735488,2.470703125
,79.8895866,2.4755859375
,79.9260683,2.470703125
,79.9265077,2.451171875
,79.9619074,2.4267578125
,79.9825717,2.40234375
,79.9883648,2.373046875
,80.0088148,2.3486328125
,80.0450895,2.3193359375
,80.0499076,2.294921875
,80.0911412,2.2705078125
,80.0915213,2.24609375
,80.1066073,2.2265625
,80.1534264,2.20703125
,80.1538753,2.1826171875
,80.1688083,2.1630859375
,80.1878002,2.138671875
,80.2320215,2.1142578125
,80.2323477,2.0947265625
,80.263307,2.0751953125
,80.2637536,2.060546875
,80.3089452,2.041015625
,80.309247,2.03125
,80.3387441,2.0166015625
,80.3483113,2.001953125
,80.3851369,1.9921875
,80.3876783,1.982421875
,80.4104451,1.97265625
,80.4306699,1.9677734375
,80.4803175,1.982421875
,80.4807005,2.0361328125
,80.4887403,2.1044921875
,80.5262257,2.1826171875
,80.5266784,2.2509765625
,80.5630156,2.314453125
,80.5688015,2.36328125
,80.6188386,2.4072265625
,80.6191471,2.44140625
,80.6304863,2.470703125
,80.6469008,2.4853515625
,80.6819946,2.4951171875
,80.7029213,2.4951171875
,80.7075841,2.48046875
,80.7442529,2.4560546875
,80.7644128,2.4267578125
,80.7711173,2.3974609375
,80.8058929,2.36328125
,80.8108035,2.333984375
,80.8281051,2.3046875
,80.8472105,2.2802734375
,80.8883775,2.255859375
,80.9166647,2.2314453125
,80.9171322,2.20703125
,80.9308034,2.1826171875
,80.981111,2.1630859375
,80.9815604,2.1337890625
,80.9878496,2.1142578125
,81.027333,2.0947265625
,81.0277179,2.0751953125
,81.0667322,2.0556640625
,81.0671875,2.0361328125
,81.1065222,2.0166015625
,81.1116078,2.001953125
,81.1313651,1.982421875
,81.1536718,1.97265625
,81.1714059,1.9580078125
,81.1925564,1.9482421875
,81.2092319,1.9287109375
,81.2278336,1.923828125
,81.2769379,1.9287109375
,81.2773963,1.9775390625
,81.2904187,2.0458984375
,81.3252712,2.12890625
,81.3297262,2.2021484375
,81.3678798,2.275390625
,81.3681817,2.3291015625
,81.4054386,2.3876953125
,81.4082216,2.431640625
,81.4293115,2.4609375
,81.4762809,2.4853515625
,81.476728,2.4951171875
,81.4908107,2.5
,81.5386794,2.4853515625
,81.5390501,2.4609375
,81.5481049,2.4267578125
,81.5871322,2.392578125
,81.6183163,2.36328125
,81.6187615,2.3291015625
,81.6309723,2.2998046875
,81.6495863,2.275390625
,81.696408,2.24609375
,81.6967079,2.216796875
,81.7112407,2.1923828125
,81.7288045,2.1630859375
,81.7639164,2.1435546875
,81.7694613,2.119140625
,81.7891883,2.099609375
,81.8241341,2.0751953125
,81.8440447,2.0556640625
,81.8518821,2.03125
,81.8706888,2.01171875
,81.9141403,1.9921875
,81.9144908,1.97265625
,81.9445714,1.9580078125
,81.9495694,1.943359375
,81.9857896,1.9287109375
,81.9894858,1.9189453125
,82.0366868,1.904296875
,82.0369961,1.89453125
,82.0688822,1.884765625
,82.0711755,1.89453125
,82.1180396,1.9384765625
,82.1184869,2.01171875
,82.1382441,2.1044921875
,82.1496736,2.1875
,82.1938156,2.2607421875
,82.1947083,2.32421875
,82.2119384,2.3779296875
,82.2472242,2.4169921875
,82.2536453,2.4462890625
,82.2687803,2.4658203125
,82.302918,2.4755859375
,82.3242494,2.4755859375
,82.3294548,2.4560546875
,82.3678454,2.431640625
,82.3714152,2.40234375
,82.4087454,2.3681640625
,82.4141243,2.333984375
,82.4331804,2.3046875
,82.449283,2.2802734375
,82.4909764,2.255859375
,82.4914089,2.2314453125
,82.5116968,2.20703125
,82.5471486,2.1826171875
,82.551824,2.1630859375
,82.5887122,2.138671875
,82.5916681,2.1142578125
,82.6272308,2.0947265625
,82.6486561,2.0703125
,82.6490478,2.05078125
,82.6924306,2.0361328125
,82.6928596,2.0166015625
,82.7135284,2.001953125
,82.7326685,1.9873046875
,82.7671121,1.9775390625
,82.7722403,1.9677734375
,82.8164001,1.9580078125
,82.8168434,1.9482421875
,82.8465812,1.9384765625
,82.848991,1.9287109375
,82.8858755,1.9384765625
,82.8909284,1.9921875
,82.9266947,2.060546875
,82.9563574,2.1435546875
,82.9567554,2.2216796875
,82.9733078,2.2900390625
,82.9944974,2.3486328125
,83.0116878,2.392578125
,83.04729,2.4267578125
,83.0501011,2.451171875
,83.0871052,2.4658203125
,83.0934267,2.470703125
,83.128473,2.4609375
,83.1338256,2.4365234375
,83.1524285,2.4072265625
,83.1904283,2.373046875
,83.1908046,2.34375
,83.2359181,2.314453125
,83.23682,2.28515625
,83.2530782,2.2607421875
,83.2984449,2.236328125
,83.2989173,2.2119140625
,83.3119988,2.1875
,83.3459083,2.1630859375
,83.3667732,2.138671875
,83.3750666,2.1142578125
,83.391012,2.08984375
,83.4255275,2.0703125
,83.446269,2.05078125
,83.4520397,2.0361328125
,83.4744153,2.0166015625
,83.5150913,2.001953125
,83.5155955,1.9921875
,83.5341331,1.97265625
,83.5522529,1.9580078125
,83.5868209,1.9482421875
,83.5915657,1.943359375
,83.6131545,1.9677734375
,83.6569828,2.0263671875
,83.6574383,2.1044921875
,83.67388,2.1875
,83.7183076,2.2607421875
,83.7187339,2.3291015625
,83.7398382,2.3876953125
,83.7527185,2.4365234375
,83.797712,2.4755859375
,83.7981275,2.5
,83.8134683,2.5146484375
,83.8593353,2.5244140625
,83.8596197,2.5146484375
,83.8745501,2.4951171875
,83.8908149,2.4658203125
,83.9126559,2.431640625
,83.9317226,2.3974609375
,83.9681733,2.36328125
,83.9734949,2.333984375
,84.0161296,2.3046875
,84.0165891,2.275390625
,84.0332016,2.24609375
,84.0788663,2.216796875
,84.0793134,2.1875
,84.110104,2.158203125
,84.1104874,2.1337890625
,84.1479573,2.109375
,84.1535557,2.0849609375
,84.1751101,2.060546875
,84.1953418,2.0361328125
,84.2356591,2.0166015625
,84.236119,1.9921875
,84.2544651,1.9677734375
,84.2929247,1.9482421875
,84.2933756,1.9287109375
,84.3279602,1.9140625
,84.3323904,1.8994140625
,84.3763117,1.884765625
,84.3766011,1.8701171875
,84.4078191,1.8603515625
,84.4153369,1.8505859375
,84.4535045,1.8359375
,84.4539635,1.826171875
,84.4722211,1.8212890625
,84.5167317,1.845703125
,84.5170996,1.9091796875
,84.5336293,2.001953125
,84.567645,2.109375
,84.588827,2.2021484375
,84.5961511,2.294921875
,84.6159274,2.3779296875
,84.6319813,2.4365234375
,84.6719105,2.490234375
,84.6920215,2.529296875
,84.6924719,2.55859375
,84.7342432,2.578125
,84.7346896,2.5830078125
,84.7644873,2.5732421875
,84.7775686,2.5537109375
,84.7963926,2.51953125
,84.8431129,2.48046875
,84.8435608,2.44140625
,84.8737071,2.4072265625
,84.8739995,2.373046875
,84.9212217,2.3388671875
,84.9215114,2.3095703125
,84.9344755,2.275390625
,84.9719997,2.24609375
,84.9747216,2.216796875
,85.0106703,2.1875
,85.0308693,2.1630859375
,85.0357676,2.138671875
,85.0553105,2.1142578125
,85.0742179,2.08984375
,85.1237602,2.0654296875
,85.124198,2.041015625
,85.1363187,2.021484375
,85.1844211,1.9970703125
,85.1848325,1.97265625
,85.2060086,1.9580078125
,85.2138675,1.943359375
,85.2496786,1.93359375
,85.2553255,1.9189453125
,85.292228,1.8994140625
,85.2946607,1.884765625
,85.3374292,1.8701171875
,85.3378611,1.865234375
,85.3589759,1.884765625
,85.3741472,1.953125
,85.3944087,2.0361328125
,85.4297247,2.12890625
,85.4509279,2.216796875
,85.455739,2.294921875
,85.4932848,2.3583984375
,85.4980417,2.4169921875
,85.517618,2.4560546875
,85.5530616,2.490234375
,85.5585281,2.509765625
,85.5744865,2.51953125
,85.5947456,2.5244140625
,85.6446921,2.509765625
,85.6451506,2.4853515625
,85.6549807,2.4560546875
,85.6907031,2.421875
,85.7115606,2.392578125
,85.7175896,2.3583984375
,85.7343834,2.3291015625
,85.7707457,2.3046875
,85.7759498,2.275390625
,85.810882,2.2509765625
,85.8164431,2.2216796875
,85.8627796,2.1923828125
,85.8631015,2.16796875
,85.8789466,2.138671875
,85.8972135,2.1142578125
,85.9152314,2.08984375
,85.9545302,2.0654296875
,85.9549121,2.0458984375
,86.0009413,2.0263671875
,86.0012549,2.001953125
,86.0155399,1.982421875
,86.0525258,1.9677734375
,86.058514,1.9482421875
,86.0743833,1.93359375
,86.127168,1.9189453125
,86.1276266,1.9091796875
,86.1361995,1.89453125
,86.1555096,1.884765625
,86.2051432,1.8701171875
,86.2056001,1.865234375
,86.2179805,1.8798828125
,86.2533027,1.943359375
,86.2625967,2.03125
,86.2787733,2.12890625
,86.2952198,2.2119140625
,86.3420907,2.2900390625
,86.342539,2.353515625
,86.3563458,2.4072265625
,86.402447,2.4462890625
,86.4030289,2.4755859375
,86.4175152,2.4951171875
,86.4547267,2.5048828125
,86.4550369,2.5
,86.4753974,2.4853515625
,86.5124881,2.4560546875
,86.517275,2.431640625
,86.5532062,2.3974609375
,86.5580476,2.3681640625
,86.5787132,2.333984375
,86.6140192,2.3095703125
,86.6193811,2.2802734375
,86.6348542,2.255859375
,86.6812834,2.2314453125
,86.6817281,2.20703125
,86.7135468,2.1826171875
,86.7184106,2.158203125
,86.7370378,2.1337890625
,86.7737064,2.109375
,86.7783538,2.08984375
,86.7963379,2.0654296875
,86.8316978,2.05078125
,86.8396243,2.0361328125
,86.8554155,2.01171875
,86.8888089,2.001953125
,86.9096342,1.9921875
,86.916861,1.9775390625
,86.9532015,1.962890625
,86.9589314,1.953125
,86.9928998,1.97265625
,87.0137946,2.0263671875
,87.0163432,2.0947265625
,87.0517603,2.177734375
,87.0573773,2.24609375
,87.0939628,2.3046875
,87.0971422,2.3486328125
,87.1425213,2.392578125
,87.1429768,2.4169921875
,87.1594765,2.4365234375
,87.2028763,2.4462890625
,87.2032592,2.44140625
,87.217338,2.4267578125
,87.2642814,2.40234375
,87.2651352,2.373046875
,87.2782885,2.34375
,87.3260332,2.3095703125
,87.3263218,2.2802734375
,87.3471571,2.255859375
,87.3545612,2.2314453125
,87.3921505,2.2119140625
,87.3977663,2.1875
,87.4494169,2.1630859375
,87.4498851,2.138671875
,87.4596073,2.1142578125
,87.4781222,2.0947265625
,87.5170579,2.0703125
,87.5174558,2.05078125
,87.5360147,2.03125
,87.5740041,2.0166015625
,87.5783977,1.9873046875
,87.620641,1.9775390625
,87.6211422,1.962890625
,87.639435,1.9482421875
,87.6586265,1.9384765625
,87.6949041,1.9287109375
,87.6975191,1.9140625
,87.7453051,1.904296875
,87.7457547,1.89453125
,87.7776035,1.9140625
,87.7780632,1.9677734375
,87.7977774,2.0556640625
,87.833574,2.1484375
,87.8388157,2.2314453125
,87.8841113,2.3095703125
,87.8845456,2.3681640625
,87.901244,2.421875
,87.917292,2.4609375
,87.9637721,2.5
,87.9642238,2.51953125
,87.9791576,2.5341796875
,88.0254983,2.5341796875
,88.025959,2.51953125
,88.046817,2.5
,88.0604813,2.470703125
,88.0773127,2.4365234375
,88.119607,2.40234375
,88.1200536,2.373046875
,88.1365806,2.3388671875
,88.1588231,2.3095703125
,88.1937097,2.2802734375
,88.1987861,2.2509765625
,88.2338636,2.2216796875
,88.2546624,2.197265625
,88.257781,2.16796875
,88.2938501,2.1484375
,88.3012814,2.1142578125
,88.3196685,2.08984375
,88.3550664,2.0703125
,88.3594937,2.0458984375
,88.3817935,2.0263671875
,88.4184908,2.0068359375
,88.4191175,1.982421875
,88.4573501,1.9677734375
,88.4620205,1.9482421875
,88.4774404,1.93359375
,88.5285478,1.9189453125
,88.5288347,1.9091796875
,88.5406764,1.89453125
,88.5751089,1.884765625
,88.5806511,1.8798828125
,88.6189538,1.8701171875
,88.6194012,1.8603515625
,88.6388224,1.875
,88.6719745,1.93359375
,88.6928773,2.021484375
,88.6981858,2.1240234375
,88.7363716,2.216796875
,88.7407198,2.3046875
,88.7802357,2.3828125
,88.7805986,2.44140625
,88.8260525,2.4951171875
,88.8263479,2.5341796875
,88.8579325,2.568359375
,88.8583825,2.587890625
,88.8960154,2.59765625
,88.8994589,2.5927734375
,88.9359068,2.5732421875
,88.9418555,2.5390625
,88.9769994,2.5048828125
,88.9828095,2.4658203125
,89.0019144,2.421875
,89.0181893,2.3828125
,89.0537012,2.353515625
,89.059674,2.3291015625
,89.0954566,2.2998046875
,89.10176,2.2705078125
,89.1400031,2.2412109375
,89.1403585,2.20703125
,89.1863083,2.1826171875
,89.1865995,2.158203125
,89.1975566,2.12890625
,89.2326388,2.109375
,89.2551399,2.0849609375
,89.2597978,2.060546875
,89.3016142,2.0361328125
,89.3024577,2.01171875
,89.3200838,1.9921875
,89.356068,1.9775390625
,89.3810756,1.9580078125
,89.3815282,1.9482421875
,89.3991053,1.9384765625
,89.4339218,1.9189453125
,89.454271,1.904296875
,89.4594242,1.8896484375
,89.4807249,1.89453125
,89.5209416,1.93359375
,89.5212466,2.0068359375
,89.5392338,2.08984375
,89.5828859,2.1826171875
,89.5833354,2.265625
,89.6005465,2.34375
,89.6213821,2.40234375
,89.6417739,2.4560546875
,89.6770175,2.4951171875
,89.7068687,2.51953125
,89.7073114,2.5341796875
,89.7239813,2.548828125
,89.7439959,2.5341796875
,89.7612915,2.5048828125
,89.7982988,2.48046875
,89.7987531,2.451171875
,89.8351791,2.4169921875
,89.8558866,2.3779296875
,89.8635606,2.3486328125
,89.9057415,2.314453125
,89.9061902,2.2802734375
,89.9211647,2.2509765625
,89.9400542,2.2216796875
,89.9839848,2.197265625
,89.9844322,2.1728515625
,90.0149939,2.1435546875
,90.0219909,2.1142578125
,90.0579518,2.0849609375
,90.0626405,2.060546875
,90.1068624,2.03125
,90.1073075,2.0068359375
,90.127176,1.982421875
,90.1414406,1.962890625
,90.1628953,1.9384765625
,90.1820008,1.9140625
,90.218781,1.8994140625
,90.2217103,1.8798828125
,90.2424927,1.8701171875
,90.2591459,1.85546875
,90.2818821,1.8408203125
,90.3011369,1.826171875
,90.3387741,1.81640625
,90.3436735,1.8212890625
,90.3783686,1.8701171875
,90.3807919,1.953125
,90.4164675,2.0458984375
,90.4361553,2.1484375
,90.4447589,2.236328125
,90.4804125,2.3046875
,90.4808617,2.3681640625
,90.5151974,2.4267578125
,90.5360999,2.4658203125
,90.541377,2.4951171875
,90.5786875,2.509765625
,90.5835657,2.5146484375
,90.6348073,2.5048828125
,90.635155,2.4853515625
,90.6402902,2.4560546875
,90.6754536,2.421875
,90.6961368,2.3876953125
,90.7018334,2.3583984375
,90.7371193,2.32421875
,90.7434282,2.294921875
,90.7786267,2.265625
,90.8083303,2.236328125
,90.808762,2.2119140625
,90.818735,2.1826171875
,90.8569294,2.158203125
,90.8856728,2.1337890625
,90.8859627,2.109375
,90.902137,2.0849609375
,90.9364513,2.060546875
,90.9577903,2.0361328125
,90.9647851,2.01171875
,90.9814063,1.9873046875
,91.0252487,1.9677734375
,91.0256932,1.953125
,91.0417316,1.93359375
,91.0792963,1.9189453125
,91.0817545,1.904296875
,91.118502,1.8896484375
,91.1236142,1.875
,91.1606869,1.8603515625
,91.1661014,1.8505859375
,91.1863219,1.8603515625
,91.2021413,1.9140625
,91.2385942,2.001953125
,91.2402654,2.0947265625
,91.2774514,2.1875
,91.2980605,2.265625
,91.3055844,2.333984375
,91.3495815,2.3876953125
,91.3504191,2.421875
,91.3674489,2.451171875
,91.3821399,2.4658203125
,91.4256969,2.4755859375
,91.4260037,2.4658203125
,91.4421465,2.4462890625
,91.4789906,2.421875
,91.4846714,2.3876953125
,91.5211306,2.3583984375
,91.5258629,2.3291015625
,91.5428425,2.2998046875
,91.577985,2.275390625
,91.5831925,2.24609375
,91.6031178,2.2216796875
,91.6380551,2.1923828125
,91.6435203,2.1728515625
,91.6933288,2.1484375
,91.693782,2.1240234375
,91.7043666,2.099609375
,91.719519,2.0751953125
,91.7576061,2.05078125
,91.7622795,2.03125
,91.7838979,2.01171875
,91.8051313,1.9921875
,91.824029,1.97265625
,91.8446225,1.9580078125
,91.8806794,1.9384765625
,91.9102032,1.9189453125
,91.9106637,1.904296875
,91.9234203,1.9189453125
,91.9621646,1.9677734375
,91.9625469,2.0458984375
,91.9992881,2.1240234375
,92.0046345,2.2021484375
,92.0244418,2.265625
,92.0644828,2.32421875
,92.0649276,2.3583984375
,92.1010789,2.392578125
,92.1015287,2.412109375
,92.1383835,2.4267578125
,92.1436638,2.4267578125
,92.1779454,2.421875
,92.1988446,2.40234375
,92.2068529,2.3779296875
,92.2260114,2.3486328125
,92.246399,2.3193359375
,92.2642248,2.2900390625
,92.2840177,2.2705078125
,92.3194854,2.24609375
,92.3243156,2.2216796875
,92.3433055,2.197265625
,92.3653746,2.1728515625
,92.3852172,2.1533203125
,92.4240209,2.12890625
,92.4436833,2.109375
,92.4441823,2.0849609375
,92.463578,2.0703125
,92.501729,2.0458984375
,92.5021744,2.0263671875
,92.5478377,2.0068359375
,92.5482889,1.9921875
,92.5655034,1.97265625
,92.6013324,1.953125
,92.6052317,1.9384765625
,92.6395021,1.923828125
,92.6593712,1.9091796875
,92.6636641,1.89453125
,92.701516,1.8896484375
,92.7043245,1.884765625
,92.7410122,1.875
,92.7465766,1.865234375
,92.7846383,1.85546875
,92.7850985,1.8505859375
,92.8216573,1.8798828125
,92.842794,1.943359375
,92.8432491,2.041015625
,92.8873133,2.138671875
,92.8877628,2.2314453125
,92.9189267,2.3046875
,92.9268686,2.3681640625
,92.9471313,2.4169921875
,92.9685583,2.4462890625
,92.9884051,2.4755859375
,93.0031945,2.4853515625
,93.0428094,2.4951171875
,93.0635674,2.490234375
,93.0657524,2.4755859375
,93.1025594,2.451171875
,93.1053849,2.421875
,93.1418695,2.392578125
,93.1631459,2.36328125
,93.1636412,2.333984375
,93.2024819,2.3095703125
,93.202938,2.2900390625
,93.2383069,2.265625
,93.2596216,2.2412109375
,93.267631,2.2216796875
,93.2866963,2.197265625
,93.3254089,2.177734375
,93.3258656,2.1533203125
,93.3631475,2.1337890625
,93.3689962,2.1142578125
,93.3867255,2.0947265625
,93.406,2.0751953125
,93.4262015,2.0556640625
,93.4632932,2.041015625
,93.4662543,2.021484375
,93.5038229,2.0068359375
,93.5069862,1.9921875
,93.5564633,1.9775390625
,93.5569331,1.9677734375
,93.5889085,1.9580078125
,93.5893558,1.953125
,93.6071672,1.9384765625
,93.6259967,1.93359375
,93.6634461,1.9482421875
,93.6665658,2.001953125
,93.6871679,2.080078125
,93.7296834,2.16796875
,93.7300552,2.2509765625
,93.744858,2.32421875
,93.7927661,2.3779296875
,93.793216,2.421875
,93.8242285,2.451171875
,93.8289084,2.4755859375
,93.8477269,2.4853515625
,93.8834548,2.490234375
,93.8879061,2.4853515625
,93.9040713,2.470703125
,93.9494412,2.4462890625
,93.9497449,2.4169921875
,93.9671713,2.3876953125
,93.9873477,2.3583984375
,94.0082217,2.3291015625
,94.0276992,2.3046875
,94.0647965,2.2802734375
,94.0677499,2.2607421875
,94.1211269,2.236328125
,94.1214909,2.216796875
,94.1258238,2.197265625
,94.1675565,2.177734375
,94.1679994,2.1533203125
,94.2168554,2.1337890625
,94.2173129,2.1142578125
,94.2276372,2.0947265625
,94.2770849,2.0751953125
,94.2773909,2.05078125
,94.2845268,2.03125
,94.3252923,2.0166015625
,94.3257529,2.001953125
,94.3634649,1.9873046875
,94.3666404,1.97265625
,94.4161766,1.962890625
,94.4167761,1.953125
,94.4285373,1.943359375
,94.4457349,1.9287109375
,94.4813088,1.923828125
,94.5104826,1.9287109375
,94.5107848,1.97265625
,94.5460397,2.0458984375
,94.5464896,2.12890625
,94.5867204,2.216796875
,94.5897955,2.28515625
,94.6371579,2.3486328125
,94.6376046,2.3974609375
,94.6458841,2.4365234375
,94.6832287,2.4609375
,94.7040315,2.4755859375
,94.7086416,2.48046875
,94.7450671,2.48046875
,94.748148,2.4658203125
,94.7842488,2.4462890625
,94.7908365,2.4169921875
,94.8109291,2.3876953125
,94.8278917,2.353515625
,94.8704895,2.3291015625
,94.8709375,2.3046875
,94.8875905,2.2802734375
,94.908724,2.255859375
,94.9283831,2.236328125
,94.9495283,2.216796875
,94.9944726,2.197265625
,94.9949415,2.177734375
,95.0080179,2.1533203125
,95.0271006,2.138671875
,95.0619896,2.119140625
,95.0834007,2.099609375
,95.0889538,2.080078125
,95.1327747,2.060546875
,95.1332025,2.0458984375
,95.1492701,2.0263671875
,95.194817,2.0068359375
,95.1951042,1.9921875
,95.2162032,1.982421875
,95.227479,1.97265625
,95.2490104,1.962890625
,95.285389,1.953125
,95.2878959,1.943359375
,95.3350314,1.9287109375
,95.3353353,1.9189453125
,95.3466671,1.9287109375
,95.3832236,1.982421875
,95.3877936,2.060546875
,95.4269295,2.1533203125
,95.4275934,2.236328125
,95.4586646,2.3095703125
,95.4788829,2.3583984375
,95.4903428,2.4072265625
,95.5267469,2.44140625
,95.5307918,2.4609375
,95.5501827,2.4755859375
,95.5690044,2.48046875
,95.6139787,2.4755859375
,95.6144272,2.4609375
,95.6350586,2.4365234375
,95.6493928,2.4072265625
,95.6929715,2.3779296875
,95.6934223,2.3486328125
,95.7289796,2.3193359375
,95.7294395,2.294921875
,95.7469373,2.275390625
,95.7822099,2.255859375
,95.804329,2.236328125
,95.8091413,2.216796875
,95.8475532,2.1923828125
,95.8480057,2.1728515625
,95.8949487,2.1533203125
,95.8952853,2.12890625
,95.9258928,2.109375
,95.9263611,2.08984375
,95.9631654,2.0703125
,95.9838345,2.0556640625
,95.98876,2.041015625
,96.0358726,2.0263671875
,96.0363141,2.01171875
,96.0648626,2.001953125
,96.067909,1.982421875
,96.1106273,1.97265625
,96.1109091,1.9775390625
,96.1326089,2.0263671875
,96.1501435,2.0947265625
,96.1858042,2.16796875
,96.1902939,2.2412109375
,96.2387048,2.3046875
,96.2390438,2.353515625
,96.2531299,2.392578125
,96.2999867,2.4267578125
,96.300296,2.44140625
,96.308145,2.4609375
,96.3304923,2.4609375
,96.3659994,2.4658203125
,96.370496,2.451171875
,96.4102598,2.4365234375
,96.4105559,2.4072265625
,96.4443684,2.3828125
,96.4644217,2.353515625
,96.4693515,2.3291015625
,96.5052533,2.3046875
,96.5361697,2.2802734375
,96.5366276,2.2607421875
,96.5508052,2.2412109375
,96.5991005,2.216796875
,96.5995465,2.1875
,96.6311664,2.16796875
,96.6315688,2.1435546875
,96.6494261,2.1240234375
,96.6848438,2.099609375
,96.691193,2.080078125
,96.7261699,2.0556640625
,96.7309352,2.0361328125
,96.767645,2.0166015625
,96.7722721,2.001953125
,96.8075844,1.9873046875
,96.8079534,1.9775390625
,96.8448405,1.9677734375
,96.847808,1.9580078125
,96.8928546,1.9482421875
,96.8931914,1.943359375
,96.9144086,1.962890625
,96.955541,2.0166015625
,96.955905,2.1044921875
,96.9724117,2.1875
,97.0066959,2.2705078125
,97.0279586,2.3388671875
,97.0284054,2.4072265625
,97.0621536,2.4560546875
,97.0834518,2.4951171875
,97.0914383,2.529296875
,97.1263094,2.548828125
,97.1305809,2.55859375
,97.1729444,2.55859375
,97.1733421,2.5439453125
,97.2040378,2.51953125
,97.2114341,2.4853515625
,97.2503954,2.451171875
,97.2507787,2.4169921875
,97.2723912,2.3828125
,97.3129774,2.353515625
,97.3134217,2.3193359375
,97.3433874,2.2900390625
,97.3504013,2.2607421875
,97.3889636,2.2314453125
,97.389398,2.197265625
,97.4232356,2.177734375
,97.4437216,2.1533203125
,97.4529521,2.1240234375
,97.4722603,2.099609375
,97.5091689,2.0751953125
,97.5142946,2.05078125
,97.530994,2.03125
,97.5505204,2.01171875
,97.5867288,1.9921875
,97.5920229,1.9677734375
,97.6273199,1.953125
,97.6575433,1.93359375
,97.6579936,1.9189453125
,97.6730069,1.904296875
,97.7096484,1.89453125
,97.7120833,1.884765625
,97.7487671,1.875
,97.7694257,1.85546875
,97.7726225,1.8505859375
,97.8131156,1.8701171875
,97.8135611,1.9287109375
,97.8321483,2.0166015625
,97.87497,2.119140625
,97.8754153,2.2119140625
,97.8940386,2.2998046875
,97.9108911,2.3681640625
,97.9461517,2.4365234375
,97.9670862,2.4853515625
,97.9713198,2.529296875
,98.007128,2.55859375
,98.0314597,2.578125
,98.0319206,2.587890625
,98.0679654,2.5830078125
,98.0884876,2.5634765625
,98.0937721,2.529296875
,98.1108006,2.4951171875
,98.1455446,2.4560546875
,98.1664674,2.421875
,98.1717154,2.3828125
,98.2075634,2.3486328125
,98.2323741,2.314453125
,98.2326843,2.28515625
,98.2517281,2.2509765625
,98.2929067,2.2216796875
,98.2933457,2.1923828125
,98.3302245,2.16796875
,98.333427,2.1435546875
,98.3678965,2.1142578125
,98.3736388,2.08984375
,98.4089249,2.0654296875
,98.4147201,2.041015625
,98.4514031,2.021484375
,98.4561236,1.9970703125
,98.4716122,1.9775390625
,98.5128041,1.962890625
,98.5131942,1.9482421875
,98.558263,1.9384765625
,98.5587622,1.9189453125
,98.5735835,1.904296875
,98.6191605,1.8896484375
,98.6195026,1.8798828125
,98.6403739,1.8798828125
,98.6512994,1.923828125
,98.6870124,1.9970703125
,98.7074099,2.0947265625
,98.7131111,2.1875
,98.7582448,2.265625
,98.7586406,2.3388671875
,98.7740197,2.3974609375
,98.8193678,2.4462890625
,98.8198089,2.48046875
,98.8324552,2.509765625
,98.865457,2.5244140625
,98.8870831,2.5341796875
,98.8948611,2.51953125
,98.943739,2.5
,98.9440527,2.470703125
,98.9558245,2.4365234375
,98.9728138,2.3974609375
,98.9917652,2.36328125
,99.0180228,2.3291015625
,99.0323996,2.2802734375
,99.0672524,2.255859375
,99.0881526,2.2265625
,99.0941822,2.197265625
,99.1326592,2.16796875
,99.1331108,2.138671875
,99.1761785,2.1142578125
,99.1765305,2.0849609375
,99.1931519,2.060546875
,99.2392199,2.0361328125
,99.2396767,2.01171875
,99.2575122,1.9873046875
,99.2762791,1.962890625
,99.3174359,1.943359375
,99.3177776,1.9189453125
